freq,gls,usurper,pdc_unbiased,shape_periodogram,shift_periodogram
0.00636759621774404,0.16050622261101252,-0.020436962403917486,0.004618604167599484,-0.06023410498375945,0.052032116888380366
0.006526786123187641,0.1547739667205469,-0.00510521305004796,0.015667077073204652,-0.04915297078911117,0.04925987213427437
0.006685976028631242,0.14117042509386826,-0.02874104324800579,-0.008134320725651178,-0.05045868311997385,0.03671045104428663
0.006845165934074843,0.12243899968381984,-0.04430695349232917,-0.02351459602232465,-0.04779704481625639,0.02571018851148065
0.007004355839518444,0.10148704848336583,-0.057780079505699536,-0.037074538539578636,-0.04488694519243093,0.015536255452153596
0.007163545744962045,0.07962741523454663,-0.059769714869156845,-0.04084497914915155,-0.03581850502608378,0.005928931186082888
0.0073227356504056455,0.05736611220100035,-0.07277015875271517,-0.054569245573746705,-0.040855551858384895,0.0021624012068387263
0.007481925555849246,0.03612238356512839,-0.07329631565338803,-0.05520676657363854,-0.037993668090772634,-0.000552096571058644
0.007641115461292847,0.01903034650744902,-0.08510591314669308,-0.06668196783953224,-0.04677480660506938,3.107095276945651e-05
0.007800305366736448,0.009606838758646088,-0.08834269942670255,-0.06863771632022551,-0.05283069424759319,0.003870572035667029
0.00795949527218005,0.009103821983504786,-0.09026152671148222,-0.06904052112309439,-0.05844383846700175,0.008246422628875498
0.008118685177623649,0.015656158757865787,-0.09141879612113703,-0.06890123567645061,-0.06322819271304835,0.012257334138314082
0.008277875083067252,0.026078398998320988,-0.09188258293503127,-0.06826066488181103,-0.0672812167498322,0.01595898203033038
0.00843706498851085,0.037815194566117594,-0.09166472335482377,-0.06711839671245011,-0.07065350937881613,0.019392381928552343
0.008596254893954453,0.0495357878060369,-0.09069320295510978,-0.06538150824752359,-0.07340843441793315,0.022662517723979272
0.008755444799398052,0.06087103824667382,-0.08640717436423181,-0.0598831408884053,-0.07666692841180524,0.028519581719782038
0.008914634704841655,0.07202032441620217,-0.08043030523955332,-0.05348723037891719,-0.07814847381134404,0.033428144327171276
0.009073824610285254,0.08346711289413787,-0.07789149878020764,-0.050151471713997156,-0.08233860355851136,0.03880035806990696
0.009233014515728857,0.09569145752744561,-0.07064743187569134,-0.04268904245833806,-0.08384178914520161,0.04433278304118314
0.009392204421172456,0.1084190534838293,-0.060638660731414655,-0.03324804899162932,-0.08345272042419766,0.04943584005600873
0.009551394326616058,0.11830461596447955,-0.049683022059204635,-0.023991637623335667,-0.07992943826831332,0.05184408584598692
0.009710584232059657,0.11520075576090155,-0.04223125613070469,-0.019436103024533323,-0.0753234056066594,0.05066478655406564
0.00986977413750326,0.08950751022560084,-0.048883792952504806,-0.027867253430850513,-0.0709846793847732,0.04226324380472667
0.01002896404294686,0.054850759692581304,-0.0653093876373668,-0.043828606539887585,-0.0740927553212417,0.035651405649014326
0.010188153948390462,0.030817999316623188,-0.08068014896716019,-0.057650549157516995,-0.07714617425407533,0.030202361501712235
0.010347343853834061,0.019049560206452022,-0.08556931484528499,-0.0621700198922532,-0.07547820579614911,0.026220915367411037
0.010506533759277664,0.014993307540697628,-0.0931974547754235,-0.06884399728999566,-0.07933688197746164,0.02553984984887728
0.010665723664721263,0.01610730104078602,-0.09324476476570434,-0.06822997150683702,-0.08178529127541605,0.027911146487323023
0.010824913570164865,0.02196363744896388,-0.0912530378705986,-0.06565786997187795,-0.08330998532228699,0.03065418148250578
0.010984103475608464,0.03288093426811624,-0.08780146221933399,-0.061983464527602575,-0.08360823749996016,0.033022780141505066
0.011143293381052067,0.04859486010215268,-0.08308856067321697,-0.05736500314301157,-0.082818757849634,0.035038088882390295
0.011302483286495666,0.06746967287347569,-0.07728007291563245,-0.051931124924563,-0.08106867256300695,0.03672931954557511
0.011461673191939269,0.08687807808646655,-0.06811604419899601,-0.041904696461418645,-0.08157070615216049,0.04291332464805477
0.011620863097382868,0.10445621100449258,-0.049320655390014345,-0.022527107847065336,-0.07773802965866389,0.0508801507691411
0.01178005300282647,0.11901706947242885,-0.04942422253732823,-0.021686873853560024,-0.08401027159661315,0.056523510227642106
0.01193924290827007,0.13052350275577862,-0.043621033569973926,-0.014623586764344365,-0.0854058435560205,0.06171556082991474
0.012098432813713672,0.13955617639225576,-0.032776870385179555,-0.0019674462711722304,-0.09073949308648012,0.07333778101098884
0.012257622719157271,0.14681717174431821,-0.024177485612456442,0.008098358596661165,-0.09754721276618546,0.08468016392374143
0.012416812624600874,0.1528119099748068,-0.011940851719036931,0.020861366998048622,-0.10092618965168765,0.09472402756376673
0.012576002530044473,0.15760141031475464,0.002611824348194275,0.0348525889740396,-0.10097629837027082,0.10271653021496842
0.012735192435488076,0.16052230708666965,0.018380880492329228,0.04874332017840537,-0.09683094297872648,0.10720495767469358
0.012894382340931675,0.16009893118457522,0.033439175368149145,0.060337508785100344,-0.08956575607428933,0.10784371368519953
0.013053572246375277,0.1549851920659823,0.042490039940532714,0.06481956039486793,-0.07783191464976467,0.10079976445003684
0.013212762151818876,0.14597048032896923,0.02257466967802931,0.0443521168990583,-0.08278580894996782,0.09319895650604772
0.013371952057262479,0.13600504717044207,0.008564911184997507,0.0313293898346295,-0.08618573760767581,0.08857315688892387
0.013531141962706078,0.12736540914987313,-0.005086722701502962,0.01866101111000718,-0.08752174510686057,0.08245523040366443
0.01369033186814968,0.12026677576962932,-0.018071186092190678,0.005861336734548141,-0.08585404497616654,0.07378706754440405
0.01384952177359328,0.11372029962949232,-0.030707263375314174,-0.006739328533388367,-0.08344702334359702,0.06461204829490012
0.014008711679036882,0.10640967847603673,-0.0454316026041925,-0.02127908690506317,-0.0805076698922061,0.05387418160555112
0.014167901584480481,0.09697189202294085,-0.050541663437623036,-0.028322039285952148,-0.06926445245824175,0.04058776589003482
0.014327091489924084,0.08411196543292024,-0.0491117672300305,-0.029007216966935197,-0.05829414370760148,0.031178361602572275
0.014486281395367683,0.06702571421492817,-0.06627144683550705,-0.04569850475168463,-0.06689831518197809,0.028657857949418206
0.014645471300811286,0.04643343794283979,-0.07806637601096757,-0.06058649005563172,-0.06636618453951856,0.019640100336302632
0.014804661206254885,0.0257159418552728,-0.07718699181977783,-0.060892497270365116,-0.05551519576920472,0.010547653721550504
0.014963851111698488,0.010164164738477921,-0.07992359393785635,-0.06204379971102923,-0.05852966350504513,0.012358976749867799
0.015123041017142087,0.0034468361140183503,-0.09534750529574329,-0.07546618657561217,-0.07461670741365718,0.01782138001751941
0.01528223092258569,0.00505891354931006,-0.11028166509853762,-0.09070880037690474,-0.08488974072650145,0.017426435527683713
0.015441420828029288,0.011793447324814927,-0.10055719007312636,-0.08208735446362833,-0.08385372415368339,0.02158497824003153
0.015600610733472891,0.02045373356065854,-0.08762310429920796,-0.06758470480717498,-0.08850304985272514,0.03381941316148044
0.01575980063891649,0.028931125007026583,-0.0731436120569778,-0.053488956712347394,-0.09244177681740026,0.04520425439851879
0.015918990544360093,0.03584294081445192,-0.04653579528469328,-0.028055883040280137,-0.09025234240935394,0.05801501494737723
0.016078180449803692,0.039972580655657515,-0.015266105712583564,0.0009409626807210795,-0.08457856154825989,0.06992999823272922
0.016237370355247294,0.04157335802300558,-0.006727452464127746,0.006758090767391257,-0.08354524044222303,0.07240076332595963
0.016396560260690893,0.0431161394833748,0.0022219158939070075,0.014482212996221818,-0.07765049945923008,0.07196503304045598
0.016555750166134496,0.0450698127833569,-0.012807782667265734,-0.0021734886431702227,-0.08332945610871134,0.06712416783317945
0.016714940071578095,0.046565742460415116,-0.017190158281185763,-0.0053802686937115506,-0.08456091891001376,0.0663050297166248
0.016874129977021698,0.04729615960920207,-0.02255638161033857,-0.010457966476064754,-0.08308121505291159,0.06218518518760648
0.017033319882465297,0.047548809994509604,-0.028401126315171922,-0.015919584852370626,-0.08036482376494934,0.05682558304936492
0.0171925097879089,0.04820395164607759,-0.03165001649505695,-0.015086470478064766,-0.08448669592662772,0.060694213873853986
0.0173516996933525,0.05083158443754042,-0.02211874688052852,-0.0023816490478635274,-0.08382897723362048,0.06741608331351386
0.0175108895987961,0.05720486530945616,-0.016181870402216456,0.004639507674359095,-0.08020360289543482,0.06844497164795188
0.0176700795042397,0.06771628733684787,-0.023717428542716263,-0.0026309069027848375,-0.0857236977731593,0.06883216151595399
0.017829269409683303,0.08031992484396275,-0.026953556537455337,-0.004712170506904507,-0.08616279481689751,0.0680045681150591
0.017988459315126902,0.09218041903852141,-0.022537892710950354,0.0008594183947118773,-0.08403092031493563,0.06943310251966621
0.018147649220570505,0.1018730783535744,-0.020508298304121673,0.00469754515836276,-0.08832084075404158,0.07515148942220484
0.018306839126014104,0.109515755496461,-0.017108682411233048,0.009280701373973736,-0.09235638766045384,0.08108379032861691
0.018466029031457706,0.11587977501730863,-0.009077800336522557,0.017557514783226758,-0.0939944491080389,0.08714554914693104
0.018625218936901305,0.12182031511568356,-0.0009527529648385248,0.02613823980728176,-0.09579341059452251,0.09350685133377597
0.018784408842344908,0.12811192859284826,0.005967795370434948,0.033857754652140984,-0.09775455677921767,0.0995062393173259
0.018943598747788507,0.13536825683787973,0.013026040601934541,0.040633511842601215,-0.09682818475308784,0.10259610628438351
0.01910278865323211,0.1436482483994616,0.020483568572737434,0.04692127281485681,-0.09326717149323255,0.10324909500273471
0.01926197855867571,0.15114861359336915,0.033544335608247634,0.057445110796585964,-0.08590660585274273,0.1032049869862056
0.01942116846411931,0.1523127658860679,0.028450725449311494,0.04927486709220446,-0.08222705077311114,0.09554361569438748
0.01958035836956291,0.1408829926946252,0.036356923381999855,0.052513997530739785,-0.06527998372483378,0.08351926756882713
0.019739548275006513,0.11984158027392579,0.008499371415784145,0.025819025761935156,-0.0706014733036509,0.07264809808631982
0.019898738180450112,0.09833952463540906,-0.01888404165493221,-0.0019523216468657417,-0.07366192198127965,0.059303073179355396
0.020057928085893715,0.08034864881669046,-0.03785132518237009,-0.018555787053863623,-0.07759443757921203,0.05303706486650598
0.020217117991337314,0.06511150565063861,-0.059916242606929834,-0.03804547235787011,-0.07983526214459159,0.04370243347723604
0.020376307896780917,0.051086185859790766,-0.08335125468125469,-0.06015473987737084,-0.07951003332990342,0.03070337656682057
0.020535497802224516,0.03743228921610925,-0.09263865830318246,-0.06998624414827784,-0.07118588452239923,0.0181717332185646
0.02069468770766812,0.024264116078163953,-0.09371648013139328,-0.07151519066662274,-0.06311291240978717,0.010650694812223676
0.020853877613111717,0.012604642601917735,-0.10732147593189721,-0.08197214412866613,-0.06610959810980122,0.0070548181045693315
0.02101306751855532,0.004077235976714267,-0.1167039247088688,-0.09221022528883772,-0.06464478761521332,-9.590968974266303e-05
0.02117225742399892,0.00022828658522638416,-0.1136149099071504,-0.09058687749186128,-0.05641426545336425,-0.005907719216469483
0.021331447329442522,0.0017322890290218168,-0.09778590224065299,-0.07611873147157358,-0.044788416398495824,-0.0070535410332411095
0.02149063723488612,0.008045194388436362,-0.0825946450913292,-0.062056609188715126,-0.03600798411243323,-0.006128770361928173
0.021649827140329723,0.017753039579450257,-0.08299671237916237,-0.06108306518584767,-0.044938881120625856,0.0017567506827947952
0.021809017045773323,0.029224803773393603,-0.0861765512236264,-0.06508787333499731,-0.0523330138038037,0.00551294465149176
0.021968206951216925,0.04102830316619157,-0.07825418899791381,-0.060634392316402094,-0.04880281541789084,0.005186106170239005
0.022127396856660528,0.05190554463167582,-0.0564273276367449,-0.041709812561989586,-0.03419842219964232,0.004103055336930171
0.022286586762104127,0.06043931154060124,-0.02714476841838287,-0.013947083737001145,-0.019623466687063603,0.008088711082704548
0.022445776667547726,0.06486494005904848,-0.0005606472662597145,0.010728706509974494,-0.015860223632901255,0.019145098500743297
0.02260496657299133,0.06386767811597388,-0.010903012318863543,-0.0010877190158388188,-0.025123194967361057,0.019967126161446976
0.02276415647843493,0.058236322042245076,-0.013680495666139833,-0.008845596166548932,-0.023153280280949085,0.013906662289509927
0.02292334638387853,0.05070766536606711,-0.007786750559018441,-0.004158253486713778,-0.020977517544088265,0.014809373915448645
0.02308253628932213,0.04351118317291167,-0.023052317184647786,-0.01831917495659922,-0.031085774856337532,0.014979597518012087
0.023241726194765732,0.03721570229775438,-0.01974389675141589,-0.014982614760420919,-0.026956239326399834,0.01350657333406226
0.023400916100209335,0.031497752959398134,-0.037646472334962384,-0.02923326079658098,-0.03626030119346266,0.012961724358948486
0.023560106005652934,0.026003905439349436,-0.058997552135160204,-0.04778579072463644,-0.05123127466954554,0.01458390296585409
0.023719295911096533,0.020704153975706213,-0.07171220561801656,-0.057954599264528256,-0.05682653051747342,0.0133195967640454
0.023878485816540135,0.015936751989177732,-0.07403459027094131,-0.058394293675478895,-0.05416508207883042,0.010880284046717283
0.024037675721983738,0.012295491685859304,-0.07196311304459213,-0.054962620634536254,-0.054445458532412616,0.013089209387474997
0.024196865627427337,0.01040307101861457,-0.07718458485449427,-0.05741426245231083,-0.06279870126156709,0.018538005515095952
0.024356055532870936,0.010641546959621,-0.08329250663924703,-0.06176131359756797,-0.06945337870742613,0.021500378097612922
0.02451524543831454,0.012974433556715957,-0.08621117051024735,-0.06370632157530433,-0.0722131001490604,0.02264702113982584
0.02467443534375814,0.01695965508995115,-0.0914272296786412,-0.06700274086724806,-0.0763943055191934,0.024182420840171585
0.02483362524920174,0.02191755310869382,-0.09520328282265478,-0.06896161923849366,-0.08016880766689238,0.02615678129915634
0.02499281515464534,0.027123819455118405,-0.09412890386002021,-0.06637527613410754,-0.08376335836937027,0.030612949357267362
0.025152005060088942,0.03192518920749629,-0.09109501450976448,-0.06274393168994108,-0.08566537162363903,0.034278463885109606
0.025311194965532545,0.035765241646062026,-0.09210903474832988,-0.06160757930442921,-0.08867942313231023,0.03741885306981716
0.025470384870976144,0.03818439469279606,-0.09162636946033915,-0.06098055682390608,-0.08867184897097935,0.03777464805450728
0.025629574776419743,0.03891569208962117,-0.07621157152359118,-0.047121931860543816,-0.08261120251806268,0.040769083339516565
0.025788764681863346,0.03818189628103632,-0.06652094670092137,-0.03930821070565109,-0.0753728436021674,0.03930389689940368
0.02594795458730695,0.03694438035268058,-0.0668599810677782,-0.0404580464493659,-0.07623756366821698,0.0393545997245687
0.026107144492750547,0.03638717632911444,-0.05604138954300865,-0.030909443300074415,-0.06758021032300583,0.03771811124241152
0.026266334398194147,0.03689347017894346,-0.0694367677148582,-0.04345480026921766,-0.07279783185996944,0.03480099368318688
0.02642552430363775,0.03796644709777281,-0.08083706186858954,-0.057088589285593815,-0.07519529692316307,0.02892083882914535
0.026584714209081352,0.038963089357883694,-0.08466503685967208,-0.060136415370186325,-0.07699770600445784,0.028645659437582075
0.02674390411452495,0.03953214248099987,-0.08783373143132597,-0.06141941698224207,-0.08009059941426278,0.030451297825221886
0.02690309401996855,0.039634509786593296,-0.09286300378533824,-0.06440875740277648,-0.08507039130590739,0.03282640045376697
0.027062283925412153,0.03946126027986133,-0.09634277277899417,-0.0666724129980601,-0.08758785736964467,0.033592584344787305
0.027221473830855755,0.03938515322654391,-0.09777284122182237,-0.06729233656720401,-0.08832650868202695,0.03384296565641516
0.027380663736299354,0.03994260287038601,-0.09614400861421442,-0.06489473227342073,-0.08734413549466065,0.03441929699151587
0.027539853641742953,0.041807233314673946,-0.09242757723043409,-0.06070156674360079,-0.08664772535649039,0.03626737244622447
0.027699043547186556,0.0457155793038128,-0.08939676909266109,-0.05644780115468602,-0.08709346174581319,0.03908920164175995
0.02785823345263016,0.052323458263748894,-0.08762131868814153,-0.053016088172835624,-0.087886549763508,0.041721174250228615
0.028017423358073758,0.06201280940559117,-0.08487536060071559,-0.049555583861218847,-0.08697525532019489,0.04296346353300569
0.028176613263517357,0.07471746598298815,-0.07755423646419794,-0.04270226485488195,-0.0806846331917763,0.04172510242228462
0.02833580316896096,0.08984399036197738,-0.061574981700650025,-0.028019552037297252,-0.06907404468246572,0.04060475185762486
0.028494993074404562,0.10629532222509634,-0.03712313520568508,-0.0043440292050624454,-0.05868796198995019,0.04563569293564565
0.02865418297984816,0.12250367190198014,-0.00745267108816696,0.027589588216994584,-0.055091040557401334,0.06094320355591544
0.02881337288529176,0.1363568297454123,0.028943447157612302,0.06715910267201164,-0.060472635080400766,0.08795173602070155
0.028972562790735363,0.14507928465856887,0.052076129003544795,0.08851085363564751,-0.0591301137271419,0.09906596285008595
0.029131752696178966,0.14556896793014173,0.0470520481569809,0.07751112844446978,-0.057441157329642854,0.0913951122414837
0.029290942601622565,0.13595016341604124,0.04697631597320576,0.06786152055301208,-0.041665205479766,0.07299347228273517
0.029450132507066164,0.11769222264255425,0.043469803112026535,0.057684740136493766,-0.02647280914888348,0.05474516426767226
0.029609322412509766,0.09530009565610591,0.0046889124202643155,0.020298633883986856,-0.028116537772527702,0.03466949501522447
0.02976851231795337,0.07314758262170767,-0.014910769925835407,-0.0015900334581950293,-0.020462034139034604,0.015858487225108377
0.029927702223396968,0.053634773293936996,-0.02344271671719279,-0.008239920928324478,-0.0220051911665656,0.013312624752481834
0.030086892128840567,0.037958328437555935,-0.03819291755702618,-0.01948283573221522,-0.03719495369739898,0.01932295919683065
0.03024608203428417,0.02697014801703672,-0.06303174555520633,-0.041144425625724006,-0.05892991993752614,0.024728150147834686
0.030405271939727772,0.02103324358322151,-0.08743853076332195,-0.06335872488099395,-0.07521332752989575,0.02531637575132162
0.03056446184517137,0.01971642364131554,-0.10455497442320752,-0.08145305518648069,-0.08268915724098672,0.020994095706279733
0.03072365175061497,0.021970632842674753,-0.10829291611970669,-0.08623064001680088,-0.08427485023713382,0.019524871427337182
0.030882841656058573,0.026579483447875526,-0.10180671590984305,-0.07918222905263587,-0.08347859348507396,0.022961954110416745
0.031042031561502176,0.03249776885704925,-0.09534292103217615,-0.07131274377728809,-0.08624183124468396,0.029798697351622466
0.031201221466945775,0.03896639361380999,-0.09489611387583663,-0.06843558401971106,-0.09394735567098703,0.037816799175251006
0.031360411372389374,0.04548124931851543,-0.09316307864284575,-0.06534470557700096,-0.10102446849260108,0.04544517100468894
0.03151960127783297,0.05170797238900067,-0.08522864104670512,-0.05825131909716443,-0.10359632288994919,0.051664916681635024
