freq,gls,usurper,pdc_unbiased,shape_periodogram,shift_periodogram
0.00636759621774404,0.16050622261101252,-0.03383818636401624,0.004618604167599484,-0.060565775403115564,0.04183383534513395
0.006526786123187641,0.1547739667205469,-0.016262311778040873,0.015667077073204652,-0.05520526707601014,0.04700518819444154
0.006685976028631242,0.14117042509386826,-0.039628179676286665,-0.008134320725651178,-0.056672113607980926,0.029476820658387637
0.006845165934074843,0.12243899968381984,-0.054499458959005855,-0.02351459602232465,-0.05316280881821444,0.01531011493528388
0.007004355839518444,0.10148704848336583,-0.06714667333769377,-0.037074538539578636,-0.04891912777954073,0.002079894711359539
0.007163545744962045,0.07962741523454663,-0.06746709438225486,-0.04084497914915155,-0.03965159237099071,-0.006706546554325402
0.0073227356504056455,0.05736611220100035,-0.0804343193639605,-0.054569245573746705,-0.04232630743508565,-0.0157111530945691
0.007481925555849246,0.03612238356512839,-0.08080262406576655,-0.05520676657363854,-0.03715982563238621,-0.019465112591436587
0.007641115461292847,0.01903034650744902,-0.09298913240951256,-0.06668196783953224,-0.04338510006022539,-0.02449694206115873
0.007800305366736448,0.009606838758646088,-0.09708674834261823,-0.06863771632022551,-0.04647870641902353,-0.02407645208385695
0.00795949527218005,0.009103821983504786,-0.09984573947859945,-0.06904052112309439,-0.04920482525800101,-0.022673936732662076
0.008118685177623649,0.015656158757865787,-0.10173255134403299,-0.06890123567645061,-0.05137849705250257,-0.02119534918045019
0.008277875083067252,0.026078398998320988,-0.10282946983277158,-0.06826066488181103,-0.05305771943973408,-0.01963606009024204
0.00843706498851085,0.037815194566117594,-0.10315539040679438,-0.06711839671245011,-0.054265672839072396,-0.017981309290506252
0.008596254893954453,0.0495357878060369,-0.10264772067541514,-0.06538150824752359,-0.05505297957994367,-0.016126849502693923
0.008755444799398052,0.06087103824667382,-0.09907223097852412,-0.0598831408884053,-0.05659180557762889,-0.010859136105930159
0.008914634704841655,0.07202032441620217,-0.09349446642900563,-0.05348723037891719,-0.05759699997314567,-0.005230351711103996
0.009073824610285254,0.08346711289413787,-0.09157029746541265,-0.050151471713997156,-0.06135353947622578,-0.0002536725834223216
0.009233014515728857,0.09569145752744561,-0.08488295952731063,-0.04268904245833806,-0.06315860253028537,0.006707555873494386
0.009392204421172456,0.1084190534838293,-0.07506278432790192,-0.03324804899162932,-0.06381490897366413,0.014477347303688227
0.009551394326616058,0.11830461596447955,-0.06372080471294389,-0.023991637623335667,-0.06163261700450224,0.020297718431352932
0.009710584232059657,0.11520075576090155,-0.0552145741180263,-0.019436103024533323,-0.0603366077514497,0.023018555493814947
0.00986977413750326,0.08950751022560084,-0.061209394313050676,-0.027867253430850513,-0.054772236492414916,0.012943496324156607
0.01002896404294686,0.054850759692581304,-0.07822583686393389,-0.043828606539887585,-0.054982215932164076,0.0006502797793584505
0.010188153948390462,0.030817999316623188,-0.09421440407726826,-0.057650549157516995,-0.05517948072737796,-0.0100069088544587
0.010347343853834061,0.019049560206452022,-0.0993351800484102,-0.0621700198922532,-0.05180284003989736,-0.015667073299329995
0.010506533759277664,0.014993307540697628,-0.1074090747467631,-0.06884399728999566,-0.055618936628410665,-0.01847760006103989
0.010665723664721263,0.01610730104078602,-0.10783661983919074,-0.06822997150683702,-0.058986958555098855,-0.015873167504290693
0.010824913570164865,0.02196363744896388,-0.10611613257641002,-0.06565786997187795,-0.06171612954964926,-0.012138852973399953
0.010984103475608464,0.03288093426811624,-0.1027506787557425,-0.061983464527602575,-0.0635360486950695,-0.008116183357887443
0.011143293381052067,0.04859486010215268,-0.097962824882818,-0.05736500314301157,-0.06452828538799692,-0.0038795338426591643
0.011302483286495666,0.06746967287347569,-0.09193979207890629,-0.051931124924563,-0.06477549067443643,0.0005205581831703253
0.011461673191939269,0.08687807808646655,-0.08308195668379677,-0.041904696461418645,-0.0667836164242677,0.009612495218806938
0.011620863097382868,0.10445621100449258,-0.06488552563610757,-0.022527107847065336,-0.06448751373191942,0.02324374918495778
0.01178005300282647,0.11901706947242885,-0.06558610877093217,-0.021686873853560024,-0.07096669929399038,0.028001305064924955
0.01193924290827007,0.13052350275577862,-0.059846727527622656,-0.014623586764344365,-0.07152791102850595,0.03384603637155962
0.012098432813713672,0.13955617639225576,-0.04986192479219203,-0.0019674462711722304,-0.07863051277597112,0.04817375866158446
0.012257622719157271,0.14681717174431821,-0.042249574054977014,0.008098358596661165,-0.08682429264661744,0.06117644628074677
0.012416812624600874,0.1528119099748068,-0.030698410855213607,0.020861366998048622,-0.09218300094155721,0.07445700716150203
0.012576002530044473,0.15760141031475464,-0.01626141584323433,0.0348525889740396,-0.09480780294025032,0.08693335547922965
0.012735192435488076,0.16052230708666965,0.00012906112405003059,0.04874332017840537,-0.09369416520434957,0.09694380831653869
0.012894382340931675,0.16009893118457522,0.01653948957246881,0.060337508785100344,-0.09295117429177036,0.10540982876098107
0.013053572246375277,0.1549851920659823,0.027991556989904156,0.06481956039486793,-0.08308954930662685,0.10262991104240049
0.013212762151818876,0.14597048032896923,0.007823842120576885,0.0443521168990583,-0.0887308488824869,0.09041097404659305
0.013371952057262479,0.13600504717044207,-0.00674558340889025,0.0313293898346295,-0.09184926769695952,0.08233481033564494
0.013531141962706078,0.12736540914987313,-0.020604989831516752,0.01866101111000718,-0.09277887427939041,0.0731339928547357
0.01369033186814968,0.12026677576962932,-0.03330618380565715,0.005861336734548141,-0.09083604912995533,0.061992288686025854
0.01384952177359328,0.11372029962949232,-0.045478539632934856,-0.006739328533388367,-0.08841627131782491,0.050685156305055365
0.014008711679036882,0.10640967847603673,-0.05967999143121352,-0.02127908690506317,-0.08418311839404795,0.036701955917820106
0.014167901584480481,0.09697189202294085,-0.0629359586859273,-0.028322039285952148,-0.0737086424585514,0.024578045452591925
0.014327091489924084,0.08411196543292024,-0.059961035108266725,-0.029007216966935197,-0.06340898904760955,0.017520989895027702
0.014486281395367683,0.06702571421492817,-0.0779026489375619,-0.04569850475168463,-0.06920536263233955,0.008186660886309283
0.014645471300811286,0.04643343794283979,-0.08878192748591127,-0.06058649005563172,-0.06805582122350019,-0.004168203194548541
0.014804661206254885,0.0257159418552728,-0.08741768491042466,-0.060892497270365116,-0.05509840201627982,-0.012590107464386088
0.014963851111698488,0.010164164738477921,-0.09127078115217746,-0.06204379971102923,-0.05283407440060958,-0.014918043963748745
0.015123041017142087,0.0034468361140183503,-0.10823216221248738,-0.07546618657561217,-0.065328149007061,-0.017539923002484338
0.01528223092258569,0.00505891354931006,-0.12380368346746959,-0.09070880037690474,-0.07170502864903314,-0.025489669610668057
0.015441420828029288,0.011793447324814927,-0.1145329015178824,-0.08208735446362833,-0.06780922879310011,-0.021169282953398448
0.015600610733472891,0.02045373356065854,-0.10291596859478541,-0.06758470480717498,-0.0698500562632989,-0.00851049397650933
0.01575980063891649,0.028931125007026583,-0.08860165184079836,-0.053488956712347394,-0.07506042042607937,0.005810643443665784
0.015918990544360093,0.03584294081445192,-0.06165620425882727,-0.028055883040280137,-0.07532729613566878,0.02581128797522651
0.016078180449803692,0.039972580655657515,-0.029250432331724713,0.0009409626807210795,-0.07660368955229628,0.0491434240765433
0.016237370355247294,0.04157335802300558,-0.01931929758544829,0.006758090767391257,-0.07658288917014873,0.053639082353322126
0.016396560260690893,0.0431161394833748,-0.01003253501658413,0.014482212996221818,-0.07028069521442942,0.05562820155737186
0.016555750166134496,0.0450698127833569,-0.025290529465954975,-0.0021734886431702227,-0.07471659167870724,0.045531455143134884
0.016714940071578095,0.046565742460415116,-0.030136096656737506,-0.0053802686937115506,-0.07352876659385986,0.04229053309489274
0.016874129977021698,0.04729615960920207,-0.03506512700147688,-0.010457966476064754,-0.07010548856506742,0.036179453328286676
0.017033319882465297,0.047548809994509604,-0.04037323815093939,-0.015919584852370626,-0.06605029299589683,0.02936854295022197
0.0171925097879089,0.04820395164607759,-0.0448095323354852,-0.015086470478064766,-0.06760076465639045,0.03099789411447779
0.0173516996933525,0.05083158443754042,-0.036596318497686284,-0.0023816490478635274,-0.0652093276501437,0.039345129290979934
0.0175108895987961,0.05720486530945616,-0.03092634037622994,0.004639507674359095,-0.06155653242530084,0.04247715184954779
0.0176700795042397,0.06771628733684787,-0.038179826291870965,-0.0026309069027848375,-0.06496589423371524,0.03899759599022582
0.017829269409683303,0.08031992484396275,-0.0409268228732193,-0.004712170506904507,-0.06401793464851194,0.03678254248072451
0.017988459315126902,0.09218041903852141,-0.03598982903638729,0.0008594183947118773,-0.0614500270898332,0.039478654919688536
0.018147649220570505,0.1018730783535744,-0.03434917155550519,0.00469754515836276,-0.06619295849401985,0.04545774700804267
0.018306839126014104,0.109515755496461,-0.031534705394064076,0.009280701373973736,-0.0707866048038115,0.05191958100525598
0.018466029031457706,0.11587977501730863,-0.023904578769618778,0.017557514783226758,-0.0735558807435528,0.060084253735300575
0.018625218936901305,0.12182031511568356,-0.016320386765260885,0.02613823980728176,-0.07660238448511787,0.06865417843660628
0.018784408842344908,0.12811192859284826,-0.010041537564214498,0.033857754652140984,-0.07987045428278977,0.0766928396781584
0.018943598747788507,0.13536825683787973,-0.003081638603766413,0.040633511842601215,-0.08051453815690884,0.08233582896162861
0.01910278865323211,0.1436482483994616,0.004752317094150533,0.04692127281485681,-0.0790219574898363,0.08624720826430099
0.01926197855867571,0.15114861359336915,0.01892813617223085,0.057445110796585964,-0.07754384218130476,0.09343732808546439
0.01942116846411931,0.1523127658860679,0.01519002608606478,0.04927486709220446,-0.07703132659938777,0.08680565819938167
0.01958035836956291,0.1408829926946252,0.025507925858708633,0.052513997530739785,-0.060882683402372066,0.07910916734025418
0.019739548275006513,0.11984158027392579,-0.003179363163962276,0.025819025761935156,-0.06409252644043699,0.06048776020109854
0.019898738180450112,0.09833952463540906,-0.031117068524254835,-0.0019523216468657417,-0.06427011562628394,0.03908336329341336
0.020057928085893715,0.08034864881669046,-0.05117603104717666,-0.018555787053863623,-0.06549493629557321,0.02696852460543829
0.020217117991337314,0.06511150565063861,-0.0740980267482885,-0.03804547235787011,-0.06496744596712133,0.011470634526353966
0.020376307896780917,0.051086185859790766,-0.09767782496340836,-0.06015473987737084,-0.062154038938616804,-0.007559505941081
0.020535497802224516,0.03743228921610925,-0.10620100049360036,-0.06998624414827784,-0.05308594615833159,-0.02096782446129186
0.02069468770766812,0.024264116078163953,-0.10703040253567477,-0.07151519066662274,-0.045550642171705735,-0.026910212332296894
0.020853877613111717,0.012604642601917735,-0.12164163614911885,-0.08197214412866613,-0.04851124089696952,-0.03323061468947923
0.02101306751855532,0.004077235976714267,-0.13013793789831277,-0.09221022528883772,-0.049531911221688756,-0.040617079302213914
0.02117225742399892,0.00022828658522638416,-0.12552467185589988,-0.09058687749186128,-0.0455219828470683,-0.041861779492306204
0.021331447329442522,0.0017322890290218168,-0.10855861940355328,-0.07611873147157358,-0.03916895984138832,-0.03452522770335966
0.02149063723488612,0.008045194388436362,-0.09239385163726536,-0.062056609188715126,-0.034594257011423345,-0.02642270797989406
0.021649827140329723,0.017753039579450257,-0.09388371119666142,-0.06108306518584767,-0.04396003636305473,-0.01976295619483299
0.021809017045773323,0.029224803773393603,-0.09766923231739016,-0.06508787333499731,-0.05456676216867391,-0.016203965588094456
0.021968206951216925,0.04102830316619157,-0.08870349698989352,-0.060634392316402094,-0.0550296282620881,-0.012431874014646618
0.022127396856660528,0.05190554463167582,-0.06576011265388838,-0.041709812561989586,-0.044242276063047425,-0.004482288353931825
0.022286586762104127,0.06043931154060124,-0.03565608105844244,-0.013947083737001145,-0.03287482438272476,0.009922906649571843
0.022445776667547726,0.06486494005904848,-0.0084286761294416,0.010728706509974494,-0.03475701254890332,0.030256774318288767
0.02260496657299133,0.06386767811597388,-0.01865992437012513,-0.0010877190158388188,-0.04893417384557253,0.03005041031047413
0.02276415647843493,0.058236322042245076,-0.01867351987997314,-0.008845596166548932,-0.047056229727661165,0.022843138325859262
0.02292334638387853,0.05070766536606711,-0.012642368941538678,-0.004158253486713778,-0.04441786558506198,0.024813169672803836
0.02308253628932213,0.04351118317291167,-0.02995131005428475,-0.01831917495659922,-0.05135309742872033,0.018203198308971668
0.023241726194765732,0.03721570229775438,-0.027465592064727925,-0.014982614760420919,-0.043775547714373225,0.016004748605834257
0.023400916100209335,0.031497752959398134,-0.04669191033524937,-0.02923326079658098,-0.04818407107777911,0.007716349767234718
0.023560106005652934,0.026003905439349436,-0.06895417535752926,-0.04778579072463644,-0.05586341010133528,-0.0018776752628912403
0.023719295911096533,0.020704153975706213,-0.08174607971143202,-0.057954599264528256,-0.055111779778056376,-0.010287057791896767
0.023878485816540135,0.015936751989177732,-0.08367885387955375,-0.058394293675478895,-0.04707592038831745,-0.015700041929235985
0.024037675721983738,0.012295491685859304,-0.0817595283861554,-0.054962620634536254,-0.0453882021347068,-0.014087012766410032
0.024196865627427337,0.01040307101861457,-0.08793001774663421,-0.05741426245231083,-0.0516201650072602,-0.012068656330362533
0.024356055532870936,0.010641546959621,-0.09462196665288014,-0.06176131359756797,-0.05571912224109181,-0.01287722746927687
0.02451524543831454,0.012974433556715957,-0.09805817471864575,-0.06370632157530433,-0.05624158735425139,-0.014067585610237987
0.02467443534375814,0.01695965508995115,-0.10430358042796806,-0.06700274086724806,-0.05675016422407732,-0.0163240784381608
0.02483362524920174,0.02191755310869382,-0.10907322879710969,-0.06896161923849366,-0.05682408871426628,-0.01780970411473913
0.02499281515464534,0.027123819455118405,-0.10896217848963334,-0.06637527613410754,-0.057738413457965,-0.015209986763333995
0.025152005060088942,0.03192518920749629,-0.10631664222338379,-0.06274393168994108,-0.05845868361967211,-0.011916313284397444
0.025311194965532545,0.035765241646062026,-0.10843777805669558,-0.06160757930442921,-0.0589624133872975,-0.010710197923477917
0.025470384870976144,0.03818439469279606,-0.10798680938673125,-0.06098055682390608,-0.057548536420369806,-0.011112659476823166
0.025629574776419743,0.03891569208962117,-0.09174472247834112,-0.047121931860543816,-0.053799716482564076,-0.002663734663159658
0.025788764681863346,0.03818189628103632,-0.08178463060217146,-0.03930821070565109,-0.04985004911954655,0.0009290187637059482
0.02594795458730695,0.03694438035268058,-0.08124502883715548,-0.0404580464493659,-0.04944596057194981,-0.00022160294991657015
0.026107144492750547,0.03638717632911444,-0.06963070379123083,-0.030909443300074415,-0.041033351698908094,0.0018956429326083314
0.026266334398194147,0.03689347017894346,-0.08361975925894868,-0.04345480026921766,-0.04635317946255864,-0.004508588562202274
0.02642552430363775,0.03796644709777281,-0.09451767243792451,-0.057088589285593815,-0.049782944240725956,-0.012973588445157955
0.026584714209081352,0.038963089357883694,-0.09885409681626885,-0.060136415370186325,-0.05239836152687996,-0.013703074616340877
0.02674390411452495,0.03953214248099987,-0.10263023220718823,-0.06141941698224207,-0.05662880584960684,-0.012036039599521734
0.02690309401996855,0.039634509786593296,-0.10825055882542108,-0.06440875740277648,-0.062874414808651,-0.010430593999656453
0.027062283925412153,0.03946126027986133,-0.11197910083324958,-0.0666724129980601,-0.06664047460022672,-0.009823624280206255
0.027221473830855755,0.03938515322654391,-0.11354536996526231,-0.06729233656720401,-0.06897045137912595,-0.0088372475777811
0.027380663736299354,0.03994260287038601,-0.11222062621456022,-0.06489473227342073,-0.07024884387988517,-0.006152611865704374
0.027539853641742953,0.041807233314673946,-0.1086236498253985,-0.06070156674360079,-0.07261160200566535,-0.0013778108416200663
0.027699043547186556,0.0457155793038128,-0.10605270794320044,-0.05644780115468602,-0.07571030436166666,0.00390940231744329
0.02785823345263016,0.052323458263748894,-0.10493853297228677,-0.053016088172835624,-0.07872220704020731,0.008499043983688141
0.028017423358073758,0.06201280940559117,-0.10230038857675124,-0.049555583861218847,-0.0804888940154131,0.012322150896403993
0.028176613263517357,0.07471746598298815,-0.09402758472762276,-0.04270226485488195,-0.07862261700096121,0.016488871651832018
0.02833580316896096,0.08984399036197738,-0.07709890419204163,-0.028019552037297252,-0.07239978632665041,0.023983886019818393
0.028494993074404562,0.10629532222509634,-0.051815064630472904,-0.0043440292050624454,-0.06740741843096833,0.03921504308844109
0.02865418297984816,0.12250367190198014,-0.02294676804776626,0.027589588216994584,-0.06769533385388586,0.06413740166378765
0.02881337288529176,0.1363568297454123,0.010779639076746998,0.06715910267201164,-0.0765333336076779,0.10029619562581589
0.028972562790735363,0.14507928465856887,0.03270267091769579,0.08851085363564751,-0.08509746720806809,0.12215552061981287
0.029131752696178966,0.14556896793014173,0.02959452522360671,0.07751112844446978,-0.08879246456656266,0.11601109736725486
0.029290942601622565,0.13595016341604124,0.03330629657571788,0.06786152055301208,-0.0720011550878802,0.09798008774069779
0.029450132507066164,0.11769222264255425,0.03284602098420678,0.057684740136493766,-0.05381914173719478,0.07865448936704934
0.029609322412509766,0.09530009565610591,-0.005608253241088412,0.020298633883986856,-0.04691132021409352,0.04535143749191724
0.02976851231795337,0.07314758262170767,-0.02411737559962763,-0.0015900334581950293,-0.03096694850712476,0.01830867106149609
0.029927702223396968,0.053634773293936996,-0.03274362760895781,-0.008239920928324478,-0.024421367011431754,0.009016064192687122
0.030086892128840567,0.037958328437555935,-0.049253991350285464,-0.01948283573221522,-0.03655858870141609,0.007950262063562611
0.03024608203428417,0.02697014801703672,-0.07523062086196294,-0.041144425625724006,-0.05487934114976074,0.002676661111869933
0.030405271939727772,0.02103324358322151,-0.10079976461000738,-0.06335872488099395,-0.06663189511745052,-0.00723616478288759
0.03056446184517137,0.01971642364131554,-0.11787530812223085,-0.08145305518648069,-0.07076035082164293,-0.018810184743642176
0.03072365175061497,0.021970632842674753,-0.12164569790431064,-0.08623064001680088,-0.06970479394336289,-0.023228789252053142
0.030882841656058573,0.026579483447875526,-0.11619233393128084,-0.07918222905263587,-0.06608055599173406,-0.019979396415581
0.031042031561502176,0.03249776885704925,-0.11097463594022944,-0.07131274377728809,-0.0659130261944943,-0.0139163027108482
0.031201221466945775,0.03896639361380999,-0.1118522034914641,-0.06843558401971106,-0.07167605595086388,-0.008023177600761114
0.031360411372389374,0.04548124931851543,-0.1109750934852713,-0.06534470557700096,-0.07880681837679882,-0.0010931729874839552
0.03151960127783297,0.05170797238900067,-0.10300923109862338,-0.05825131909716443,-0.0827885357607812,0.006981330721369196
