wave,flux
5000.025812696027,21855.801528459153
5000.051815424163,20790.6632507185
5000.0778182875265,19784.369924265025
5000.103821286119,19070.688844200537
5000.12982441994,18857.365790200824
5000.155827688991,19016.693415806854
5000.181831093272,19515.28770526035
5000.207834632784,20402.640376847103
5000.2338383075285,21689.619619989528
5000.259842117506,22615.149121587077
5000.285846062716,23378.92592631937
5000.311850143161,24222.661469026534
5000.33785435884,24352.64979059651
5000.363858709754,24332.612333184356
5000.389863195905,24175.28866317505
5000.415867817292,23639.657577437967
5000.441872573917,22982.735507497935
5000.4678774657805,22224.71886418161
5000.493882492882,21521.056904218858
5000.519887655224,21221.2656451629
5000.545892952806,21337.814153902127
5000.571898385629,21729.377842515754
5000.597903953694,22097.213451562657
5000.623909657001,22706.495641220976
5000.649915495552,23022.99331232294
5000.675921469346,23515.675368703956
5000.701927578384,23662.766200010432
5000.727933822669,24024.70756570749
5000.7539402021985,24386.74175499282
5000.779946716975,24682.495318931484
5000.805953366999,24965.04361417658
5000.831960152272,25376.151572421033
5000.857967072792,25837.70996104201
5000.883974128563,26035.33673014566
5000.9099813195835,26029.658455433477
5000.935988645855,26092.783084630493
5000.961996107378,26207.8920133919
5000.988003704153,26290.376886999962
5001.014011436181,26261.254265194464
5001.040019303464,26590.393695405415
5001.066027306,26420.14529181928
5001.092035443791,26206.813401003867
5001.118043716839,25749.133504225
5001.1440521251425,25069.479441326333
5001.170060668704,24231.273686167726
5001.196069347523,23126.098725061795
5001.222078161601,22172.34202233512
5001.248087110937,21297.168456532312
5001.274096195534,20779.935431803366
5001.300105415392,20806.83509670659
5001.326114770512,21006.16714572002
5001.352124260892,21200.12210921908
5001.3781338865365,21379.3263890291
5001.4041436474445,21548.22948685184
5001.430153543616,21187.20124835253
5001.456163575053,20717.186733134302
5001.482173741756,19823.580032952104
5001.508184043724,18703.46750864286
5001.534194480961,17309.369436103752
5001.560205053464,15870.441678811638
5001.586215761236,14620.538354178736
5001.612226604278,13494.663408690194
5001.638237582589,12960.533595721186
5001.664248696171,13156.673764280833
5001.690259945024,13678.866460716703
5001.716271329149,14692.75733228262
5001.742282848547,16195.293424302665
5001.768294503218,17709.21606883973
5001.794306293164,19358.894322550426
5001.820318218383,20983.98585993986
5001.84633027888,22357.19157637734
5001.872342474651,23608.061711354127
5001.8983548056995,24839.32434408388
5001.924367272026,25899.09873724202
5001.9503798736305,26741.340195992037
5001.976392610514,27327.878788216312
5002.002405482678,27571.135750109315
5002.028418490122,27965.670690204668
5002.054431632847,28016.696239536042
5002.080444910854,27946.61846751547
5002.106458324142,28058.925472693223
5002.1324718727155,27910.445196037483
5002.158485556572,27596.007171451434
5002.184499375713,27423.23416112275
5002.210513330139,27124.15326870565
5002.236527419852,26865.71926817968
5002.262541644852,26787.171754022496
5002.288556005138,26496.08204519057
5002.314570500714,26185.879793392654
5002.340585131577,25939.297344588187
5002.36659989773,25790.976985417936
5002.392614799174,25162.063463760613
5002.418629835909,24568.220610691966
5002.444645007936,23737.173573441803
5002.4706603152545,22677.32250899648
5002.496675757866,21519.08732632962
5002.522691335772,20422.80155169857
5002.548707048972,19777.504669895476
5002.574722897468,19568.974900264635
5002.600738881259,19812.493237914336
5002.626755000347,20621.15952228627
5002.652771254732,21590.43582604592
5002.678787644415,22865.42954277683
5002.704804169397,24020.14806657992
5002.730820829678,24956.351912194707
5002.75683762526,25981.941314923435
5002.782854556142,26358.999180702165
5002.8088716223265,27089.75098744551
5002.834888823812,27552.751835741303
5002.860906160601,27847.595633144694
5002.886923632695,27985.946649261656
5002.912941240092,28069.261384591144
5002.938958982793,28260.21527500829
5002.9649768608015,28249.754635427165
5002.990994874116,28224.53676878768
5003.017013022737,28313.44282261142
5003.043031306666,28232.27048273392
5003.069049725905,28185.77835070509
5003.095068280452,28194.436613041988
5003.121086970309,28167.127834787843
5003.147105795477,28051.130135958207
5003.173124755956,28038.320155281104
5003.199143851748,28149.131694666245
5003.225163082852,28140.354351063128
5003.251182449269,27994.781152618943
5003.277201951001,27977.284440870826
5003.3032215880485,27763.074287483065
5003.32924136041,27858.685268427704
5003.35526126809,27765.484753195902
5003.381281311085,27526.95157926293
5003.407301489398,27201.37245467575
5003.433321803031,26864.91968196455
5003.459342251982,26427.17747726399
5003.4853628362525,25870.002831371883
5003.511383555844,25589.66705578569
5003.537404410757,25467.372096257466
5003.563425400991,25595.67022816413
5003.589446526548,25655.180058470763
5003.615467787429,25606.69711487458
5003.641489183634,25848.08062492356
5003.667510715163,25708.653722125757
5003.693532382018,25390.375085288866
5003.719554184199,25183.40826138766
5003.745576121707,24635.18711978428
5003.771598194542,24025.896815849388
5003.797620402706,23662.698789723494
5003.823642746199,23296.49903162543
5003.849665225021,23324.890867936185
5003.875687839174,23773.63938345502
5003.901710588658,24203.446027522754
5003.927733473473,24696.346299023735
5003.953756493622,25269.785147668066
5003.979779649103,25625.820240459234
5004.005802939919,25801.83122661097
5004.031826366068,26026.141494453954
5004.057849927553,26268.196235606658
5004.083873624375,26340.782969138225
5004.109897456533,26688.741962844877
5004.135921424028,26767.246749100945
5004.161945526862,26924.393691199126
5004.187969765035,27159.504268680244
5004.213994138547,27504.60014084504
5004.240018647399,27797.299613636882
5004.266043291592,27924.21069905159
5004.292068071127,27921.30124638657
5004.318092986004,27983.66163930069
5004.344118036223,28107.432586022296
5004.370143221788,28195.03292461486
5004.396168542696,28263.57286620689
5004.422193998949,28348.6024213518
5004.448219590549,28316.368361493554
5004.474245317495,28104.477118358776
5004.500271179789,28120.342288296084
5004.52629717743,28006.51103143963
5004.5523233104195,27785.916398271682
5004.578349578759,27305.607963042396
5004.604375982449,27145.955070608314
5004.630402521489,26746.857165549194
5004.656429195881,26256.911651478753
5004.682456005625,26061.245523892572
5004.708482950721,25911.667302124646
5004.734510031172,25493.137344542665
5004.760537246977,25116.533167144404
5004.7865645981365,24450.587293965866
5004.812592084652,23408.80997520473
5004.838619706525,22280.758850499078
5004.8646474637535,21017.222614405728
5004.890675356341,19841.082723621083
5004.916703384286,18989.588112683774
5004.942731547591,18335.368137074383
5004.968759846256,18308.13175154109
5004.994788280281,19035.47220988741
5005.020816849668,19879.033017219164
5005.046845554417,21123.7971738748
5005.072874394528,21936.77101272286
5005.098903370003,22769.062411284645
5005.124932480842,23363.40932382006
5005.150961727047,23653.35445710648
5005.176991108617,23772.294458479333
5005.203020625552,23818.50272397106
5005.229050277856,23899.14373971939
5005.255080065526,23577.505636040634
5005.281109988566,22861.840932932155
5005.3071400469735,22004.534993788555
5005.333170240751,20961.766484910753
5005.3592005699,19645.193422076216
5005.38523103442,18129.233995916973
5005.411261634312,16603.26840762186
5005.4372923695755,15214.752698508522
5005.463323240213,14109.245619858726
5005.489354246225,13301.822755191166
5005.515385387611,13054.097955433837
5005.541416664373,13335.969991633598
5005.567448076511,13865.143114605316
5005.593479624025,14663.328993819836
5005.619511306918,15367.494442787336
5005.645543125189,15996.529319911517
5005.671575078838,16337.956984380877
5005.697607167867,16427.17936548709
5005.723639392277,16038.487312562505
5005.749671752068,15386.851264241383
5005.77570424724,14515.993306046852
5005.8017368777955,13365.194114401502
5005.8277696437335,12177.915949454582
5005.853802545055,11282.73542119211
5005.879835581762,10801.192572946535
5005.905868753854,10779.210283354776
5005.931902061331,11328.450788564493
5005.957935504196,12290.9020655977
5005.983969082448,13541.813329250754
5006.010002796088,15155.655992038115
5006.036036645117,16946.561812436037
5006.062070629536,18605.163583512607
5006.088104749344,20323.40009658543
5006.114139004544,21935.50842898762
5006.140173395135,23476.294969670224
5006.166207921118,24851.982482350097
5006.192242582495,25848.66748891927
5006.218277379266,26545.434451570996
5006.244312311431,27128.856575745354
5006.270347378991,27397.00534056822
5006.296382581946,27597.96844434478
5006.322417920299,27627.322517525317
5006.348453394048,27597.954596223615
5006.374489003196,27644.583277659476
5006.400524747743,27674.65589522675
5006.426560627688,27814.737386529097
5006.452596643034,27733.827949379658
5006.47863279378,27629.15952787917
5006.504669079928,27530.893426824998
5006.530705501478,27622.25254778313
5006.556742058431,27400.524089432285
5006.582778750788,27176.99244822326
5006.608815578549,26679.25077408709
5006.634852541715,26502.93437840975
5006.660889640287,26114.94372138142
5006.686926874265,25715.875726546285
5006.71296424365,25279.642762725958
5006.739001748444,24677.81780059974
5006.765039388645,24207.409312925396
5006.791077164256,23520.36202705829
5006.817115075277,22673.332803178884
5006.843153121708,21621.596303940056
5006.869191303552,20077.92395442502
5006.895229620806,18505.924381496854
5006.921268073474,16900.795716859127
5006.947306661555,15195.40464128957
5006.97334538505,13928.933139902752
5006.999384243961,12916.287645954866
5007.025423238286,12740.214314214192
5007.051462368028,12896.46991526217
5007.077501633187,13742.205833364456
5007.103541033764,15162.811717215342
5007.129580569759,16709.841556484625
5007.155620241173,18261.317645347317
5007.181660048007,19827.57359236636
5007.207699990262,21556.994584143333
5007.233740067937,23000.277640613083
5007.259780281035,24163.12011001554
5007.285820629555,25284.983409413686
5007.311861113499,26008.28734973362
5007.337901732866,26686.19763395011
5007.363942487658,27105.757800490977
5007.389983377876,27043.473759837554
5007.41602440352,26880.29399441448
5007.442065564591,26683.072776353758
5007.468106861089,26479.62038755185
5007.494148293015,26517.846651967364
5007.520189860371,26513.141405279035
5007.546231563156,26351.2404295065
5007.572273401372,26722.24509744315
5007.598315375018,27293.14484925562
5007.624357484096,27635.599950798103
5007.650399728607,27999.209866480447
5007.676442108551,28134.988751604564
5007.702484623929,28478.270325124537
5007.728527274741,28565.2546169979
5007.754570060989,28426.325214768964
5007.780612982673,28764.24741990107
5007.806656039793,28979.509509136275
5007.832699232351,28960.988031625613
5007.858742560347,28868.124703913214
5007.884786023782,28946.566910607155
5007.910829622656,29016.65833808895
5007.936873356971,28963.4590803811
5007.962917226726,29014.740880278652
5007.988961231923,29114.984644556913
5008.015005372563,29165.358140715372
5008.041049648646,29167.54986044121
5008.067094060171,29128.411684535775
5008.0931386071425,29172.06574471689
5008.119183289558,29174.104568626975
5008.14522810742,29108.720896913837
5008.171273060728,28961.829692662926
5008.197318149483,28994.733422384423
5008.223363373687,29064.582380981843
5008.249408733339,29150.400323323454
5008.27545422844,28603.971330760633
5008.301499858992,28514.796568825164
5008.327545624995,28461.473032992235
5008.353591526448,28131.25245014889
5008.379637563355,27705.591684443767
5008.405683735714,27714.61140237436
5008.431730043527,27701.75694710044
5008.457776486794,27935.65329391888
5008.483823065515,27976.25803267323
5008.509869779693,28151.974674980047
5008.535916629327,28457.612210644264
5008.561963614418,28563.360599779575
5008.588010734968,28733.506460684257
5008.614057990975,28927.13111736488
5008.640105382442,28866.694191876228
5008.666152909369,28745.919881197126
5008.692200571756,28846.978467021403
5008.718248369605,28953.510943148518
5008.744296302916,28855.795819271083
5008.77034437169,28719.048171305447
5008.796392575927,28702.466285738752
5008.822440915628,28819.870823541693
5008.848489390794,29014.250932564562
5008.874538001426,29002.07200139577
5008.900586747524,28938.338202312294
5008.926635629089,28967.758920874036
5008.952684646122,29202.12622815059
5008.978733798623,29109.477077836953
5009.004783086593,29120.583121926993
5009.030832510033,29157.122409741165
5009.056882068944,29287.43564004192
5009.082931763326,29213.69315292373
5009.108981593179,28991.423941919365
5009.135031558506,28918.198154450514
5009.161081659306,28820.505796298938
5009.187131895579,28726.36100952267
5009.213182267327,28594.524307783944
5009.239232774552,28433.692857279573
5009.265283417251,28417.67494479802
5009.291334195428,28326.17214559677
5009.317385109083,28281.498840686007
5009.343436158216,28189.340029347466
5009.369487342828,27868.591036454724
5009.395538662919,27627.777687801186
5009.421590118491,27563.479458888385
5009.447641709544,27561.085230470297
5009.473693436078,27651.202498242685
5009.499745298095,27605.586934945863
5009.525797295596,27965.28321833929
5009.55184942858,27744.076764416728
5009.577901697049,27554.899083243516
5009.603954101003,27197.372164473007
5009.630006640443,27065.09051680697
5009.65605931537,26625.045446275297
5009.682112125784,25994.194536527208
5009.708165071686,25542.15243684662
5009.7342181530785,24958.794132864798
5009.760271369959,24223.891911620463
5009.78632472233,23589.043227682603
5009.812378210192,23024.57605951129
5009.838431833546,22323.774004718478
5009.864485592391,21673.728722360476
5009.890539486731,21080.595635593327
5009.916593516564,20268.342948263842
5009.942647681891,19401.171451961316
5009.968701982713,18645.785997080275
5009.994756419032,18556.686152160135
5010.020810990847,19043.255848364148
5010.046865698159,19816.118968631097
5010.072920540969,21062.668626469065
5010.098975519279,22335.81595458114
5010.125030633087,23576.045872615945
5010.151085882395,24716.503434869523
5010.177141267204,25578.434150383484
5010.2031967875155,26583.05390630415
5010.229252443328,27202.71282851844
5010.255308234644,27823.590042007272
5010.281364161464,28091.52442060846
5010.307420223788,28424.066864249202
5010.333476421617,28509.791382274838
5010.359532754951,28543.396577358435
5010.3855892237925,28671.12070359702
5010.4116458281405,28745.462851395143
5010.437702567997,28587.471742242175
5010.463759443362,28434.78934549708
5010.489816454236,28335.147311068853
5010.51587360062,28075.489049922922
5010.541930882514,27713.48028294488
5010.56798829992,27184.820085395615
5010.5940458528385,26449.522376177727
5010.62010354127,25781.460535587725
5010.646161365214,25062.46795117642
5010.672219324672,24260.003740711865
5010.698277419646,23968.55607910786
5010.724335650135,23651.453823894295
5010.7503940161405,23724.89404287427
5010.7764525176635,24454.051696365317
5010.802511154703,25343.01034739542
5010.828569927262,25946.31182529482
5010.85462883534,26688.506594349175
5010.880687878937,27432.56778605661
5010.906747058056,27683.245492872527
5010.932806372695,28177.7409270848
5010.958865822856,28397.05057739641
5010.98492540854,28495.44568415046
5011.0109851297475,28627.04275001575
5011.0370449864795,28828.420501912093
5011.063104978735,28923.411662459424
5011.089165106517,28920.531992432276
5011.115225369825,29094.813985663615
5011.14128576866,29014.373781031984
5011.167346303022,28981.93386552233
5011.193406972913,29005.387654406444
5011.219467778333,28846.0620964051
5011.2455287192815,28921.92332876867
5011.271589795761,28838.760504405585
5011.297651007772,28509.046427151443
5011.323712355315,28435.839406196206
5011.34977383839,28257.221176652263
5011.375835456999,27953.96944021573
5011.401897211142,27367.209315745386
5011.427959100819,26598.805132186717
5011.454021126031,26046.199522015842
5011.4800832867795,25093.699811776096
5011.506145583065,24341.06134826576
5011.532208014888,23650.14400573405
5011.558270582248,22764.380089933653
5011.584333285148,22083.007416757384
5011.610396123588,21419.861843920607
5011.636459097567,20734.875201717135
5011.662522207088,19489.007486406812
5011.68858545215,18272.218144194587
5011.714648832754,16806.29270676477
5011.740712348902,14956.606136914814
5011.766776000594,13453.829777448018
5011.79283978783,12109.284158407685
5011.818903710611,10927.99123289662
5011.844967768939,10171.607817143093
5011.871031962813,10149.579685479765
5011.897096292234,10715.472352479732
5011.923160757203,11710.397991919272
5011.949225357721,12994.982928805
5011.975290093788,14436.942674779795
5012.001354965406,15968.883224751684
5012.027419972574,17523.614872206326
5012.053485115294,18939.748331483694
5012.079550393566,19990.125532297836
5012.105615807392,20709.207209546414
5012.13168135677,20867.332489159435
5012.157747041703,20871.36270401995
5012.183812862192,20868.05014219362
5012.209878818236,20671.24367585543
5012.235944909837,20912.009269984737
5012.262011136994,21460.062251011
5012.28807749971,22179.201793925702
5012.3141439979845,23098.60426769915
5012.340210631818,23907.59681421946
5012.366277401212,24151.40604763816
5012.392344306166,24229.7513450713
5012.418411346682,24187.12245051603
5012.44447852276,24170.64471444309
5012.470545834401,24437.638521649566
5012.496613281605,24731.346745527488
5012.522680864374,24908.144591683988
5012.548748582707,25792.477109897467
5012.574816436606,26476.93999441219
5012.600884426071,26910.125254576065
5012.626952551104,27315.972762260153
5012.653020811705,27605.39084068554
5012.679089207873,27758.566712706564
5012.705157739611,27792.55420373046
5012.73122640692,27813.858507219393
5012.757295209798,27852.434517419908
5012.7833641482475,27900.320286940758
5012.80943322227,27950.519726550196
5012.835502431864,27902.209250412467
5012.861571777033,27703.02332564299
5012.887641257775,27365.873978675176
5012.9137108740915,26761.98102647757
5012.939780625984,25946.764792535134
5012.965850513452,25307.226284618788
5012.991920536498,24448.510508353833
5013.017990695121,23324.91689022275
5013.044060989323,22005.659320467836
5013.070131419104,21027.535518694625
5013.096201984464,20226.588974770966
5013.122272685405,19983.477625298932
5013.148343521927,20277.106719314943
5013.17441449403,20614.89088751861
5013.200485601717,21070.135559670638
5013.226556844987,21427.584927531632
5013.2526282238405,21361.913578881205
5013.278699738279,21050.100383265402
5013.304771388303,20327.871979391773
5013.330843173913,19366.716188773025
5013.35691509511,18171.769866284732
5013.382987151894,16900.763131572865
5013.409059344267,15510.227888048277
5013.435131672228,14425.99538585173
5013.46120413578,13810.14268739359
5013.487276734921,13931.3889616505
5013.513349469653,14691.187306468508
5013.539422339977,15714.52165220564
5013.565495345894,16948.953025072708
5013.5915684874035,18183.338065002587
5013.617641764507,19402.122776125183
5013.643715177206,20567.41298525978
5013.6697887254995,21629.01357357402
5013.695862409389,22514.991433226533
5013.721936228875,23126.152347095238
5013.748010183958,23677.051020199957
5013.77408427464,24010.474187670206
5013.800158500921,24005.64334736109
5013.826232862801,23631.080584943462
5013.852307360281,22855.72609718915
5013.8783819933615,21567.372575634225
5013.904456762045,20286.42886720064
5013.930531666329,18599.785859517156
5013.956606706218,16943.656703534707
5013.982681881709,15636.022324775637
5014.008757192805,14994.427517066591
5014.034832639507,14818.441147812237
5014.060908221814,15266.511084520189
5014.086983939728,16120.890508355587
5014.113059793249,17744.727003666216
5014.139135782378,19218.166338212344
5014.165211907116,20619.75176684404
5014.1912881674625,22289.306637088634
