wave,flux
5000.025812696027,21738.17654591654
5000.051815424163,20796.84802398555
5000.0778182875265,19816.996267323128
5000.103821286119,18930.99114332971
5000.12982441994,18103.3796823757
5000.155827688991,17553.005790109244
5000.181831093272,17657.41041756774
5000.207834632784,18216.768149603227
5000.2338383075285,19208.16534416625
5000.259842117506,20389.20332855147
5000.285846062716,21432.393241920745
5000.311850143161,22215.242218027644
5000.33785435884,23021.14292748393
5000.363858709754,23548.037417084062
5000.389863195905,23574.995769746136
5000.415867817292,23345.54944898519
5000.441872573917,22812.55539981348
5000.4678774657805,22159.877449230906
5000.493882492882,21180.24229686004
5000.519887655224,20714.214391763933
5000.545892952806,20219.2078754515
5000.571898385629,19969.052882042768
5000.597903953694,20324.295223261703
5000.623909657001,20792.33115008634
5000.649915495552,21496.80112930204
5000.675921469346,21974.35538075126
5000.701927578384,22373.701788748727
5000.727933822669,22682.584433457
5000.7539402021985,22966.87223188721
5000.779946716975,23337.62045025307
5000.805953366999,23614.73714192694
5000.831960152272,23838.089690898592
5000.857967072792,24181.643288247138
5000.883974128563,24722.875253626684
5000.9099813195835,24816.88978311676
5000.935988645855,25014.29165972972
5000.961996107378,25301.972437111486
5000.988003704153,25202.44256750959
5001.014011436181,25370.83465322625
5001.040019303464,25417.744954371396
5001.066027306,25309.977715319405
5001.092035443791,25248.011374163118
5001.118043716839,25084.430643296357
5001.1440521251425,24915.07152049247
5001.170060668704,24416.539476317404
5001.196069347523,23450.410214436313
5001.222078161601,22566.730688937056
5001.248087110937,21626.563429715803
5001.274096195534,20620.421740029276
5001.300105415392,20167.502203944296
5001.326114770512,19855.06157264922
5001.352124260892,20135.678222713686
5001.3781338865365,20212.886569928007
5001.4041436474445,20441.80106655837
5001.430153543616,20656.040054271147
5001.456163575053,20484.557401251193
5001.482173741756,20031.81298665974
5001.508184043724,19169.440691932683
5001.534194480961,18000.554804828327
5001.560205053464,16688.635966522004
5001.586215761236,15263.311101025123
5001.612226604278,13827.511207784104
5001.638237582589,12660.371980560254
5001.664248696171,12093.287886050788
5001.690259945024,12071.053083641547
5001.716271329149,12510.951312540343
5001.742282848547,13683.647647234267
5001.768294503218,15165.731607725314
5001.794306293164,16643.74048457455
5001.820318218383,18449.82276809599
5001.84633027888,20200.660817852728
5001.872342474651,21430.872662053545
5001.8983548056995,22907.280728871912
5001.924367272026,24135.641532220987
5001.9503798736305,25138.427966535048
5001.976392610514,25984.20852703078
5002.002405482678,26459.4750262824
5002.028418490122,26716.339968075154
5002.054431632847,26836.27747901714
5002.080444910854,26864.403315228323
5002.106458324142,26937.571482469655
5002.1324718727155,27082.17872463789
5002.158485556572,26912.185396386165
5002.184499375713,26585.066798873253
5002.210513330139,26377.38105243062
5002.236527419852,25990.167198258187
5002.262541644852,25910.960296024918
5002.288556005138,25641.52774867118
5002.314570500714,25329.99838856459
5002.340585131577,25020.39572176387
5002.36659989773,24793.724914524384
5002.392614799174,24365.35478282385
5002.418629835909,23828.77402394108
5002.444645007936,23387.254627194172
5002.4706603152545,22657.75418950014
5002.496675757866,21695.022004649374
5002.522691335772,20746.71888038301
5002.548707048972,19496.025178487133
5002.574722897468,18535.741437505854
5002.600738881259,18201.14036006573
5002.626755000347,18430.084598686386
5002.652771254732,19074.439464945965
5002.678787644415,20178.22336895122
5002.704804169397,21392.19826433053
5002.730820829678,22840.65442791741
5002.75683762526,23946.32506966487
5002.782854556142,24817.562987804566
5002.8088716223265,25520.629028982148
5002.834888823812,26056.983842237172
5002.860906160601,26456.562677366346
5002.886923632695,26761.130025230115
5002.912941240092,27109.422029011082
5002.938958982793,27291.837109607935
5002.9649768608015,27155.972479277185
5002.990994874116,27055.190994397464
5003.017013022737,26972.780442599444
5003.043031306666,27154.455867779994
5003.069049725905,27279.92405956571
5003.095068280452,26962.385617617103
5003.121086970309,27199.29578001782
5003.147105795477,26994.54469708023
5003.173124755956,26888.84841916182
5003.199143851748,26877.159855762005
5003.225163082852,26864.904055668354
5003.251182449269,26830.87652781188
5003.277201951001,26681.267902333006
5003.3032215880485,26579.363999650886
5003.32924136041,26672.500846230734
5003.35526126809,26702.244048905184
5003.381281311085,26508.45146258119
5003.407301489398,26327.34253800294
5003.433321803031,26203.234812751165
5003.459342251982,25855.94697126539
5003.4853628362525,25231.751682210896
5003.511383555844,24710.20915027027
5003.537404410757,24497.436363245477
5003.563425400991,24383.577047832106
5003.589446526548,24172.531010590494
5003.615467787429,24320.554988567706
5003.641489183634,24582.524282888648
5003.667510715163,24585.5915412455
5003.693532382018,24585.473417449506
5003.719554184199,24462.273255437096
5003.745576121707,24148.583839639447
5003.771598194542,23655.126065751832
5003.797620402706,23003.734870730314
5003.823642746199,22538.576067529153
5003.849665225021,22308.55630649854
5003.875687839174,22294.950580376317
5003.901710588658,22373.056638818965
5003.927733473473,22826.434702866463
5003.953756493622,23423.364931995206
5003.979779649103,24042.46034696174
5004.005802939919,24447.746483183666
5004.031826366068,24809.526977023786
5004.057849927553,25094.07152982163
5004.083873624375,25153.768386874443
5004.109897456533,25202.226365300292
5004.135921424028,25452.9040627839
5004.161945526862,25651.6270171424
5004.187969765035,25728.87872202067
5004.213994138547,25844.14451117845
5004.240018647399,26063.535257391908
5004.266043291592,26424.26115925351
5004.292068071127,26757.767680187935
5004.318092986004,26881.597516704864
5004.344118036223,26964.86864914068
5004.370143221788,27005.43203897351
5004.396168542696,27174.504594591253
5004.422193998949,27107.80484465192
5004.448219590549,27110.237384383847
5004.474245317495,27078.107184975415
5004.500271179789,27058.044917845946
5004.52629717743,27191.57229221325
5004.5523233104195,26990.26189639534
5004.578349578759,26576.04053239552
5004.604375982449,26342.2012582505
5004.630402521489,25942.072446168186
5004.656429195881,25467.231366429314
5004.682456005625,25165.29968464648
5004.708482950721,24952.55006574444
5004.734510031172,24729.321804524756
5004.760537246977,24444.490501781358
5004.7865645981365,24079.519920516213
5004.812592084652,23349.70925083459
5004.838619706525,22460.711623415817
5004.8646474637535,21573.833604359697
5004.890675356341,20382.437541181313
5004.916703384286,18953.76415895445
5004.942731547591,17857.677584886886
5004.968759846256,17194.75240871394
5004.994788280281,17079.65868824142
5005.020816849668,17657.1408899774
5005.046845554417,18576.9655504673
5005.072874394528,19855.139500169676
5005.098903370003,20968.913617797578
5005.124932480842,21866.56865988034
5005.150961727047,22510.33957111027
5005.176991108617,22875.198687424567
5005.203020625552,23125.402567470705
5005.229050277856,23146.455097045964
5005.255080065526,22910.067717633785
5005.281109988566,22585.83499787665
5005.3071400469735,22116.39443449027
5005.333170240751,21075.454984767755
5005.3592005699,20313.491221110606
5005.38523103442,18953.41300963551
5005.411261634312,17319.930360698978
5005.4372923695755,15904.187454924026
5005.463323240213,14590.066045719392
5005.489354246225,13217.731791168842
5005.515385387611,12347.672640042547
5005.541416664373,12068.425734878583
5005.567448076511,12337.402643709547
5005.593479624025,12926.066194343171
5005.619511306918,13677.716715442493
5005.645543125189,14541.649750980016
5005.671575078838,15301.824764439094
5005.697607167867,15684.06935777654
5005.723639392277,15789.04278843942
5005.749671752068,15614.006429219762
5005.77570424724,14930.768988050855
5005.8017368777955,14042.048978361336
5005.8277696437335,12791.440092225248
5005.853802545055,11638.010336936215
5005.879835581762,10747.789499193901
5005.905868753854,10091.256845149288
5005.931902061331,9943.843518858344
5005.957935504196,10457.930942244733
5005.983969082448,11369.453349805824
5006.010002796088,12683.245693653973
5006.036036645117,14207.442880910967
5006.062070629536,15958.353087071575
5006.088104749344,17674.97385256696
5006.114139004544,19364.099446784585
5006.140173395135,21197.63084883414
5006.166207921118,22686.71976533771
5006.192242582495,23834.37861371994
5006.218277379266,24864.016625381944
5006.244312311431,25589.46998396943
5006.270347378991,26177.703223762164
5006.296382581946,26480.789508069756
5006.322417920299,26512.526715085834
5006.348453394048,26577.75982310317
5006.374489003196,26713.60185718479
5006.400524747743,26617.650926441547
5006.426560627688,26592.69528994185
5006.452596643034,26622.636237508006
5006.47863279378,26503.724214855698
5006.504669079928,26681.838505253454
5006.530705501478,26508.600502269896
5006.556742058431,26337.51214003823
5006.582778750788,26398.208609499674
5006.608815578549,26160.8693856084
5006.634852541715,25862.615965146855
5006.660889640287,25395.837031850642
5006.686926874265,25003.894693007573
5006.71296424365,24570.16178989337
5006.739001748444,24085.52497375194
5006.765039388645,23711.660777107256
5006.791077164256,22970.434900917317
5006.817115075277,22368.936122313313
5006.843153121708,21610.186943417764
5006.869191303552,20378.131023348567
5006.895229620806,19282.26185532014
5006.921268073474,17717.463515814772
5006.947306661555,16097.608769122211
5006.97334538505,14568.920531794878
5006.999384243961,12973.853283537675
5007.025423238286,12007.196296791417
5007.051462368028,11533.904610054371
5007.077501633187,11820.138715530606
5007.103541033764,12701.121289362622
5007.129580569759,13969.102735701013
5007.155620241173,15527.318725349225
5007.181660048007,17225.879263097082
5007.207699990262,19061.77900487307
5007.233740067937,20651.255776530063
5007.259780281035,22045.554194429697
5007.285820629555,23430.310159158773
5007.311861113499,24390.954252672982
5007.337901732866,25109.59626967995
5007.363942487658,25877.171159636608
5007.389983377876,26255.562854096555
5007.41602440352,26060.089576764854
5007.442065564591,25824.021836430566
5007.468106861089,25729.013905611446
5007.494148293015,25369.92809901156
5007.520189860371,25087.060053907986
5007.546231563156,25064.08323863276
5007.572273401372,25146.893398775726
5007.598315375018,25772.748958605887
5007.624357484096,26023.7981056047
5007.650399728607,26403.57685364466
5007.676442108551,26789.107521852296
5007.702484623929,27137.47426738818
5007.728527274741,27353.24509133461
5007.754570060989,27468.70785574165
5007.780612982673,27533.663926801375
5007.806656039793,27719.536051934047
5007.832699232351,27684.25860428191
5007.858742560347,27603.090328695114
5007.884786023782,27900.073947770194
5007.910829622656,27840.28473989982
5007.936873356971,27740.568281927848
5007.962917226726,27721.56968141426
5007.988961231923,27596.5885963871
5008.015005372563,27886.480032179516
5008.041049648646,27875.83064710145
5008.067094060171,27935.675631936996
5008.0931386071425,28033.4103806855
5008.119183289558,28093.506391679184
5008.14522810742,27954.50251889259
5008.171273060728,27983.448522503037
5008.197318149483,27963.293499995445
5008.223363373687,27895.906578354035
5008.249408733339,27950.855053231982
5008.27545422844,27892.213695482205
5008.301499858992,27695.571231055517
5008.327545624995,27514.29736393006
5008.353591526448,27160.991157715885
5008.379637563355,26977.070149232793
5008.405683735714,26828.258899040426
5008.431730043527,26542.79848896363
5008.457776486794,26601.24193729917
5008.483823065515,26717.3127110545
5008.509869779693,26776.899503774013
5008.535916629327,26983.615087235044
5008.561963614418,27403.486301983005
5008.588010734968,27730.781556388076
5008.614057990975,27575.533554895126
5008.640105382442,27710.447376619708
5008.666152909369,27847.59356487638
5008.692200571756,27808.62081672586
5008.718248369605,27671.80874979083
5008.744296302916,27762.396923013457
5008.77034437169,27866.763960718497
5008.796392575927,27727.356578964413
5008.822440915628,27801.05932104518
5008.848489390794,27779.177504508545
5008.874538001426,27680.291905748752
5008.900586747524,27886.00884186511
5008.926635629089,27987.378550529163
5008.952684646122,27785.753685898995
5008.978733798623,27806.241584234744
5009.004783086593,27935.47596096984
5009.030832510033,27936.933030016713
5009.056882068944,27883.89958351313
5009.082931763326,27853.00769269543
5009.108981593179,28025.428959551606
5009.135031558506,27925.176568632185
5009.161081659306,27736.957421514035
5009.187131895579,27638.40371901762
5009.213182267327,27488.94968949891
5009.239232774552,27348.68825512927
5009.265283417251,27097.32916651441
5009.291334195428,27162.53105537122
5009.317385109083,27265.901336212286
5009.343436158216,27115.260679563657
5009.369487342828,26795.8335449009
5009.395538662919,26652.570520502966
5009.421590118491,26384.605142851426
5009.447641709544,26155.7795240526
5009.473693436078,26184.463167007103
5009.499745298095,26225.611224343018
5009.525797295596,26173.91657904599
5009.55184942858,26306.859985430343
5009.577901697049,26525.13070274248
5009.603954101003,26362.462813460384
5009.630006640443,26164.2157767254
5009.65605931537,25982.052298907067
5009.682112125784,25451.414269737692
5009.708165071686,25034.551155651116
5009.7342181530785,24601.51225630935
5009.760271369959,23814.6539720767
5009.78632472233,23139.576614081012
5009.812378210192,22406.414661775263
5009.838431833546,21580.194352321396
5009.864485592391,21051.666707929613
5009.890539486731,20593.782804840488
5009.916593516564,19836.615666221973
5009.942647681891,19191.43295534205
5009.968701982713,18512.68070509547
5009.994756419032,17904.583509916094
5010.020810990847,17739.434044049725
5010.046865698159,17932.548291741867
5010.072920540969,18832.899780557225
5010.098975519279,19963.29817970869
5010.125030633087,21180.380346337653
5010.151085882395,22470.025179569282
5010.177141267204,23866.9251322361
5010.2031967875155,24875.364240443047
5010.229252443328,25690.402666540707
5010.255308234644,26393.343108968358
5010.281364161464,26953.93996871908
5010.307420223788,27400.214670338893
5010.333476421617,27580.034508425113
5010.359532754951,27680.65798977402
5010.3855892237925,27680.964684745526
5010.4116458281405,27629.968974766023
5010.437702567997,27656.583617956177
5010.463759443362,27520.10409840915
5010.489816454236,27396.77701855944
5010.51587360062,27325.735744943584
5010.541930882514,27001.759376421887
5010.56798829992,26656.930629965307
5010.5940458528385,26180.743604739546
5010.62010354127,25407.90102453949
5010.646161365214,24748.374072406987
5010.672219324672,23938.083754832674
5010.698277419646,23206.808525785713
5010.724335650135,22695.643284504687
5010.7503940161405,22328.538685990814
5010.7764525176635,22430.56258266485
5010.802511154703,22986.13545675717
5010.828569927262,23745.65383878773
5010.85462883534,24652.926659159402
5010.880687878937,25698.251594395177
5010.906747058056,26324.47581513122
5010.932806372695,26795.351616306834
5010.958865822856,27141.89677540006
5010.98492540854,27288.420104703015
5011.0109851297475,27450.555809351976
5011.0370449864795,27497.423158818492
5011.063104978735,27749.952583476454
5011.089165106517,28046.133334366874
5011.115225369825,27902.83623492998
5011.14128576866,27849.529675157988
5011.167346303022,27922.33436084409
5011.193406972913,27871.367101783795
5011.219467778333,27838.643645783024
5011.2455287192815,27880.887355221086
5011.271589795761,27932.611023621266
5011.297651007772,27475.10388093776
5011.323712355315,27529.376504457156
5011.34977383839,27288.05743186782
5011.375835456999,27141.339561400426
5011.401897211142,26641.25059296847
5011.427959100819,26121.464885846694
5011.454021126031,25805.936861743823
5011.4800832867795,24624.138002615742
5011.506145583065,23965.864724397805
5011.532208014888,23288.817924433097
5011.558270582248,22312.314408476796
5011.584333285148,21634.742410226663
5011.610396123588,21040.187394749486
5011.636459097567,20295.355004239118
5011.662522207088,19597.10321283256
5011.68858545215,18671.45032414975
5011.714648832754,17467.502035335587
5011.740712348902,16031.939775589683
5011.766776000594,14388.784890052752
5011.79283978783,12904.186588954275
5011.818903710611,11502.24860273541
5011.844967768939,10207.976515878263
5011.871031962813,9381.512664984188
5011.897096292234,9249.735631630903
5011.923160757203,9739.205494244261
5011.949225357721,10565.503756667591
5011.975290093788,11779.456670092337
5012.001354965406,13355.707553916622
5012.027419972574,15130.875576719583
5012.053485115294,16521.81054177231
5012.079550393566,18050.789869673936
5012.105615807392,19070.176824372964
5012.13168135677,19814.45445816593
5012.157747041703,20200.0879923537
5012.183812862192,20415.780784030154
5012.209878818236,20245.421730298232
5012.235944909837,20095.060259755952
5012.262011136994,20084.33591948359
5012.28807749971,20391.666359231895
5012.3141439979845,20983.00500482891
5012.340210631818,21616.3968962377
5012.366277401212,22394.499707321276
5012.392344306166,23123.894661982045
5012.418411346682,23357.67552830048
5012.44447852276,23363.51268674985
5012.470545834401,23267.359205403496
5012.496613281605,23218.628349991905
5012.522680864374,23477.95334954553
5012.548748582707,23926.218224925662
5012.574816436606,24523.556755647045
5012.600884426071,25165.46005857785
5012.626952551104,25721.759613765276
5012.653020811705,26202.728268384373
5012.679089207873,26547.470856557346
5012.705157739611,26630.63118623541
5012.73122640692,26791.700040059954
5012.757295209798,26904.761554225304
5012.7833641482475,26724.762660295906
5012.80943322227,26842.527845692246
5012.835502431864,26694.432693727613
5012.861571777033,26710.9969101108
5012.887641257775,26526.041112537547
5012.9137108740915,26189.7410939741
5012.939780625984,25363.767361839095
5012.965850513452,24959.389324174903
5012.991920536498,24334.498947366443
5013.017990695121,23407.201759805834
5013.044060989323,22340.614262801846
5013.070131419104,21030.467189734587
5013.096201984464,19889.617121642063
5013.122272685405,19145.44217927797
5013.148343521927,18818.070936721484
5013.17441449403,18926.51480394992
5013.200485601717,19356.947144104004
5013.226556844987,19919.977410942873
5013.2526282238405,20489.19785562846
5013.278699738279,20656.686408310543
5013.304771388303,20352.46190910581
5013.330843173913,19765.557348184888
5013.35691509511,18889.590482374235
5013.382987151894,17705.415056749614
5013.409059344267,16298.431169972546
5013.435131672228,14922.252254140945
5013.46120413578,13745.320824753218
5013.487276734921,13005.849209959426
5013.513349469653,12970.296661910883
5013.539422339977,13488.688022049273
5013.565495345894,14492.41665163848
5013.5915684874035,15845.536093715824
5013.617641764507,17401.804148017436
5013.643715177206,18703.40665268247
5013.6697887254995,19754.32650373281
5013.695862409389,20724.216468108814
5013.721936228875,21556.82791269019
5013.748010183958,22222.01106651496
5013.77408427464,22955.019459056046
5013.800158500921,22980.3418233483
5013.826232862801,22808.388339917507
5013.852307360281,22464.643763480064
5013.8783819933615,21724.725508703876
5013.904456762045,20436.55698149775
5013.930531666329,19276.985253077597
5013.956606706218,17625.15828352341
5013.982681881709,16043.042613525873
5014.008757192805,14733.284497997423
5014.034832639507,13791.06498021177
5014.060908221814,13541.05621887407
5014.086983939728,13971.9322090765
5014.113059793249,14829.098228365314
5014.139135782378,16051.898303829663
5014.165211907116,17761.27738420935
5014.1912881674625,19592.674359764664
5014.21736456342,21127.344007047188
