wave,flux
5000.025812696027,21809.215201842988
5000.051815424163,20965.54189480925
5000.0778182875265,20095.54825319575
5000.103821286119,19239.5127781387
5000.12982441994,18719.938306500084
5000.155827688991,18365.04263457743
5000.181831093272,18532.505508069615
5000.207834632784,18976.139388913456
5000.2338383075285,19513.471982814975
5000.259842117506,20352.349988549293
5000.285846062716,21132.490609144214
5000.311850143161,21835.894802776158
5000.33785435884,22406.74642147165
5000.363858709754,22782.698411741017
5000.389863195905,22981.79623649249
5000.415867817292,22843.57292782176
5000.441872573917,22459.796726649063
5000.4678774657805,21795.806127688076
5000.493882492882,21163.620441498566
5000.519887655224,20531.840474911765
5000.545892952806,20471.75522999225
5000.571898385629,20700.043989258036
5000.597903953694,20972.25242201284
5000.623909657001,21152.976062397494
5000.649915495552,21601.218713116985
5000.675921469346,22095.158409479223
5000.701927578384,22372.914599060525
5000.727933822669,22609.626047569207
5000.7539402021985,22942.266098031363
5000.779946716975,23183.615194660713
5000.805953366999,23368.80868148908
5000.831960152272,23788.587057865752
5000.857967072792,24215.465431584213
5000.883974128563,24368.76888226976
5000.9099813195835,24261.621340857106
5000.935988645855,24701.906894119456
5000.961996107378,24682.453634108766
5000.988003704153,24943.94432175234
5001.014011436181,24955.775194056714
5001.040019303464,24833.927885357232
5001.066027306,24775.41604303099
5001.092035443791,24672.021226405894
5001.118043716839,24295.696482890195
5001.1440521251425,23926.964904025906
5001.170060668704,23566.927874147455
5001.196069347523,22884.25940897211
5001.222078161601,22064.321287574996
5001.248087110937,21296.115864713778
5001.274096195534,20700.30046104442
5001.300105415392,20189.81136028174
5001.326114770512,20051.097030341658
5001.352124260892,19903.67338489695
5001.3781338865365,20151.96031535117
5001.4041436474445,20026.95077892524
5001.430153543616,19847.81840655024
5001.456163575053,19625.34822527834
5001.482173741756,19138.969696442626
5001.508184043724,18577.71150581038
5001.534194480961,17545.35095884264
5001.560205053464,16299.88929167762
5001.586215761236,15247.90355682782
5001.612226604278,14169.724095673106
5001.638237582589,13309.359115822215
5001.664248696171,12830.821326512929
5001.690259945024,12947.989927378963
5001.716271329149,13422.146763437806
5001.742282848547,14340.696234681089
5001.768294503218,15567.188438508392
5001.794306293164,16829.976469279103
5001.820318218383,18523.07105380506
5001.84633027888,19827.087328519538
5001.872342474651,21192.557449475
5001.8983548056995,22391.233868528474
5001.924367272026,23563.983664892243
5001.9503798736305,24423.460240924982
5001.976392610514,25020.44009070928
5002.002405482678,25689.053269935557
5002.028418490122,26098.53511320813
5002.054431632847,26280.56377223516
5002.080444910854,26466.877160824515
5002.106458324142,26396.46068153957
5002.1324718727155,26385.644520848015
5002.158485556572,26454.719006134786
5002.184499375713,26189.655852750366
5002.210513330139,25870.538196035508
5002.236527419852,25933.493214326212
5002.262541644852,25710.003376873734
5002.288556005138,25354.231078871107
5002.314570500714,25012.05718220951
5002.340585131577,24684.173662526184
5002.36659989773,24380.236984163086
5002.392614799174,23959.15392015667
5002.418629835909,23402.551581279426
5002.444645007936,22868.979100828095
5002.4706603152545,22338.02134743961
5002.496675757866,21579.155154094617
5002.522691335772,20592.734275366278
5002.548707048972,19922.54950926985
5002.574722897468,19267.8093796118
5002.600738881259,18896.035233613053
5002.626755000347,19178.26458014168
5002.652771254732,19834.0188118371
5002.678787644415,20569.959188945377
5002.704804169397,21673.57159973194
5002.730820829678,22761.600245159192
5002.75683762526,23667.70768798864
5002.782854556142,24385.553374181363
5002.8088716223265,24955.25219560385
5002.834888823812,25453.29235261073
5002.860906160601,25911.285832892416
5002.886923632695,26256.82468349434
5002.912941240092,26459.267210972786
5002.938958982793,26592.76471582361
5002.9649768608015,26627.681095505654
5002.990994874116,26679.294165282565
5003.017013022737,26580.57507035515
5003.043031306666,26980.992576096614
5003.069049725905,26919.594339535466
5003.095068280452,26641.488048245094
5003.121086970309,26900.057272615544
5003.147105795477,26906.68614360339
5003.173124755956,26802.8511484469
5003.199143851748,26551.977314266616
5003.225163082852,26383.456420585626
5003.251182449269,26480.652697639587
5003.277201951001,26381.64559749659
5003.3032215880485,26156.601664321683
5003.32924136041,26304.930095201144
5003.35526126809,26497.22433761856
5003.381281311085,26295.797725992084
5003.407301489398,25904.857247535718
5003.433321803031,25642.72554288488
5003.459342251982,25411.563065904804
5003.4853628362525,25039.516753700278
5003.511383555844,24641.150356385184
5003.537404410757,24361.360347969832
5003.563425400991,24250.631543969313
5003.589446526548,24301.597576871918
5003.615467787429,24223.762193817358
5003.641489183634,24113.67950856346
5003.667510715163,24261.08432421392
5003.693532382018,24279.503653380474
5003.719554184199,24105.441765730833
5003.745576121707,23936.700527121116
5003.771598194542,23553.05359729339
5003.797620402706,22914.354764670286
5003.823642746199,22434.44458171794
5003.849665225021,22356.71628838639
5003.875687839174,22414.67062933956
5003.901710588658,22742.2557720946
5003.927733473473,23012.425126695773
5003.953756493622,23215.2757807252
5003.979779649103,23761.349724401545
5004.005802939919,24272.243951187233
5004.031826366068,24540.81551131308
5004.057849927553,24882.060793263936
5004.083873624375,24901.122018511465
5004.109897456533,25118.947316146263
5004.135921424028,25331.84381100594
5004.161945526862,25306.245448011327
5004.187969765035,25611.50731722553
5004.213994138547,25884.505026458766
5004.240018647399,25844.216950588638
5004.266043291592,26127.206979732702
5004.292068071127,26431.700376322347
5004.318092986004,26518.902538551272
5004.344118036223,26655.678410169152
5004.370143221788,26867.613410428312
5004.396168542696,26817.968752982844
5004.422193998949,26881.077355284116
5004.448219590549,26838.821339770686
5004.474245317495,26971.911012550376
5004.500271179789,26821.64606185197
5004.52629717743,26658.40937396643
5004.5523233104195,26509.648949381648
5004.578349578759,26248.662388272285
5004.604375982449,25974.93619337098
5004.630402521489,25678.919032833765
5004.656429195881,25382.4760616443
5004.682456005625,25000.553658792127
5004.708482950721,24500.9217970403
5004.734510031172,24198.76908776374
5004.760537246977,23996.173259785
5004.7865645981365,23508.663073786916
5004.812592084652,22938.443772867075
5004.838619706525,22203.49925206094
5004.8646474637535,21323.975925479874
5004.890675356341,20307.21565320389
5004.916703384286,19365.24269683591
5004.942731547591,18495.13608108404
5004.968759846256,18037.824046412145
5004.994788280281,17904.084198216166
5005.020816849668,18430.855328027796
5005.046845554417,19089.14032159642
5005.072874394528,19871.634164139497
5005.098903370003,20689.548981247895
5005.124932480842,21369.214621547046
5005.150961727047,21887.314959030653
5005.176991108617,22302.952308083084
5005.203020625552,22453.479656889846
5005.229050277856,22296.771852381087
5005.255080065526,22127.97862674475
5005.281109988566,21724.630732111025
5005.3071400469735,21249.738511749205
5005.333170240751,20461.896493027747
5005.3592005699,19430.436222749806
5005.38523103442,18443.231758537204
5005.411261634312,17177.334091437675
5005.4372923695755,15900.622984174724
5005.463323240213,14542.251601255526
5005.489354246225,13602.278216742505
5005.515385387611,13111.803816485592
5005.541416664373,12882.03640859879
5005.567448076511,12949.799356455163
5005.593479624025,13280.163525668298
5005.619511306918,13690.771236391076
5005.645543125189,14198.987494321249
5005.671575078838,14820.825045866355
5005.697607167867,15078.571307594122
5005.723639392277,14863.494793589638
5005.749671752068,14669.772601803332
5005.77570424724,14300.640389809423
5005.8017368777955,13620.319621570354
5005.8277696437335,12724.89883064973
5005.853802545055,11787.115191253031
5005.879835581762,11224.901098102404
5005.905868753854,10775.171888051973
5005.931902061331,10911.034786894554
5005.957935504196,11306.337343962263
5005.983969082448,12245.27631807306
5006.010002796088,13267.862212219188
5006.036036645117,14637.005288017568
5006.062070629536,16134.566141845862
5006.088104749344,17679.734990906883
5006.114139004544,19224.9475382424
5006.140173395135,20684.723687927613
5006.166207921118,22019.110662684077
5006.192242582495,23216.403841090818
5006.218277379266,24111.14884638222
5006.244312311431,24791.361087723424
5006.270347378991,25419.282527014366
5006.296382581946,25534.598542790856
5006.322417920299,25821.39475166564
5006.348453394048,26146.021909907246
5006.374489003196,26278.13915804564
5006.400524747743,26219.389200323967
5006.426560627688,26346.734798951962
5006.452596643034,26393.790102663148
5006.47863279378,26227.063383508954
5006.504669079928,25936.734786068533
5006.530705501478,26157.324579571705
5006.556742058431,26175.543509718576
5006.582778750788,25822.615507552015
5006.608815578549,25584.242869282854
5006.634852541715,25385.870650256333
5006.660889640287,25130.512320264887
5006.686926874265,24788.42767051347
5006.71296424365,24316.76158499083
5006.739001748444,23739.26225708139
5006.765039388645,23134.44632932578
5006.791077164256,22543.1979770328
5006.817115075277,21764.920927374398
5006.843153121708,21006.14132867919
5006.869191303552,19985.777337262403
5006.895229620806,18905.973836585992
5006.921268073474,17429.367283530053
5006.947306661555,16227.722338700692
5006.97334538505,14805.838655926875
5006.999384243961,13631.902215022912
5007.025423238286,12987.075291420064
5007.051462368028,12787.094473765334
5007.077501633187,12943.211872018213
5007.103541033764,13513.367492247646
5007.129580569759,14683.619303018902
5007.155620241173,16080.999779630447
5007.181660048007,17477.61140711274
5007.207699990262,18938.210516500578
5007.233740067937,20341.894657660578
5007.259780281035,21497.03188055495
5007.285820629555,22527.148240713468
5007.311861113499,23578.16908756131
5007.337901732866,24425.503456228635
5007.363942487658,25012.904867572357
5007.389983377876,25393.504386858644
5007.41602440352,25490.999953785184
5007.442065564591,25610.94870683208
5007.468106861089,25372.293884236882
5007.494148293015,25313.117219105094
5007.520189860371,24992.20782922246
5007.546231563156,25229.366145270862
5007.572273401372,25429.958324174306
5007.598315375018,25617.477162237978
5007.624357484096,25732.56161559048
5007.650399728607,26114.574031126172
5007.676442108551,26487.914965179923
5007.702484623929,26712.96644745141
5007.728527274741,26896.341707675005
5007.754570060989,27023.74846455747
5007.780612982673,27194.259619061508
5007.806656039793,27240.292661566033
5007.832699232351,27232.242850979797
5007.858742560347,27374.62261958121
5007.884786023782,27385.205987045072
5007.910829622656,27455.03166877617
5007.936873356971,27557.597972849555
5007.962917226726,27507.35647343245
5007.988961231923,27636.29079920532
5008.015005372563,27548.199259669178
5008.041049648646,27505.911029174993
5008.067094060171,27664.783315310804
5008.0931386071425,27693.232838463824
5008.119183289558,27684.86315263098
5008.14522810742,27560.559432827245
5008.171273060728,27337.2961979719
5008.197318149483,27439.29511363882
5008.223363373687,27599.505686698623
5008.249408733339,27334.50885837704
5008.27545422844,27283.246263222794
5008.301499858992,27293.403439227826
5008.327545624995,27141.69507136302
5008.353591526448,27101.81485482798
5008.379637563355,26788.332458281173
5008.405683735714,26475.610422147252
5008.431730043527,26471.280706740014
5008.457776486794,26340.061942984037
5008.483823065515,26517.11291133404
5008.509869779693,26738.135610806195
5008.535916629327,26775.27559564668
5008.561963614418,26978.81837681397
5008.588010734968,27091.30659094679
5008.614057990975,27101.893074854055
5008.640105382442,27267.560732748887
5008.666152909369,27573.21930118277
5008.692200571756,27384.7028541484
5008.718248369605,27369.352919623314
5008.744296302916,27282.547827691607
5008.77034437169,27483.23186578146
5008.796392575927,27446.749568616746
5008.822440915628,27405.828686513396
5008.848489390794,27457.104468646176
5008.874538001426,27365.39928689533
5008.900586747524,27449.073115418567
5008.926635629089,27577.31999724871
5008.952684646122,27559.00137679572
5008.978733798623,27556.774066303497
5009.004783086593,27541.395428022737
5009.030832510033,27512.71338933017
5009.056882068944,27605.914794235432
5009.082931763326,27677.558283378363
5009.108981593179,27541.861832281775
5009.135031558506,27463.553677386604
5009.161081659306,27425.6052869937
5009.187131895579,27315.865047582774
5009.213182267327,27282.808655928064
5009.239232774552,26946.448672965726
5009.265283417251,27136.191417681104
5009.291334195428,26824.572461448402
5009.317385109083,26849.728472415904
5009.343436158216,26962.542343911962
5009.369487342828,26554.087153970286
5009.395538662919,26396.809027360418
5009.421590118491,26181.291931968823
5009.447641709544,26038.188213946607
5009.473693436078,26145.424819228872
5009.499745298095,26052.332023297862
5009.525797295596,26163.991386569163
5009.55184942858,26174.01592209891
5009.577901697049,26011.8196998821
5009.603954101003,25833.25076627664
5009.630006640443,25576.984294128964
5009.65605931537,25423.996388201143
5009.682112125784,25119.99204352046
5009.708165071686,24667.056955767428
5009.7342181530785,24199.36550673391
5009.760271369959,23437.940321496342
5009.78632472233,22766.69071740333
5009.812378210192,22247.438273210777
5009.838431833546,21639.481668855708
5009.864485592391,21103.203658565602
5009.890539486731,20501.54376377372
5009.916593516564,19866.757794642726
5009.942647681891,19142.43791543111
5009.968701982713,18516.094670200895
5009.994756419032,18214.765344636235
5010.020810990847,18189.112580517845
5010.046865698159,18677.187895373565
5010.072920540969,19412.133978376303
5010.098975519279,20295.688179123616
5010.125030633087,21330.2274173655
5010.151085882395,22463.550079184588
5010.177141267204,23347.798986840357
5010.2031967875155,24224.25907888497
5010.229252443328,25067.042021643712
5010.255308234644,25575.201677709672
5010.281364161464,26119.644217841716
5010.307420223788,26568.721372803073
5010.333476421617,26726.486389709866
5010.359532754951,26936.17754008282
5010.3855892237925,27046.49939636567
5010.4116458281405,27068.17087514663
5010.437702567997,26894.836990950895
5010.463759443362,26979.32360586735
5010.489816454236,26922.29467059008
5010.51587360062,26806.227738434085
5010.541930882514,26581.605957672724
5010.56798829992,25984.64781853454
5010.5940458528385,25740.84773726948
5010.62010354127,25085.18520686002
5010.646161365214,24794.05325979649
5010.672219324672,24170.13376199325
5010.698277419646,23303.812432442584
5010.724335650135,22857.5588589236
5010.7503940161405,22849.798240688357
5010.7764525176635,23177.548651524892
5010.802511154703,23447.957319853493
5010.828569927262,23994.35793761131
5010.85462883534,24680.054753000793
5010.880687878937,25165.893030746225
5010.906747058056,25738.828278162953
5010.932806372695,26324.60322293733
5010.958865822856,26784.238695507196
5010.98492540854,27047.875675495343
5011.0109851297475,27068.778523519213
5011.0370449864795,27211.683551166705
5011.063104978735,27375.924572484146
5011.089165106517,27418.616632161218
5011.115225369825,27549.209783482955
5011.14128576866,27538.542531327977
5011.167346303022,27616.337696727685
5011.193406972913,27563.28525215982
5011.219467778333,27625.846892394646
5011.2455287192815,27415.76306155793
5011.271589795761,27307.844647716072
5011.297651007772,27144.33642624645
5011.323712355315,27117.161962104798
5011.34977383839,26968.742129436265
5011.375835456999,26518.268983272468
5011.401897211142,26357.142480794704
5011.427959100819,25762.300353343722
5011.454021126031,24980.357741023465
5011.4800832867795,24518.299792937607
5011.506145583065,23804.354589804287
5011.532208014888,22941.500521773727
5011.558270582248,22241.942192392384
5011.584333285148,21615.638961889013
5011.610396123588,20815.163709997232
5011.636459097567,20076.542661927244
5011.662522207088,19158.887369852553
5011.68858545215,18159.566749494883
5011.714648832754,17128.782216769527
5011.740712348902,15763.86820232608
5011.766776000594,14336.425331211807
5011.79283978783,13031.635422905214
5011.818903710611,11869.796793541458
5011.844967768939,10887.89125542361
5011.871031962813,10561.301931848073
5011.897096292234,10505.958069700982
5011.923160757203,10777.920454131867
5011.949225357721,11586.546293984902
5011.975290093788,12552.301701653741
5012.001354965406,13710.003774348022
5012.027419972574,15095.613280537931
5012.053485115294,16379.945388021699
5012.079550393566,17497.261846199195
5012.105615807392,18550.07044906164
5012.13168135677,19331.71504967023
5012.157747041703,19782.93287192848
5012.183812862192,20093.02191076364
5012.209878818236,20121.976992233467
5012.235944909837,19871.425503840277
5012.262011136994,20097.96946368738
5012.28807749971,20486.909460979965
5012.3141439979845,21031.000317291495
5012.340210631818,21685.02627994217
5012.366277401212,22279.24023493922
5012.392344306166,22767.805262618924
5012.418411346682,23095.678906971803
5012.44447852276,23144.043619399243
5012.470545834401,23130.855549452088
5012.496613281605,23386.373035841723
5012.522680864374,23813.58996303097
5012.548748582707,24100.294717503417
5012.574816436606,24401.25148792043
5012.600884426071,24929.544383030334
5012.626952551104,25395.012767296488
5012.653020811705,25741.691887161374
5012.679089207873,25925.714180910658
5012.705157739611,26372.038119691915
5012.73122640692,26448.873971747365
5012.757295209798,26316.778529362928
5012.7833641482475,26365.400095749217
5012.80943322227,26294.951268137225
5012.835502431864,26412.20344597886
5012.861571777033,26168.69468802217
5012.887641257775,25989.332780103683
5012.9137108740915,25349.206035725838
5012.939780625984,24957.688295017273
5012.965850513452,24663.9665863161
5012.991920536498,24012.811816461923
5013.017990695121,22966.45816295631
5013.044060989323,22209.28913668307
5013.070131419104,21066.82837658443
5013.096201984464,20195.92802926471
5013.122272685405,19714.924774671472
5013.148343521927,19454.04782591237
5013.17441449403,19500.761079364725
5013.200485601717,19595.174363299568
5013.226556844987,19785.555239983823
5013.2526282238405,19881.880135702795
5013.278699738279,19655.428452715576
5013.304771388303,19367.866302389873
5013.330843173913,18872.94038052861
5013.35691509511,18142.788143030568
5013.382987151894,17206.85679254971
5013.409059344267,16049.078875159623
5013.435131672228,15021.417067536953
5013.46120413578,14142.941343590905
5013.487276734921,13795.33037514106
5013.513349469653,13947.02251719234
5013.539422339977,14332.547989963887
5013.565495345894,15160.515518403707
5013.5915684874035,16297.1274905584
5013.617641764507,17498.345878279706
5013.643715177206,18552.486939770184
5013.6697887254995,19669.375773999367
5013.695862409389,20285.255725416584
5013.721936228875,21156.11762552222
5013.748010183958,21627.612108344612
5013.77408427464,22012.38581880918
5013.800158500921,22226.418444209896
5013.826232862801,22091.95702030776
5013.852307360281,21751.3957449966
5013.8783819933615,20929.096533629676
5013.904456762045,20125.681457572184
5013.930531666329,18935.767534246057
5013.956606706218,17607.176116204922
5013.982681881709,16660.880185050748
5014.008757192805,15583.079489179137
5014.034832639507,14879.823042714715
5014.060908221814,14779.832687897406
5014.086983939728,15050.84146987499
5014.113059793249,15755.099137519526
5014.139135782378,16910.93040679968
5014.165211907116,18324.53745672088
5014.1912881674625,19576.352462484763
