wave,flux
5000.025812696027,52487.69095921606
5000.051815424163,50525.530548871284
5000.0778182875265,48361.930094945026
5000.103821286119,46084.98762637755
5000.12982441994,43965.80295554208
5000.155827688991,42744.848665165795
5000.181831093272,42123.71553586236
5000.207834632784,42865.803280067055
5000.2338383075285,43912.95037243413
5000.259842117506,46069.666180815206
5000.285846062716,48469.36133489216
5000.311850143161,50423.91954252457
5000.33785435884,51887.14704728854
5000.363858709754,52978.84546748196
5000.389863195905,53751.14588707202
5000.415867817292,53769.083516279345
5000.441872573917,53239.64615232219
5000.4678774657805,52289.70477130786
5000.493882492882,50781.79456897227
5000.519887655224,49309.25733746611
5000.545892952806,48170.88689891572
5000.571898385629,47390.794284408206
5000.597903953694,47484.21159817625
5000.623909657001,48429.49434600656
5000.649915495552,49545.44158745713
5000.675921469346,50727.35896202153
5000.701927578384,52028.56110511488
5000.727933822669,52543.26322223812
5000.7539402021985,53140.93663561425
5000.779946716975,53750.854469026344
5000.805953366999,54050.94044096583
5000.831960152272,54668.631425573985
5000.857967072792,55630.01087479187
5000.883974128563,56521.85164582648
5000.9099813195835,57276.85136954953
5000.935988645855,57663.795059792275
5000.961996107378,57930.62681763682
5000.988003704153,58213.56452707631
5001.014011436181,58504.220979218066
5001.040019303464,58534.02331479662
5001.066027306,58574.16668809378
5001.092035443791,58325.38161654237
5001.118043716839,58348.8792820351
5001.1440521251425,57499.19645579151
5001.170060668704,56429.2724253875
5001.196069347523,55322.503090594175
5001.222078161601,53669.04550269213
5001.248087110937,51542.021169876876
5001.274096195534,49694.859760987725
5001.300105415392,48127.76026622388
5001.326114770512,47008.44568623943
5001.352124260892,47101.448779555874
5001.3781338865365,47142.02762210299
5001.4041436474445,47864.571658890774
5001.430153543616,47990.728417579645
5001.456163575053,47784.4008889667
5001.482173741756,46697.55208337277
5001.508184043724,45306.98050512371
5001.534194480961,43213.60712557828
5001.560205053464,40816.390092582085
5001.586215761236,37928.69203522156
5001.612226604278,34882.58735130226
5001.638237582589,32216.224209168788
5001.664248696171,30243.470018726788
5001.690259945024,29350.95227940647
5001.716271329149,29677.259097896425
5001.742282848547,31148.021328318966
5001.768294503218,33720.31959584007
5001.794306293164,36884.64409348589
5001.820318218383,40322.857658981935
5001.84633027888,43568.40397027073
5001.872342474651,47372.824156702074
5001.8983548056995,50452.80473261895
5001.924367272026,53138.900112495205
5001.9503798736305,55870.703322160756
5001.976392610514,57928.45123633911
5002.002405482678,59391.842988474215
5002.028418490122,60537.3768891074
5002.054431632847,61413.89377618688
5002.080444910854,61849.130799050494
5002.106458324142,62191.276407387806
5002.1324718727155,62384.73249152267
5002.158485556572,62114.981610741415
5002.184499375713,62031.20041456813
5002.210513330139,61758.7466642502
5002.236527419852,61198.21645883966
5002.262541644852,60221.996881303996
5002.288556005138,60367.74063759763
5002.314570500714,59620.30844277671
5002.340585131577,59037.4723731449
5002.36659989773,58173.657264245485
5002.392614799174,57134.68326682102
5002.418629835909,56239.36714344706
5002.444645007936,54788.17860318488
5002.4706603152545,53429.92501204768
5002.496675757866,51975.74329390724
5002.522691335772,49968.64529537163
5002.548707048972,47848.13916938328
5002.574722897468,45827.99473513073
5002.600738881259,44206.5943557113
5002.626755000347,43491.02368517145
5002.652771254732,44269.22610729509
5002.678787644415,45904.786488479716
5002.704804169397,48607.49821383011
5002.730820829678,51186.97513329232
5002.75683762526,53833.386430212646
5002.782854556142,55950.29106217449
5002.8088716223265,57712.63803294077
5002.834888823812,58942.54353759538
5002.860906160601,60051.253349911814
5002.886923632695,60983.99573991754
5002.912941240092,61597.66684509904
5002.938958982793,62199.88445635745
5002.9649768608015,62787.519260433044
5002.990994874116,63145.44108752447
5003.017013022737,63106.1886056313
5003.043031306666,62913.850275913035
5003.069049725905,63219.77842380683
5003.095068280452,63112.9510246044
5003.121086970309,62937.70932497217
5003.147105795477,62849.86996378136
5003.173124755956,63276.575899936775
5003.199143851748,62860.67111852278
5003.225163082852,62525.178845311944
5003.251182449269,62556.284798223314
5003.277201951001,62342.47092855158
5003.3032215880485,62197.68153728033
5003.32924136041,62081.16512050307
5003.35526126809,61986.63321952919
5003.381281311085,61825.10020003724
5003.407301489398,61498.26347671067
5003.433321803031,60752.27804187034
5003.459342251982,59892.71369004534
5003.4853628362525,59474.9520899392
5003.511383555844,58657.67664567309
5003.537404410757,57756.47323563073
5003.563425400991,57005.63122903148
5003.589446526548,56667.131651230724
5003.615467787429,56471.32498883221
5003.641489183634,57002.25368264412
5003.667510715163,56952.16700613919
5003.693532382018,56851.524970323386
5003.719554184199,56791.33786737071
5003.745576121707,56299.95746584418
5003.771598194542,55544.879674220814
5003.797620402706,54503.19849969311
5003.823642746199,53412.21376916107
5003.849665225021,52433.50842821725
5003.875687839174,51998.05114393931
5003.901710588658,52346.98939816158
5003.927733473473,53023.71614593173
5003.953756493622,54114.17784709804
5003.979779649103,55183.26323849087
5004.005802939919,55756.069396397594
5004.031826366068,56648.837472343206
5004.057849927553,57357.432837151755
5004.083873624375,58000.214150655636
5004.109897456533,58743.6502057614
5004.135921424028,59092.6842684882
5004.161945526862,59458.34806776879
5004.187969765035,59687.17799170915
5004.213994138547,60027.456970144514
5004.240018647399,60583.84231648034
5004.266043291592,61110.35912031305
5004.292068071127,61408.56742915381
5004.318092986004,61832.566008704925
5004.344118036223,62458.29728103781
5004.370143221788,62714.248702565674
5004.396168542696,62807.08522720794
5004.422193998949,63182.266581434975
5004.448219590549,63202.073235359974
5004.474245317495,63048.88990809974
5004.500271179789,62884.504664407374
5004.52629717743,62905.7163790016
5004.5523233104195,62718.10320303755
5004.578349578759,62309.55797088608
5004.604375982449,61411.583425616554
5004.630402521489,60712.176117029776
5004.656429195881,59944.546487686894
5004.682456005625,59180.9210387057
5004.708482950721,58340.297418790455
5004.734510031172,57718.98410080101
5004.760537246977,57270.41206043704
5004.7865645981365,56472.46683907958
5004.812592084652,55082.6090923385
5004.838619706525,53448.6702038104
5004.8646474637535,51728.90088703352
5004.890675356341,49452.94409801944
5004.916703384286,46850.9944084066
5004.942731547591,44601.47713679497
5004.968759846256,42574.35613571513
5004.994788280281,41094.393882033786
5005.020816849668,41336.4707769433
5005.046845554417,42948.75325780618
5005.072874394528,44966.67969794713
5005.098903370003,47357.36249248588
5005.124932480842,49297.054621825264
5005.150961727047,50857.46406324006
5005.176991108617,52074.22221826229
5005.203020625552,52723.544077491635
5005.229050277856,52823.243967277456
5005.255080065526,52736.6206751628
5005.281109988566,52311.048672586825
5005.3071400469735,51399.00843459658
5005.333170240751,49912.87286103208
5005.3592005699,47792.38981938365
5005.38523103442,45536.05252653182
5005.411261634312,42898.488453810634
5005.4372923695755,39819.480525501516
5005.463323240213,36532.10791786859
5005.489354246225,33709.09371785854
5005.515385387611,31202.045067696297
5005.541416664373,29851.613576628573
5005.567448076511,29569.259819405015
5005.593479624025,30198.683661640953
5005.619511306918,31479.958157945202
5005.645543125189,32728.30266063949
5005.671575078838,33974.03527859178
5005.697607167867,35130.258639187974
5005.723639392277,35793.30731524597
5005.749671752068,35751.02979788913
5005.77570424724,34981.34982843226
5005.8017368777955,33534.53183515628
5005.8277696437335,31575.922007974998
5005.853802545055,29376.61941911815
5005.879835581762,27181.924754301228
5005.905868753854,25393.696232893013
5005.931902061331,24551.336421719927
5005.957935504196,24508.67233646825
5005.983969082448,26019.611996901123
5006.010002796088,28210.13219735948
5006.036036645117,31308.37880843986
5006.062070629536,34718.75962847538
5006.088104749344,38309.139058440756
5006.114139004544,41833.89217450545
5006.140173395135,45651.61030588621
5006.166207921118,49292.3669064998
5006.192242582495,52351.881907553856
5006.218277379266,55023.38838648464
5006.244312311431,57134.22655576319
5006.270347378991,58775.317986483176
5006.296382581946,60072.42213785737
5006.322417920299,60831.658426484035
5006.348453394048,61149.300018566486
5006.374489003196,61269.350046300104
5006.400524747743,61442.22412899668
5006.426560627688,61751.83621900313
5006.452596643034,61712.85708473635
5006.47863279378,61399.53138656386
5006.504669079928,61350.23998460032
5006.530705501478,61438.16636117084
5006.556742058431,60997.473599731544
5006.582778750788,60784.73150188978
5006.608815578549,60960.21848876214
5006.634852541715,60471.06887420481
5006.660889640287,59677.69099818901
5006.686926874265,58836.055881677086
5006.71296424365,57776.85480831463
5006.739001748444,56840.4314302206
5006.765039388645,55556.94392231898
5006.791077164256,54184.61236980652
5006.817115075277,52891.77220497378
5006.843153121708,51256.53296312716
5006.869191303552,49261.02910166767
5006.895229620806,46743.93902947812
5006.921268073474,43707.30586432604
5006.947306661555,40417.0308211963
5006.97334538505,36835.94128874919
5006.999384243961,33532.57869401077
5007.025423238286,31025.42036244805
5007.051462368028,29349.959479406545
5007.077501633187,28840.254984378713
5007.103541033764,29568.70022546562
5007.129580569759,31638.94129312759
5007.155620241173,34410.1279352769
5007.181660048007,37704.03637532554
5007.207699990262,41158.73971192199
5007.233740067937,44761.59667585275
5007.259780281035,48197.008636746206
5007.285820629555,51202.289310335684
5007.311861113499,54107.26686630793
5007.337901732866,56048.45849798535
5007.363942487658,57676.86872696398
5007.389983377876,59309.204912901834
5007.41602440352,60070.1388032532
5007.442065564591,60199.54281675198
5007.468106861089,59874.90129285574
5007.494148293015,59586.764383295296
5007.520189860371,59163.380378277325
5007.546231563156,58964.44643322485
5007.572273401372,59228.03360487847
5007.598315375018,59281.945205149845
5007.624357484096,59923.85446783055
5007.650399728607,60657.345871645215
5007.676442108551,61668.993327283024
5007.702484623929,62518.561110024515
5007.728527274741,63026.59291476402
5007.754570060989,63354.03011164334
5007.780612982673,63896.024273071635
5007.806656039793,63942.38135924443
5007.832699232351,63965.3988026907
5007.858742560347,63963.06227894991
5007.884786023782,64316.985378300036
5007.910829622656,64571.2914321992
5007.936873356971,64520.37395911979
5007.962917226726,64542.76934970469
5007.988961231923,64610.68246905123
5008.015005372563,64817.816734164946
5008.041049648646,64839.08550053043
5008.067094060171,64682.50615918784
5008.0931386071425,64844.66792131191
5008.119183289558,65176.60371736251
5008.14522810742,64762.58465139256
5008.171273060728,64924.6031526099
5008.197318149483,65018.793924384154
5008.223363373687,64988.48501133953
5008.249408733339,65085.973838207596
5008.27545422844,64639.21257357878
5008.301499858992,64327.79523199495
5008.327545624995,63881.25439975428
5008.353591526448,63678.71498453523
5008.379637563355,63193.955437013
5008.405683735714,62592.096306831365
5008.431730043527,62368.99948578611
5008.457776486794,62038.58017503548
5008.483823065515,61973.92190354152
5008.509869779693,62345.315429075396
5008.535916629327,62727.44975766308
5008.561963614418,63046.81512855232
5008.588010734968,63379.69283292812
5008.614057990975,63625.6254143255
5008.640105382442,63752.677128090385
5008.666152909369,64247.00736744704
5008.692200571756,64414.62235910099
5008.718248369605,64254.77585490716
5008.744296302916,64326.78272391659
5008.77034437169,64409.723496599945
5008.796392575927,64498.629097488374
5008.822440915628,64659.23083238713
5008.848489390794,64647.0374665954
5008.874538001426,64246.829049846296
5008.900586747524,64499.632614768845
5008.926635629089,64846.304931557126
5008.952684646122,64705.389514980016
5008.978733798623,64616.778021743885
5009.004783086593,64713.497937387896
5009.030832510033,64821.9450209697
5009.056882068944,64937.373352794675
5009.082931763326,64724.378264121166
5009.108981593179,64481.335294423996
5009.135031558506,64598.5780130771
5009.161081659306,64706.39264755806
5009.187131895579,64676.87786740797
5009.213182267327,64311.71652614283
5009.239232774552,63752.35372416906
5009.265283417251,63743.98718746369
5009.291334195428,63537.475849549606
5009.317385109083,63169.752501120085
5009.343436158216,62977.86240944453
5009.369487342828,62522.538142620324
5009.395538662919,62425.901561622835
5009.421590118491,61916.910151981276
5009.447641709544,61643.685989860904
5009.473693436078,61560.189825911235
5009.499745298095,61323.68774690415
5009.525797295596,61455.84244064265
5009.55184942858,61530.108707757114
5009.577901697049,61396.166327483625
5009.603954101003,61434.74705644714
5009.630006640443,60899.44451574031
5009.65605931537,60464.24739771417
5009.682112125784,59679.27999712405
5009.708165071686,58650.66866209173
5009.7342181530785,57667.99352510097
5009.760271369959,56503.340625646975
5009.78632472233,55107.699844664145
5009.812378210192,53357.05486451993
5009.838431833546,51652.765489334444
5009.864485592391,50227.401316665586
5009.890539486731,48738.402567785124
5009.916593516564,47476.74774849237
5009.942647681891,46309.99216300569
5009.968701982713,45051.031482476894
5009.994756419032,43468.967087346595
5010.020810990847,42379.08373636079
5010.046865698159,42114.538705829626
5010.072920540969,43198.088800208774
5010.098975519279,45385.29024857508
5010.125030633087,47508.96888002788
5010.151085882395,50383.67273524224
5010.177141267204,52915.03857857026
5010.2031967875155,55540.1443672398
5010.229252443328,57576.923862635136
5010.255308234644,59283.74771473893
5010.281364161464,60819.95850974506
5010.307420223788,61878.986510391514
5010.333476421617,62472.92992910366
5010.359532754951,63336.3342029479
5010.3855892237925,63747.891566516744
5010.4116458281405,63809.50106734155
5010.437702567997,63839.38712340716
5010.463759443362,63570.63579465867
5010.489816454236,63217.42619453582
5010.51587360062,62984.031171621085
5010.541930882514,62909.03171304398
5010.56798829992,62233.32057472031
5010.5940458528385,61079.2852372037
5010.62010354127,60148.14782092593
5010.646161365214,58770.48945774289
5010.672219324672,57284.58880895545
5010.698277419646,55430.64940529911
5010.724335650135,54206.95828999203
5010.7503940161405,53136.479917314624
5010.7764525176635,52891.60167675688
5010.802511154703,53731.90975953586
5010.828569927262,54895.12083550685
5010.85462883534,56303.097901515095
5010.880687878937,58349.258746686886
5010.906747058056,59888.03496439018
5010.932806372695,61010.110142508376
5010.958865822856,61940.94429862747
5010.98492540854,62391.58301386671
5011.0109851297475,63059.1045553882
5011.0370449864795,63933.90944304286
5011.063104978735,64190.12798961262
5011.089165106517,64271.52881062631
5011.115225369825,64331.79591460727
5011.14128576866,64592.21137840748
5011.167346303022,64798.48545676178
5011.193406972913,64716.388292546566
5011.219467778333,64741.65381560869
5011.2455287192815,64591.44008174463
5011.271589795761,64465.765150306004
5011.297651007772,64295.05729575643
5011.323712355315,64097.25650526492
5011.34977383839,63484.939247839364
5011.375835456999,63259.70100266451
5011.401897211142,62491.61985475265
5011.427959100819,61495.05639310315
5011.454021126031,60418.36723999736
5011.4800832867795,58999.613981083334
5011.506145583065,57226.26151416257
5011.532208014888,55614.60406198389
5011.558270582248,53737.36499195132
5011.584333285148,52064.147187442875
5011.610396123588,50304.96846816197
5011.636459097567,48916.15656102903
5011.662522207088,47335.579648245075
5011.68858545215,45091.47256384549
5011.714648832754,42536.41537497715
5011.740712348902,39481.39560053447
5011.766776000594,36396.58503721818
5011.79283978783,33144.29369039421
5011.818903710611,29732.165366437363
5011.844967768939,26870.568081762856
5011.871031962813,24683.308914317964
5011.897096292234,23571.30302845666
5011.923160757203,23630.387265456488
5011.949225357721,24655.481902009396
5011.975290093788,26672.68507152173
5012.001354965406,29384.11550037558
5012.027419972574,32605.56319104269
5012.053485115294,35697.18879896371
5012.079550393566,38866.273779891635
5012.105615807392,41718.84682016939
5012.13168135677,43964.06297278652
5012.157747041703,45316.37737988644
5012.183812862192,46251.78857546513
5012.209878818236,46549.40908779173
5012.235944909837,46529.30042631494
5012.262011136994,46591.80016626947
5012.28807749971,46508.95406245944
5012.3141439979845,47825.4846341292
5012.340210631818,49288.40027046101
5012.366277401212,51138.52204549202
5012.392344306166,52511.50755019496
5012.418411346682,53671.34644284398
5012.44447852276,53953.73742120772
5012.470545834401,53892.07715979459
5012.496613281605,54008.250482564996
5012.522680864374,54291.71142777449
5012.548748582707,54929.63106607646
5012.574816436606,56145.34209403632
5012.600884426071,57597.31613696596
5012.626952551104,58848.82761600255
5012.653020811705,59885.285359464884
5012.679089207873,60911.00109349622
5012.705157739611,61470.7801925302
5012.73122640692,61653.97652909785
5012.757295209798,61880.49245040261
5012.7833641482475,62077.57899314013
5012.80943322227,62279.32231743417
5012.835502431864,62193.218095930424
5012.861571777033,61952.5320072028
5012.887641257775,61380.92233167817
5012.9137108740915,60958.24944001977
5012.939780625984,60148.857821640086
5012.965850513452,58979.38755620944
5012.991920536498,57635.33483320154
5013.017990695121,55882.74439891296
5013.044060989323,53398.63121684383
5013.070131419104,51319.145892089284
5013.096201984464,48830.56783991316
5013.122272685405,46660.239854220636
5013.148343521927,45190.98444698181
5013.17441449403,44980.34177643302
5013.200485601717,45249.88216370671
5013.226556844987,46207.89483773431
5013.2526282238405,46572.64631137685
5013.278699738279,46979.052549042084
5013.304771388303,46987.8030251028
5013.330843173913,46139.26943426306
5013.35691509511,44472.02727427331
5013.382987151894,42280.47594461556
5013.409059344267,40132.36300286847
5013.435131672228,37444.01115762859
5013.46120413578,34651.65034031864
5013.487276734921,32593.03167145821
5013.513349469653,31554.62118438018
5013.539422339977,31887.636382210174
5013.565495345894,33351.575020024335
5013.5915684874035,35586.301846669216
5013.617641764507,38368.51914623607
5013.643715177206,41161.780713571134
5013.6697887254995,43826.54753817116
5013.695862409389,46273.621977867486
5013.721936228875,48266.6062927373
5013.748010183958,49863.528688169245
5013.77408427464,51107.768231247624
5013.800158500921,52277.974825833
5013.826232862801,52525.16992993219
5013.852307360281,52192.55329793316
5013.8783819933615,51148.642225979216
5013.904456762045,49393.060231187046
5013.930531666329,46849.33454834151
5013.956606706218,43867.41598190886
5013.982681881709,40364.339444206635
5014.008757192805,37487.28717870493
5014.034832639507,35057.98611063499
5014.060908221814,33369.5004789363
5014.086983939728,33381.45810198734
5014.113059793249,34636.61735840907
5014.139135782378,36828.47272635589
5014.165211907116,39596.21949519939
5014.1912881674625,42851.78626505841
5014.21736456342,46258.13268909278
5014.243441094988,49360.2681258078
5014.269517762167,52061.522873363974
5014.295594564959,54023.132365502206
5014.321671503363,55620.472156186006
5014.347748577381,56279.1883475759
