wave,flux
5000.025812696027,40507.523881897476
5000.051815424163,38611.06388723246
5000.0778182875265,36524.473478103675
5000.103821286119,35038.103155164856
5000.12982441994,34276.48657957648
5000.155827688991,34309.695747905396
5000.181831093272,35271.88374446673
5000.207834632784,36819.8097616107
5000.2338383075285,38562.41469295408
5000.259842117506,40436.31677348181
5000.285846062716,42229.027233817535
5000.311850143161,43251.728527759115
5000.33785435884,44120.72225116727
5000.363858709754,44190.59855296729
5000.389863195905,44184.78839256549
5000.415867817292,43362.34348518973
5000.441872573917,42130.298663011214
5000.4678774657805,40556.85183948493
5000.493882492882,39058.16034260868
5000.519887655224,38442.86658638465
5000.545892952806,38522.71861590306
5000.571898385629,38926.70062892692
5000.597903953694,39838.55824000575
5000.623909657001,40938.852752650426
5000.649915495552,41465.77284230655
5000.675921469346,42542.45469808009
5000.701927578384,43347.85715825908
5000.727933822669,43444.206427444224
5000.7539402021985,44022.811034083854
5000.779946716975,44615.10395811767
5000.805953366999,45411.28440187833
5000.831960152272,46113.79949580528
5000.857967072792,46548.89332641396
5000.883974128563,46926.06573495073
5000.9099813195835,47264.305785179786
5000.935988645855,47715.98606837632
5000.961996107378,48142.04576135356
5000.988003704153,48152.98667670607
5001.014011436181,48169.80892776569
5001.040019303464,48026.51497118328
5001.066027306,47960.91810777949
5001.092035443791,47381.21827663293
5001.118043716839,46967.1753817774
5001.1440521251425,45962.73059398141
5001.170060668704,44499.62419180251
5001.196069347523,43009.44381612951
5001.222078161601,41214.06807191118
5001.248087110937,39513.08129178668
5001.274096195534,38905.72204003164
5001.300105415392,38695.52783646839
5001.326114770512,38663.903733681094
5001.352124260892,39146.30964076666
5001.3781338865365,39378.43609251387
5001.4041436474445,39362.893959032815
5001.430153543616,39118.19839602543
5001.456163575053,38118.5425908427
5001.482173741756,36631.01095418636
5001.508184043724,34616.0061879817
5001.534194480961,32502.13045194993
5001.560205053464,29949.91778432744
5001.586215761236,27414.06539588876
5001.612226604278,24947.467610913223
5001.638237582589,23704.64323544686
5001.664248696171,23614.268546807278
5001.690259945024,24366.15738613297
5001.716271329149,25998.549972852703
5001.742282848547,28519.656594679123
5001.768294503218,31504.25424904355
5001.794306293164,34366.95927036707
5001.820318218383,37234.869848895694
5001.84633027888,40146.62809316051
5001.872342474651,42722.21608672091
5001.8983548056995,45214.77746308927
5001.924367272026,46437.82627183418
5001.9503798736305,48656.00739954294
5001.976392610514,49266.58376516951
5002.002405482678,49854.24038694788
5002.028418490122,50735.61374390413
5002.054431632847,50942.32299551743
5002.080444910854,51003.371726820435
5002.106458324142,51109.01510228181
5002.1324718727155,51061.146598862506
5002.158485556572,50742.74511208552
5002.184499375713,50088.35370093551
5002.210513330139,49690.19251450305
5002.236527419852,49577.28191720199
5002.262541644852,48942.01817442008
5002.288556005138,48589.57250559504
5002.314570500714,48097.951962661995
5002.340585131577,47180.477431296444
5002.36659989773,46784.5704028714
5002.392614799174,45633.07870260085
5002.418629835909,44658.92629374455
5002.444645007936,43526.00090719835
5002.4706603152545,41899.87600208801
5002.496675757866,39860.49401096804
5002.522691335772,37749.89795254494
5002.548707048972,36126.74121141601
5002.574722897468,35442.17278141157
5002.600738881259,35616.026647355284
5002.626755000347,36642.92061705984
5002.652771254732,38599.1608555191
5002.678787644415,40857.19525473118
5002.704804169397,42949.436842345036
5002.730820829678,44821.17898964723
5002.75683762526,46489.64050108549
5002.782854556142,47785.49322868015
5002.8088716223265,49058.00153465205
5002.834888823812,49871.63911760238
5002.860906160601,50530.343096282035
5002.886923632695,50886.611722211834
5002.912941240092,51272.8583701875
5002.938958982793,51360.80544261097
5002.9649768608015,51375.57463258136
5002.990994874116,51593.71209448335
5003.017013022737,51542.35930188638
5003.043031306666,51454.71252326634
5003.069049725905,51593.3430195941
5003.095068280452,51472.80501715742
5003.121086970309,51440.09206552759
5003.147105795477,51377.853672792844
5003.173124755956,50917.54135160771
5003.199143851748,50847.816187360106
5003.225163082852,50742.68510922372
5003.251182449269,50623.56847432327
5003.277201951001,50715.71822545458
5003.3032215880485,50764.450306344785
5003.32924136041,50641.11264520588
5003.35526126809,50589.91305376199
5003.381281311085,50216.18985085329
5003.407301489398,49481.37898594705
5003.433321803031,48960.86443249865
5003.459342251982,48117.01772294461
5003.4853628362525,47126.913417959506
5003.511383555844,46674.94856793398
5003.537404410757,46361.90515263216
5003.563425400991,46369.803560278786
5003.589446526548,46484.032892384326
5003.615467787429,46677.955257134556
5003.641489183634,46715.82049619177
5003.667510715163,46698.18926336499
5003.693532382018,46686.554729651456
5003.719554184199,46118.603141592124
5003.745576121707,45264.5492958608
5003.771598194542,44063.709708510774
5003.797620402706,42944.79439357327
5003.823642746199,42276.4726239809
5003.849665225021,42280.349233741785
5003.875687839174,42810.32579579155
5003.901710588658,43657.05413799611
5003.927733473473,44626.861967709694
5003.953756493622,45330.500818624205
5003.979779649103,45932.767994780246
5004.005802939919,46774.79077015324
5004.031826366068,47320.71275028781
5004.057849927553,47683.0809211901
5004.083873624375,48182.86390391284
5004.109897456533,48451.21384788488
5004.135921424028,48782.98277388463
5004.161945526862,48759.539383038755
5004.187969765035,49054.64674388246
5004.213994138547,49573.47100540819
5004.240018647399,50315.33935436771
5004.266043291592,50336.07003994221
5004.292068071127,50723.27888849619
5004.318092986004,51283.558913387395
5004.344118036223,51426.7003379551
5004.370143221788,51422.57963098134
5004.396168542696,51487.700156080304
5004.422193998949,51689.552868113016
5004.448219590549,51776.8467675803
5004.474245317495,51532.73008088657
5004.500271179789,51467.491128407455
5004.52629717743,51342.500670386
5004.5523233104195,50738.46488116713
5004.578349578759,50397.575422244896
5004.604375982449,49432.66448618308
5004.630402521489,48698.21955394503
5004.656429195881,48487.501267810294
5004.682456005625,47767.61247737339
5004.708482950721,47256.353317067194
5004.734510031172,46625.14678292568
5004.760537246977,45624.80728332245
5004.7865645981365,44635.26499532827
5004.812592084652,43314.62940271477
5004.838619706525,41454.075301538156
5004.8646474637535,39312.0479201994
5004.890675356341,36940.307830636746
5004.916703384286,34689.61709092295
5004.942731547591,33312.31256525744
5004.968759846256,33205.973382273536
5004.994788280281,34141.15150483718
5005.020816849668,35527.211761963095
5005.046845554417,37685.592598437484
5005.072874394528,39617.45904316523
5005.098903370003,41412.848199234606
5005.124932480842,42450.52014041032
5005.150961727047,43269.40478479765
5005.176991108617,43823.811063152505
5005.203020625552,43889.28924624191
5005.229050277856,43710.70046825274
5005.255080065526,43235.00110622363
5005.281109988566,42183.95003515525
5005.3071400469735,40663.50434233341
5005.333170240751,38843.63738831086
5005.3592005699,36610.41052758733
5005.38523103442,33929.78830848804
5005.411261634312,31195.894689585923
5005.4372923695755,28654.62210197054
5005.463323240213,26288.092339454466
5005.489354246225,24673.69125797955
5005.515385387611,24077.46331021909
5005.541416664373,24342.06380220794
5005.567448076511,25283.79442141099
5005.593479624025,26692.481937595796
5005.619511306918,27860.54259257608
5005.645543125189,28981.29767541699
5005.671575078838,29931.69261702097
5005.697607167867,30023.602950870692
5005.723639392277,29523.510720381088
5005.749671752068,28658.119024894422
5005.77570424724,27187.26743678364
5005.8017368777955,25175.185829558668
5005.8277696437335,22982.342042220018
5005.853802545055,21224.4289756444
5005.879835581762,20063.24725953107
5005.905868753854,19595.048053187347
5005.931902061331,20260.486386546963
5005.957935504196,21827.68200042062
5005.983969082448,24086.640188146397
5006.010002796088,26922.937610621495
5006.036036645117,29929.979234453105
5006.062070629536,33252.69908134432
5006.088104749344,36228.68230366522
5006.114139004544,39509.4909107236
5006.140173395135,42285.27214732282
5006.166207921118,44698.90896308659
5006.192242582495,46372.50815487618
5006.218277379266,47927.59132416502
5006.244312311431,49112.58812772263
5006.270347378991,49588.31354509691
5006.296382581946,49950.60869502533
5006.322417920299,50215.680923835105
5006.348453394048,50200.39780554899
5006.374489003196,50323.476260027244
5006.400524747743,50431.904579987604
5006.426560627688,50286.04805995293
5006.452596643034,50344.04436445645
5006.47863279378,50374.00191460959
5006.504669079928,50248.74718719967
5006.530705501478,50581.24964906529
5006.556742058431,50309.75912200121
5006.582778750788,49749.55132116608
5006.608815578549,49349.75407193043
5006.634852541715,48644.50218012559
5006.660889640287,47949.94095484244
5006.686926874265,47447.72768077521
5006.71296424365,46356.54533434951
5006.739001748444,45506.20161598789
5006.765039388645,44613.61778713828
5006.791077164256,43251.91766354459
5006.817115075277,41475.03955624742
5006.843153121708,39587.39014918661
5006.869191303552,37321.317393451136
5006.895229620806,34778.61980091136
5006.921268073474,31778.903664809444
5006.947306661555,28580.103461654977
5006.97334538505,26061.220634372276
5006.999384243961,24089.225868175254
5007.025423238286,23082.09618872547
5007.051462368028,23326.04708915029
5007.077501633187,24575.31478951858
5007.103541033764,26756.64418392352
5007.129580569759,29186.615793207424
5007.155620241173,32492.710853627166
5007.181660048007,35519.40915819936
5007.207699990262,38425.892928435904
5007.233740067937,41179.184144846535
5007.259780281035,43457.60445081037
5007.285820629555,45527.40670456237
5007.311861113499,47002.01730231743
5007.337901732866,48389.709437425605
5007.363942487658,49127.72088049277
5007.389983377876,49337.12787976993
5007.41602440352,49197.651123126874
5007.442065564591,48828.56913339131
5007.468106861089,48444.770296958355
5007.494148293015,48143.77660813611
5007.520189860371,48038.88007246308
5007.546231563156,48205.54436214717
5007.572273401372,48754.05207774759
5007.598315375018,49484.701896794686
5007.624357484096,50478.145095664215
5007.650399728607,50703.78743412438
5007.676442108551,51570.538687041466
5007.702484623929,51611.85869545426
5007.728527274741,51918.07759121282
5007.754570060989,52166.57358507581
5007.780612982673,52157.32636646718
5007.806656039793,52320.672968966675
5007.832699232351,52420.690112072974
5007.858742560347,52610.81537366512
5007.884786023782,52632.098462288086
5007.910829622656,52665.455165253086
5007.936873356971,52602.199791324674
5007.962917226726,52775.59958579068
5007.988961231923,53062.92815194854
5008.015005372563,53042.97750222182
5008.041049648646,53006.960282699656
5008.067094060171,53131.544444482664
5008.0931386071425,53141.15085755004
5008.119183289558,53041.792028015574
5008.14522810742,53125.85814582761
5008.171273060728,53261.88436787224
5008.197318149483,53013.815335219144
5008.223363373687,52908.07730855343
5008.249408733339,52821.43640060939
5008.27545422844,52533.6177483274
5008.301499858992,52273.62313336195
5008.327545624995,51920.264459939564
5008.353591526448,51438.71936409721
5008.379637563355,51011.23426937729
5008.405683735714,50534.43002290784
5008.431730043527,50440.8062666052
5008.457776486794,50893.37788336244
5008.483823065515,51110.00452818868
5008.509869779693,51546.8865992447
5008.535916629327,51749.41064994
5008.561963614418,51975.07337150002
5008.588010734968,52290.476187860324
5008.614057990975,52475.44257161578
5008.640105382442,52579.63089255424
5008.666152909369,52555.53183158321
5008.692200571756,52600.06526378786
5008.718248369605,52524.96650697065
5008.744296302916,52485.0388820082
5008.77034437169,52738.35968383914
5008.796392575927,52740.13246747724
5008.822440915628,52677.06586948771
5008.848489390794,52755.508416209115
5008.874538001426,53030.53037204736
5008.900586747524,52891.181187670554
5008.926635629089,52928.76803884949
5008.952684646122,52875.78317612898
5008.978733798623,52879.78135675792
5009.004783086593,53093.643670815865
5009.030832510033,52827.253829530215
5009.056882068944,52880.75812807736
5009.082931763326,53076.322342891304
5009.108981593179,53071.13917126741
5009.135031558506,52972.1970575029
5009.161081659306,52640.54290654568
5009.187131895579,52389.23218522735
5009.213182267327,52157.848558568476
5009.239232774552,51955.28501459333
5009.265283417251,51932.443867631824
5009.291334195428,51826.29158089049
5009.317385109083,51677.30655363684
5009.343436158216,51361.38920218292
5009.369487342828,50815.438919950866
5009.395538662919,50410.58567695307
5009.421590118491,50382.72700508935
5009.447641709544,49947.07156347785
5009.473693436078,50154.975408473496
5009.499745298095,50352.00178011723
5009.525797295596,50387.039521786304
5009.55184942858,50734.34582591065
5009.577901697049,50343.13941837326
5009.603954101003,49926.17746773899
5009.630006640443,49499.377906833484
5009.65605931537,48900.23973173613
5009.682112125784,48033.02632308789
5009.708165071686,47083.98302990459
5009.7342181530785,46200.9041286342
5009.760271369959,44586.01182200311
5009.78632472233,42998.65940258955
5009.812378210192,41700.42210612599
5009.838431833546,40755.89602804337
5009.864485592391,39745.2800885175
5009.890539486731,38382.541996158405
5009.916593516564,37030.91202001501
5009.942647681891,35633.39510719989
5009.968701982713,34406.56945699564
5009.994756419032,33816.506691065035
5010.020810990847,34545.79275927068
5010.046865698159,35947.53304542504
5010.072920540969,37706.08197521826
5010.098975519279,39798.23284091768
5010.125030633087,42170.548075209415
5010.151085882395,44456.69928013417
5010.177141267204,46162.39320941548
5010.2031967875155,48022.32871279424
5010.229252443328,49074.1972820981
5010.255308234644,50271.64342828772
5010.281364161464,51130.21979985977
5010.307420223788,51715.31722221838
5010.333476421617,52014.768401490044
5010.359532754951,52098.65230393871
5010.3855892237925,52154.566857237165
5010.4116458281405,52218.75308118816
5010.437702567997,52209.912609314546
5010.463759443362,51994.87779595485
5010.489816454236,51712.51410251551
5010.51587360062,51415.83655805954
5010.541930882514,50657.719475184014
5010.56798829992,49685.76387889031
5010.5940458528385,48773.338745274596
5010.62010354127,47515.08127103422
5010.646161365214,46050.70087577933
5010.672219324672,44617.764102166584
5010.698277419646,43522.83002095814
5010.724335650135,43016.62857829755
5010.7503940161405,43247.73884612048
5010.7764525176635,44147.31705872405
5010.802511154703,45424.51765915491
5010.828569927262,46860.9034063039
5010.85462883534,48289.496536812236
5010.880687878937,49511.36948173424
5010.906747058056,50422.15572830518
5010.932806372695,51044.74626094465
5010.958865822856,51491.78381550686
5010.98492540854,51874.86836968843
5011.0109851297475,52161.67151602904
5011.0370449864795,52477.4405594365
5011.063104978735,52717.84207970173
5011.089165106517,52793.98891414256
5011.115225369825,52919.98204253345
5011.14128576866,52894.38199900346
5011.167346303022,52955.02728672443
5011.193406972913,52851.967043702316
5011.219467778333,52751.922159258414
5011.2455287192815,52786.164356316694
5011.271589795761,52643.405636181335
5011.297651007772,52275.41542306738
5011.323712355315,51845.55479253343
5011.34977383839,51648.03336769762
5011.375835456999,51168.72298260389
5011.401897211142,50114.417905933406
5011.427959100819,49045.620614772226
5011.454021126031,47846.72238849711
5011.4800832867795,46440.09131131082
5011.506145583065,45020.162762570435
5011.532208014888,43399.215792519055
5011.558270582248,41998.94869426151
5011.584333285148,40993.14183246769
5011.610396123588,39411.67440567599
5011.636459097567,38064.16884139067
5011.662522207088,36046.37887738177
5011.68858545215,33761.74042843662
5011.714648832754,31280.777251603573
5011.740712348902,28592.24256271118
5011.766776000594,25517.087281755143
5011.79283978783,22779.56674207247
5011.818903710611,20579.910944328043
5011.844967768939,19024.025906843497
5011.871031962813,18644.943893719574
5011.897096292234,19236.960732277843
5011.923160757203,20649.359208284568
5011.949225357721,22696.076507278372
5011.975290093788,25394.006052378074
5012.001354965406,28303.2167328956
5012.027419972574,31026.268427118597
5012.053485115294,33657.35131912069
5012.079550393566,35779.63942667959
5012.105615807392,37291.893837587224
5012.13168135677,38121.92809549176
5012.157747041703,38170.11481063783
5012.183812862192,38021.56617042859
5012.209878818236,37685.2393016278
5012.235944909837,37898.64407376084
5012.262011136994,38618.58785046569
5012.28807749971,39750.66161262844
5012.3141439979845,41066.81376446344
5012.340210631818,42561.43780495834
5012.366277401212,43309.36527569425
5012.392344306166,44010.09475790639
5012.418411346682,44309.97881213027
5012.44447852276,44231.07379990778
5012.470545834401,44273.14474141068
5012.496613281605,44800.743182137245
5012.522680864374,45412.04564518739
5012.548748582707,46265.34202248979
5012.574816436606,47488.819723012566
5012.600884426071,48298.28647376359
5012.626952551104,49243.2218384743
5012.653020811705,50051.00040878511
5012.679089207873,50563.12743810675
5012.705157739611,50696.40094601538
5012.73122640692,50983.5060641196
5012.757295209798,50967.78066113425
5012.7833641482475,50851.63255099467
5012.80943322227,50856.52965144495
5012.835502431864,50682.63553987981
5012.861571777033,50418.734599624055
5012.887641257775,50028.10558927172
5012.9137108740915,49286.147797685175
5012.939780625984,47885.0805878286
5012.965850513452,46532.60049477717
5012.991920536498,45044.26831162685
5013.017990695121,43082.034087663524
5013.044060989323,40842.912198237995
5013.070131419104,38689.126732580655
5013.096201984464,37343.52476497788
5013.122272685405,36723.63183925466
5013.148343521927,37047.92949607709
5013.17441449403,37557.43309394858
5013.200485601717,38213.849010667655
5013.226556844987,38702.402104583496
5013.2526282238405,39028.910700800676
5013.278699738279,38551.94272048097
5013.304771388303,37429.229002854576
5013.330843173913,35970.969457563166
5013.35691509511,34076.31514342224
5013.382987151894,31451.122126330578
5013.409059344267,28984.77010243552
5013.435131672228,26976.681426121064
5013.46120413578,25723.32757344257
5013.487276734921,25313.008063555284
5013.513349469653,26165.729343189523
5013.539422339977,27884.94832811574
5013.565495345894,30070.72591926045
5013.5915684874035,32684.644939474576
5013.617641764507,35046.09121555753
5013.643715177206,37117.73501889423
5013.6697887254995,39030.70587411873
5013.695862409389,40672.94321074345
5013.721936228875,41998.01600100349
5013.748010183958,42972.950731921366
5013.77408427464,43509.828025083254
5013.800158500921,43362.31207951251
5013.826232862801,42700.16631941408
5013.852307360281,41575.81928453384
5013.8783819933615,39711.91555166915
5013.904456762045,37071.698385633346
5013.930531666329,34527.91550518592
5013.956606706218,31686.985745074056
5013.982681881709,29241.414086386794
5014.008757192805,27652.72458346857
5014.034832639507,26799.179389869718
5014.060908221814,27060.4970379346
5014.086983939728,28613.94077889769
5014.113059793249,30954.107630786548
5014.139135782378,33817.80585622564
5014.165211907116,36624.38036278392
5014.1912881674625,39145.42871195862
5014.21736456342,41706.498196719614
5014.243441094988,43891.215270189874
5014.269517762167,45481.03078838955
5014.295594564959,46319.041105646575
5014.321671503363,46973.60462140228
5014.347748577381,47009.083206938405
