wave,flux
5000.025812696027,51424.66655102192
5000.051815424163,48882.574536778215
5000.0778182875265,46977.88964843419
5000.103821286119,44868.079502342756
5000.12982441994,42546.36304539734
5000.155827688991,41033.81758556357
5000.181831093272,40137.878604858335
5000.207834632784,39998.15183789796
5000.2338383075285,40971.9352143691
5000.259842117506,42867.477834217505
5000.285846062716,45472.63111058254
5000.311850143161,48256.132717900895
5000.33785435884,50489.68833739547
5000.363858709754,52189.325209766066
5000.389863195905,52994.384933578585
5000.415867817292,53290.018554663235
5000.441872573917,52908.77452658189
5000.4678774657805,51859.638952536516
5000.493882492882,50502.92181725546
5000.519887655224,48908.06329998481
5000.545892952806,47103.97172261434
5000.571898385629,45847.85234296244
5000.597903953694,45536.02742010667
5000.623909657001,45983.41512785533
5000.649915495552,47020.54164922804
5000.675921469346,48443.327161555026
5000.701927578384,50044.71526929474
5000.727933822669,51422.63327301928
5000.7539402021985,51908.04788220096
5000.779946716975,52262.922951408545
5000.805953366999,53076.182591943
5000.831960152272,53573.8529750665
5000.857967072792,54221.00846881913
5000.883974128563,54361.0430947666
5000.9099813195835,55223.4067684892
5000.935988645855,56062.144383813
5000.961996107378,56763.84611291133
5000.988003704153,57370.25053298228
5001.014011436181,57542.86617199264
5001.040019303464,57601.5477353096
5001.066027306,57644.78581459986
5001.092035443791,57326.33539361899
5001.118043716839,56958.535245329556
5001.1440521251425,56513.9854816754
5001.170060668704,55501.51576061416
5001.196069347523,54099.38854299557
5001.222078161601,52806.24769434179
5001.248087110937,50851.489144227926
5001.274096195534,48702.85807709362
5001.300105415392,46723.26098128854
5001.326114770512,45405.28797141555
5001.352124260892,44692.77754323213
5001.3781338865365,44632.040996031275
5001.4041436474445,45261.85681399267
5001.430153543616,45867.140326731474
5001.456163575053,45911.90990769407
5001.482173741756,45597.80185284011
5001.508184043724,44702.52215031941
5001.534194480961,42818.9365732379
5001.560205053464,40498.105688515534
5001.586215761236,37957.83723389774
5001.612226604278,34771.689772531805
5001.638237582589,31736.639699726667
5001.664248696171,29323.107852945912
5001.690259945024,27775.664702824426
5001.716271329149,27300.487472010558
5001.742282848547,28453.2664532337
5001.768294503218,30737.47753383215
5001.794306293164,33878.91790917949
5001.820318218383,37626.63542192652
5001.84633027888,41659.70515396795
5001.872342474651,45858.52245871205
5001.8983548056995,49642.313434526484
5001.924367272026,52717.110173786656
5001.9503798736305,55282.8414150823
5001.976392610514,57171.12471631149
5002.002405482678,59254.46466714623
5002.028418490122,60000.57209983741
5002.054431632847,60163.215276794144
5002.080444910854,60851.258586943324
5002.106458324142,60843.55279455424
5002.1324718727155,60972.4127996361
5002.158485556572,61109.36495545362
5002.184499375713,60934.0326637596
5002.210513330139,60198.78099137032
5002.236527419852,59475.987516073
5002.262541644852,58899.92874589512
5002.288556005138,58455.657130475964
5002.314570500714,57722.22634470448
5002.340585131577,56785.46823747264
5002.36659989773,56374.747376085936
5002.392614799174,55729.208180212496
5002.418629835909,54681.00712182746
5002.444645007936,53308.08394990462
5002.4706603152545,52343.2043210972
5002.496675757866,50682.030457175075
5002.522691335772,48857.77688191838
5002.548707048972,46947.366007151824
5002.574722897468,44551.62620319961
5002.600738881259,42902.15268953175
5002.626755000347,41712.08040736127
5002.652771254732,41500.47994988443
5002.678787644415,42709.73110329054
5002.704804169397,45277.962588390204
5002.730820829678,48372.08126831885
5002.75683762526,51412.50384119986
5002.782854556142,54361.88295651608
5002.8088716223265,56628.87858316173
5002.834888823812,58299.345049350275
5002.860906160601,59728.2722655889
5002.886923632695,60771.48117510996
5002.912941240092,60847.689960627686
5002.938958982793,61697.18864356731
5002.9649768608015,61443.5861517939
5002.990994874116,61506.31260747387
5003.017013022737,61685.33277463556
5003.043031306666,61579.62765779199
5003.069049725905,61398.19912854747
5003.095068280452,61530.59778743877
5003.121086970309,61654.35681377924
5003.147105795477,61375.196759371946
5003.173124755956,61052.41308165112
5003.199143851748,60974.475740447895
5003.225163082852,61079.49861900328
5003.251182449269,60989.181660369635
5003.277201951001,60428.432089290356
5003.3032215880485,60516.071567726016
5003.32924136041,60285.354246801646
5003.35526126809,60289.57058791065
5003.381281311085,59903.7429279412
5003.407301489398,59919.726418761966
5003.433321803031,59572.39787246264
5003.459342251982,58999.2537516932
5003.4853628362525,58147.53123881789
5003.511383555844,57139.86751034156
5003.537404410757,56183.33998820896
5003.563425400991,55370.62168327559
5003.589446526548,54729.65936186557
5003.615467787429,54307.45886128834
5003.641489183634,54331.1513622807
5003.667510715163,54777.13094730447
5003.693532382018,55327.80637762137
5003.719554184199,55686.17717784852
5003.745576121707,55367.935395733264
5003.771598194542,54806.198241110156
5003.797620402706,53759.41768284282
5003.823642746199,52652.81427405053
5003.849665225021,51577.940876919296
5003.875687839174,50398.599368174735
5003.901710588658,50157.01583943705
5003.927733473473,50359.88362425652
5003.953756493622,51320.532470425605
5003.979779649103,52787.92150169179
5004.005802939919,54430.7695076118
5004.031826366068,55749.75772354613
5004.057849927553,56550.08220875709
5004.083873624375,57198.5469311544
5004.109897456533,57704.51181100537
5004.135921424028,57976.914385765784
5004.161945526862,58133.973550094415
5004.187969765035,58129.27898507171
5004.213994138547,58499.06545213775
5004.240018647399,58946.192685919166
5004.266043291592,59165.83406515231
5004.292068071127,59664.73046896968
5004.318092986004,60685.90359503312
5004.344118036223,60771.69645255078
5004.370143221788,60948.64820946556
5004.396168542696,61412.0112502779
5004.422193998949,61448.65030447738
5004.448219590549,61603.28773495465
5004.474245317495,61532.14488338849
5004.500271179789,61481.495403105946
5004.52629717743,61229.463477928504
5004.5523233104195,60936.62866244678
5004.578349578759,60659.49316083729
5004.604375982449,60028.81547517767
5004.630402521489,59283.06984730777
5004.656429195881,58176.02631129138
5004.682456005625,57477.51590359945
5004.708482950721,56465.014180531216
5004.734510031172,56155.12417473989
5004.760537246977,55283.37157918833
5004.7865645981365,54318.42567891014
5004.812592084652,53639.03962845044
5004.838619706525,52488.86519933563
5004.8646474637535,50842.81498840345
5004.890675356341,48798.156005992685
5004.916703384286,46396.44950196675
5004.942731547591,43701.75182981352
5004.968759846256,41359.19263674518
5004.994788280281,39816.07241781242
5005.020816849668,39025.141895315035
5005.046845554417,39588.19671090641
5005.072874394528,41553.90860134794
5005.098903370003,44060.49003763394
5005.124932480842,46700.145100600756
5005.150961727047,48884.57875441557
5005.176991108617,50640.63292262311
5005.203020625552,51421.54826313681
5005.229050277856,52148.43735832005
5005.255080065526,51938.83429998707
5005.281109988566,51341.65678818601
5005.3071400469735,50368.875441975455
5005.333170240751,48991.307955976605
5005.3592005699,47135.49403907204
5005.38523103442,44826.67730876787
5005.411261634312,42145.585831625714
5005.4372923695755,39308.9513129589
5005.463323240213,36026.23725733128
5005.489354246225,32800.149032587826
5005.515385387611,30018.569366193984
5005.541416664373,27964.246682528184
5005.567448076511,26916.945811564063
5005.593479624025,26823.610335343335
5005.619511306918,28061.91920760054
5005.645543125189,30064.208689803476
5005.671575078838,31858.580991090377
5005.697607167867,33624.65558036193
5005.723639392277,34575.6703620101
5005.749671752068,35111.66871600102
5005.77570424724,34729.0523521321
5005.8017368777955,33496.46474656273
5005.8277696437335,31693.78856351915
5005.853802545055,29513.128983516905
5005.879835581762,27060.708020908456
5005.905868753854,24862.593382069117
5005.931902061331,23492.67287062225
5005.957935504196,22975.59168223082
5005.983969082448,23734.494324217725
5006.010002796088,25623.907215384857
5006.036036645117,28330.425673934205
5006.062070629536,32000.910116799594
5006.088104749344,36285.53658530414
5006.114139004544,40653.17558994599
5006.140173395135,44750.058912906374
5006.166207921118,48400.457725963424
5006.192242582495,52035.04985621562
5006.218277379266,54869.43928724454
5006.244312311431,56847.888561114894
5006.270347378991,58605.69826399188
5006.296382581946,59523.22798306188
5006.322417920299,60228.75293024453
5006.348453394048,60648.779637708816
5006.374489003196,60397.149567365894
5006.400524747743,60488.627100527214
5006.426560627688,60310.76309380377
5006.452596643034,60335.71679178789
5006.47863279378,60260.45636972437
5006.504669079928,60233.235898268416
5006.530705501478,60120.40899770084
5006.556742058431,59888.18866315506
5006.582778750788,59619.7917245567
5006.608815578549,59120.23552773144
5006.634852541715,58651.76517521717
5006.660889640287,58013.49006645032
5006.686926874265,57038.803752556516
5006.71296424365,55919.81997846732
5006.739001748444,55004.222750903515
5006.765039388645,53820.2210237289
5006.791077164256,52825.53163089584
5006.817115075277,51181.86439726342
5006.843153121708,49699.42783073446
5006.869191303552,47806.154945267546
5006.895229620806,45294.92742056129
5006.921268073474,42631.145602936114
5006.947306661555,39788.10540777603
5006.97334538505,36362.148235181936
5006.999384243961,32948.77207876744
5007.025423238286,29853.82043433506
5007.051462368028,27661.25972839756
5007.077501633187,26619.817031882885
5007.103541033764,26966.17205440338
5007.129580569759,28827.06685892046
5007.155620241173,31505.01034945176
5007.181660048007,34888.946328325306
5007.207699990262,39014.05379955994
5007.233740067937,43090.896922733984
5007.259780281035,47018.322488363156
5007.285820629555,50834.43784985101
5007.311861113499,53434.26006218214
5007.337901732866,55685.439454391475
5007.363942487658,57509.06932996728
5007.389983377876,58842.54936072298
5007.41602440352,59134.62795955685
5007.442065564591,59388.40975772315
5007.468106861089,59000.325045779646
5007.494148293015,58758.91315818262
5007.520189860371,57981.300241562785
5007.546231563156,57373.83194549737
5007.572273401372,57033.70594092706
5007.598315375018,57127.7114115485
5007.624357484096,57745.15597942616
5007.650399728607,58595.09011751359
5007.676442108551,59724.55284246744
5007.702484623929,60735.65364430443
5007.728527274741,61416.2433811059
5007.754570060989,62102.621158998474
5007.780612982673,62500.547136876834
5007.806656039793,62759.136981234085
5007.832699232351,62741.32407124523
5007.858742560347,62754.180031347925
5007.884786023782,62541.89248683154
5007.910829622656,62829.82178753194
5007.936873356971,62787.20076604708
5007.962917226726,62820.77127266539
5007.988961231923,62903.850756630796
5008.015005372563,63246.00329051549
5008.041049648646,63449.69153572544
5008.067094060171,63492.73653606984
5008.0931386071425,63314.06801833174
5008.119183289558,63272.218605705486
5008.14522810742,63303.73373695787
5008.171273060728,63247.707604626776
5008.197318149483,63177.57162681635
5008.223363373687,63158.7088399191
5008.249408733339,63004.59032796643
5008.27545422844,62760.761165275435
5008.301499858992,62789.4268879142
5008.327545624995,62630.05035651291
5008.353591526448,62091.819842601806
5008.379637563355,61973.476311496626
5008.405683735714,61403.36122105762
5008.431730043527,60608.6753777507
5008.457776486794,60424.33307074152
5008.483823065515,60449.37720531553
5008.509869779693,60270.58130653583
5008.535916629327,60365.232751224445
5008.561963614418,60930.716059388644
5008.588010734968,61524.40329530968
5008.614057990975,62022.82667627133
5008.640105382442,62493.41924941065
5008.666152909369,62768.269346970796
5008.692200571756,62836.069101096095
5008.718248369605,62779.69163445951
5008.744296302916,62756.34256246878
5008.77034437169,62845.17853944635
5008.796392575927,62807.87474506044
5008.822440915628,62701.72998471133
5008.848489390794,62847.98044083043
5008.874538001426,62993.20837529707
5008.900586747524,62950.79251549594
5008.926635629089,63032.96675568905
5008.952684646122,63122.90153085516
5008.978733798623,63107.180840485766
5009.004783086593,63181.50728429587
5009.030832510033,63282.288939506274
5009.056882068944,63383.20064892217
5009.082931763326,63326.19752962232
5009.108981593179,63150.05810633021
5009.135031558506,63297.29581392633
5009.161081659306,62882.00536184532
5009.187131895579,62800.23937068749
5009.213182267327,62468.90361350915
5009.239232774552,62226.35080808558
5009.265283417251,62123.58874107428
5009.291334195428,61882.880482600085
5009.317385109083,61665.34277894777
5009.343436158216,61114.18574076915
5009.369487342828,60866.1649094564
5009.395538662919,60882.45546802938
5009.421590118491,60446.25532489741
5009.447641709544,60071.40184144909
5009.473693436078,59589.28412505573
5009.499745298095,59136.689950885055
5009.525797295596,59251.36516464672
5009.55184942858,59233.78583749233
5009.577901697049,59315.995273091976
5009.603954101003,59214.848973476604
5009.630006640443,59153.8579811457
5009.65605931537,58953.527455356525
5009.682112125784,58224.21025815696
5009.708165071686,57442.28318236274
5009.7342181530785,56302.013691232976
5009.760271369959,54954.556385301854
5009.78632472233,53693.822597774444
5009.812378210192,52140.8502817652
5009.838431833546,50421.314622301914
5009.864485592391,48928.80818036574
5009.890539486731,47299.78812117733
5009.916593516564,45845.80220661643
5009.942647681891,44620.62543863609
5009.968701982713,43629.07308810443
5009.994756419032,42354.206269053044
5010.020810990847,41436.732433564306
5010.046865698159,40879.972356207116
5010.072920540969,41040.678996235656
5010.098975519279,42666.45246193396
5010.125030633087,45190.539796646386
5010.151085882395,47929.1027711138
5010.177141267204,51138.33543588462
5010.2031967875155,54252.10212279139
5010.229252443328,56365.25937855806
5010.255308234644,58452.84969347961
5010.281364161464,60195.14293291125
5010.307420223788,61191.70401839263
5010.333476421617,61977.72044015247
5010.359532754951,62201.06370124926
5010.3855892237925,62583.63012520994
5010.4116458281405,62480.667145679654
5010.437702567997,62251.25997512906
5010.463759443362,62349.51914362991
5010.489816454236,61942.31843376094
5010.51587360062,61826.362677790974
5010.541930882514,61118.06828227191
5010.56798829992,60529.60050127709
5010.5940458528385,59629.287407368494
5010.62010354127,58852.813483674945
5010.646161365214,57375.34458696104
5010.672219324672,55941.75055557527
5010.698277419646,54593.60312072198
5010.724335650135,52786.26616994583
5010.7503940161405,51424.30220116753
5010.7764525176635,50782.800706293994
5010.802511154703,50867.61502204119
5010.828569927262,51997.51987804998
5010.85462883534,53832.5328205668
5010.880687878937,56100.21095679724
5010.906747058056,58232.581343463906
5010.932806372695,59692.64687272436
5010.958865822856,60947.471317926385
5010.98492540854,61789.804958044355
5011.0109851297475,61875.06625353999
5011.0370449864795,62687.34609436821
5011.063104978735,63005.66464088398
5011.089165106517,62889.58565804391
5011.115225369825,62744.484216866316
5011.14128576866,63371.454923487894
5011.167346303022,63005.70115636451
5011.193406972913,62783.74192074099
5011.219467778333,62949.85514890847
5011.2455287192815,63078.49274927674
5011.271589795761,62792.54931069817
5011.297651007772,62725.63284548383
5011.323712355315,62418.873994546484
5011.34977383839,62008.98026780858
5011.375835456999,61635.12704498091
5011.401897211142,61028.89162575658
5011.427959100819,59889.67670369292
5011.454021126031,58690.0119340061
5011.4800832867795,57359.1998403283
5011.506145583065,55526.294960346066
5011.532208014888,53482.79789417015
5011.558270582248,51449.008921914596
5011.584333285148,49653.02121843336
5011.610396123588,48013.29125325674
5011.636459097567,46305.12258027961
5011.662522207088,44819.30901276322
5011.68858545215,43189.96353418965
5011.714648832754,41168.94243955576
5011.740712348902,38447.09315150709
5011.766776000594,35533.15745143815
5011.79283978783,32360.759232750108
5011.818903710611,29112.241589612968
5011.844967768939,26081.691570087703
5011.871031962813,23350.15106674908
5011.897096292234,21703.2918692234
5011.923160757203,21327.024536240857
5011.949225357721,22094.13808162899
5011.975290093788,23832.785194212403
5012.001354965406,26614.773912002875
5012.027419972574,29803.76941871255
5012.053485115294,33389.389710615505
5012.079550393566,37061.169042213936
5012.105615807392,40499.33265318156
5012.13168135677,43501.042832203144
5012.157747041703,45598.50541793801
5012.183812862192,46585.43212444775
5012.209878818236,46678.267398592216
5012.235944909837,46071.25289023381
5012.262011136994,45488.80060268288
5012.28807749971,45222.163313224126
5012.3141439979845,45449.66412979701
5012.340210631818,46878.625562338035
5012.366277401212,48773.904633839025
5012.392344306166,50507.49974416329
5012.418411346682,52243.35149203949
5012.44447852276,53092.35437353042
5012.470545834401,53342.22565058728
5012.496613281605,53217.2421108259
5012.522680864374,53263.73045390345
5012.548748582707,53650.79121653094
5012.574816436606,54092.09111008944
5012.600884426071,55231.969611381304
5012.626952551104,56985.95076482218
5012.653020811705,58192.77638954028
5012.679089207873,59734.41376683793
5012.705157739611,60162.320075390206
5012.73122640692,60562.2648012183
5012.757295209798,60803.70261114078
5012.7833641482475,61031.2690998509
5012.80943322227,60783.84451729043
5012.835502431864,60436.46931425365
5012.861571777033,60195.43907130179
5012.887641257775,60234.61595940534
5012.9137108740915,59354.47708509851
5012.939780625984,58442.06716461132
5012.965850513452,57553.73953894681
5012.991920536498,56200.43293331622
5013.017990695121,54393.2715940874
5013.044060989323,52320.64586243978
5013.070131419104,50011.68345690193
5013.096201984464,47345.920298479636
5013.122272685405,44809.137565725214
5013.148343521927,42767.48028777479
5013.17441449403,41717.74098661803
5013.200485601717,41949.072484503704
5013.226556844987,42812.46886907711
5013.2526282238405,44171.93230963986
5013.278699738279,45424.26103801526
5013.304771388303,45783.96823487673
5013.330843173913,45440.47985118483
5013.35691509511,44342.57560764935
5013.382987151894,42465.23053459513
5013.409059344267,40038.05448915666
5013.435131672228,37223.67919301713
5013.46120413578,34150.36517406869
5013.487276734921,31954.96002813284
5013.513349469653,30121.657894731277
5013.539422339977,29712.724162541515
5013.565495345894,30484.959827148694
5013.5915684874035,32639.96542223141
5013.617641764507,35499.636373863104
5013.643715177206,38625.60333254081
5013.6697887254995,41987.337673651855
5013.695862409389,44716.21844218363
5013.721936228875,47282.40690936966
5013.748010183958,49008.921933532336
5013.77408427464,50334.22941437456
5013.800158500921,51058.32513144087
5013.826232862801,51467.98368636812
5013.852307360281,51354.354661605656
5013.8783819933615,50339.16944134578
5013.904456762045,48491.265778017674
5013.930531666329,46090.1414512767
5013.956606706218,43128.61800576413
5013.982681881709,39785.22239085284
5014.008757192805,36441.250465210316
5014.034832639507,33520.269556209176
5014.060908221814,31469.52508663838
5014.086983939728,30803.227387982075
5014.113059793249,31649.62035203904
5014.139135782378,33723.921123373315
5014.165211907116,36642.20095149168
5014.1912881674625,40116.01143972027
5014.21736456342,44053.19292958324
5014.243441094988,47676.6653806476
5014.269517762167,51170.85104636099
5014.295594564959,53739.40657446617
5014.321671503363,54967.84075512803
5014.347748577381,55562.08081373138
5014.373825787014,55805.470134728705
