wave,flux
5000.025812696027,43561.52958554276
5000.051815424163,41864.91652851783
5000.0778182875265,40102.58894384197
5000.103821286119,38137.87163117084
5000.12982441994,36434.456156408654
5000.155827688991,35332.08251193126
5000.181831093272,34576.68475423081
5000.207834632784,34612.67379094163
5000.2338383075285,35792.24126750579
5000.259842117506,37422.281262196586
5000.285846062716,39524.883018856366
5000.311850143161,41672.53690064813
5000.33785435884,43550.33159800775
5000.363858709754,44701.85080610958
5000.389863195905,45769.38048626813
5000.415867817292,45713.09604651493
5000.441872573917,45128.42161065452
5000.4678774657805,44437.09168964911
5000.493882492882,43103.725519252315
5000.519887655224,41555.615877040116
5000.545892952806,40367.24504650821
5000.571898385629,39481.72714115201
5000.597903953694,39195.6320825706
5000.623909657001,39652.57037821886
5000.649915495552,40557.13925040861
5000.675921469346,41963.742490197896
5000.701927578384,43118.17164488369
5000.727933822669,44215.90376777838
5000.7539402021985,44756.96288848148
5000.779946716975,45332.20563938243
5000.805953366999,45766.61265473317
5000.831960152272,46161.03467463455
5000.857967072792,46570.37328086978
5000.883974128563,47124.74159666705
5000.9099813195835,47690.83935502766
5000.935988645855,48193.74024202706
5000.961996107378,48811.42045509841
5000.988003704153,49341.07038100989
5001.014011436181,49461.42526646876
5001.040019303464,49440.64996829399
5001.066027306,49469.2304742227
5001.092035443791,49276.19805539989
5001.118043716839,48878.964251795405
5001.1440521251425,48105.83904904702
5001.170060668704,47653.997623595475
5001.196069347523,46410.978262260986
5001.222078161601,45145.12141911595
5001.248087110937,43545.21210159628
5001.274096195534,41726.207659916676
5001.300105415392,40192.09362803059
5001.326114770512,39148.6743386985
5001.352124260892,38452.508106483016
5001.3781338865365,38579.914806328976
5001.4041436474445,38966.36944517467
5001.430153543616,39179.97541261209
5001.456163575053,39549.13019420351
5001.482173741756,38902.26619327512
5001.508184043724,37859.05929217704
5001.534194480961,36144.74941848384
5001.560205053464,34239.077523559055
5001.586215761236,31759.76956860868
5001.612226604278,29374.18825642393
5001.638237582589,26997.032312360097
5001.664248696171,25268.14989223668
5001.690259945024,24376.484756145837
5001.716271329149,24147.08320479941
5001.742282848547,25147.769321421085
5001.768294503218,27264.949045344758
5001.794306293164,30118.08837804031
5001.820318218383,33368.553377192526
5001.84633027888,36750.45187650237
5001.872342474651,40175.37736376972
5001.8983548056995,43205.501831524256
5001.924367272026,45981.65257473753
5001.9503798736305,48062.29584101603
5001.976392610514,49751.539479410276
5002.002405482678,51042.442814519265
5002.028418490122,51826.009524109555
5002.054431632847,52322.80819204301
5002.080444910854,52478.054587972634
5002.106458324142,52579.56235573732
5002.1324718727155,52501.4353047267
5002.158485556572,52225.24448433394
5002.184499375713,51934.68315073826
5002.210513330139,51509.70427052996
5002.236527419852,51037.828855080734
5002.262541644852,50538.43504792608
5002.288556005138,49988.868347454256
5002.314570500714,49552.06638901484
5002.340585131577,48824.106008864124
5002.36659989773,48437.638291281895
5002.392614799174,47358.36369395235
5002.418629835909,46726.909238531305
5002.444645007936,45739.565715156
5002.4706603152545,44658.0311923288
5002.496675757866,43249.827715355816
5002.522691335772,41557.85850233827
5002.548707048972,39861.37455430279
5002.574722897468,38305.7352831847
5002.600738881259,36908.349964145855
5002.626755000347,36092.133235276706
5002.652771254732,36351.41063749525
5002.678787644415,37695.70470417519
5002.704804169397,39653.314735863416
5002.730820829678,42017.08786928627
5002.75683762526,44848.86400061237
5002.782854556142,47280.81712968248
5002.8088716223265,49061.63643176318
5002.834888823812,50522.46993234137
5002.860906160601,51499.017365500105
5002.886923632695,52168.09238796527
5002.912941240092,52762.695864362664
5002.938958982793,52936.74039555503
5002.9649768608015,52781.14067187597
5002.990994874116,52922.90339827524
5003.017013022737,53179.80491769179
5003.043031306666,53113.343122144084
5003.069049725905,52896.30838988071
5003.095068280452,52951.49064083966
5003.121086970309,52953.2160322983
5003.147105795477,52701.96439709904
5003.173124755956,52624.14971394975
5003.199143851748,52542.952648139224
5003.225163082852,52427.018768618254
5003.251182449269,52124.70095719102
5003.277201951001,52310.098100887415
5003.3032215880485,52102.43551649269
5003.32924136041,51653.86528598446
5003.35526126809,51470.66627278102
5003.381281311085,51433.455528556704
5003.407301489398,51301.14096699224
5003.433321803031,51055.781212314934
5003.459342251982,50374.36254518226
5003.4853628362525,49585.69930016256
5003.511383555844,48849.33121380971
5003.537404410757,48194.94087038952
5003.563425400991,47466.388104955295
5003.589446526548,46845.02427380095
5003.615467787429,46774.656809078304
5003.641489183634,46789.86948186857
5003.667510715163,47025.51226646151
5003.693532382018,47478.745248151994
5003.719554184199,47599.51466126902
5003.745576121707,47324.09174829872
5003.771598194542,46944.38467294966
5003.797620402706,45999.75581433258
5003.823642746199,45103.85193091877
5003.849665225021,44219.09792859808
5003.875687839174,43820.81370547754
5003.901710588658,43289.58851653431
5003.927733473473,43596.53554205282
5003.953756493622,44527.41722767914
5003.979779649103,45574.1994301842
5004.005802939919,46813.47757004981
5004.031826366068,48025.46874720878
5004.057849927553,48713.719003997656
5004.083873624375,48924.253209525756
5004.109897456533,49550.35451453411
5004.135921424028,49946.97389599691
5004.161945526862,49769.05334928694
5004.187969765035,50026.88557640288
5004.213994138547,50159.77649712309
5004.240018647399,50749.55473295517
5004.266043291592,51231.68816895732
5004.292068071127,51642.784042328174
5004.318092986004,52266.92998776075
5004.344118036223,52550.20497135042
5004.370143221788,52678.16503411939
5004.396168542696,52855.884102161384
5004.422193998949,53004.213631495404
5004.448219590549,53047.97762083872
5004.474245317495,52978.59556925605
5004.500271179789,52770.595805791774
5004.52629717743,52592.030969967724
5004.5523233104195,52490.03101666141
5004.578349578759,52036.57736117618
5004.604375982449,51421.032673102345
5004.630402521489,50953.76531289247
5004.656429195881,50045.639938154265
5004.682456005625,49163.55489021375
5004.708482950721,48553.6322049058
5004.734510031172,47799.79727187803
5004.760537246977,47240.7145791305
5004.7865645981365,46591.32309081989
5004.812592084652,45488.40668921452
5004.838619706525,44453.68460183113
5004.8646474637535,43115.48826394976
5004.890675356341,41290.134277281475
5004.916703384286,39133.22296274841
5004.942731547591,37130.95464173564
5004.968759846256,35535.06543869751
5004.994788280281,34268.87161778902
5005.020816849668,33814.91780380013
5005.046845554417,34586.94015267929
5005.072874394528,36246.652342149595
5005.098903370003,38264.504547286386
5005.124932480842,40443.936348622585
5005.150961727047,42461.72346074314
5005.176991108617,43893.576831960454
5005.203020625552,44269.18629104874
5005.229050277856,44855.58141116878
5005.255080065526,44763.65265161086
5005.281109988566,43891.15801747052
5005.3071400469735,42911.27785784227
5005.333170240751,41583.297328808854
5005.3592005699,40045.24974149338
5005.38523103442,38046.86102236305
5005.411261634312,35684.78401170709
5005.4372923695755,33133.77009804059
5005.463323240213,30448.20044371759
5005.489354246225,27983.108902938657
5005.515385387611,25826.061861800943
5005.541416664373,24095.453689722788
5005.567448076511,23295.564790695524
5005.593479624025,23584.26626627744
5005.619511306918,24572.904159372953
5005.645543125189,26009.743252052802
5005.671575078838,27589.455553934404
5005.697607167867,29046.736375194538
5005.723639392277,29956.515869710576
5005.749671752068,30036.15994070006
5005.77570424724,29663.014268162504
5005.8017368777955,28559.2350454751
5005.8277696437335,26880.77402490858
5005.853802545055,25099.31692208827
5005.879835581762,23155.541119145142
5005.905868753854,21434.19820936429
5005.931902061331,20313.421623112095
5005.957935504196,20052.752841561018
5005.983969082448,20956.276010576734
5006.010002796088,22796.772641171287
5006.036036645117,25349.898552702416
5006.062070629536,28594.025132219158
5006.088104749344,32110.43479067795
5006.114139004544,35685.83897698124
5006.140173395135,39281.89813405723
5006.166207921118,42786.187806060116
5006.192242582495,45543.97438990463
5006.218277379266,47955.702148082746
5006.244312311431,49408.74878999373
5006.270347378991,50603.1129795707
5006.296382581946,51181.391754162134
5006.322417920299,51775.23943239139
5006.348453394048,51961.56165749849
5006.374489003196,51853.77313353743
5006.400524747743,51882.87701054076
5006.426560627688,51991.72766645365
5006.452596643034,51879.30769829371
5006.47863279378,51774.17908960014
5006.504669079928,51829.34201623384
5006.530705501478,51644.053232413906
5006.556742058431,51420.03724660374
5006.582778750788,51340.49922552982
5006.608815578549,50876.007142655115
5006.634852541715,50396.074798656366
5006.660889640287,49472.34291545978
5006.686926874265,48776.24366260131
5006.71296424365,48121.18224327439
5006.739001748444,46868.65261259254
5006.765039388645,46047.88469284104
5006.791077164256,44898.735542597555
5006.817115075277,43740.83416715563
5006.843153121708,42171.026152841456
5006.869191303552,40543.9420756454
5006.895229620806,38484.21934476527
5006.921268073474,35962.377742056
5006.947306661555,33352.44862420817
5006.97334538505,30563.526163977975
5006.999384243961,27808.989046084822
5007.025423238286,25451.00480008463
5007.051462368028,23812.936884474853
5007.077501633187,23251.51524858421
5007.103541033764,23821.79865145315
5007.129580569759,25529.363433504932
5007.155620241173,27901.157783245057
5007.181660048007,31037.406603567015
5007.207699990262,34473.390796060405
5007.233740067937,37983.80905174352
5007.259780281035,40949.638137462214
5007.285820629555,44146.98771884444
5007.311861113499,46270.86015196112
5007.337901732866,48227.77404030724
5007.363942487658,49766.434290378515
5007.389983377876,50478.655190289974
5007.41602440352,50870.29620060361
5007.442065564591,51056.43942489316
5007.468106861089,50562.61875628955
5007.494148293015,50280.21653955126
5007.520189860371,49986.605929987905
5007.546231563156,49477.88581077757
5007.572273401372,49189.86029278777
5007.598315375018,49284.010986470574
5007.624357484096,49792.805107090804
5007.650399728607,50630.164019118834
5007.676442108551,51914.93795303616
5007.702484623929,52612.47220434572
5007.728527274741,52784.27304660858
5007.754570060989,53509.30847978679
5007.780612982673,53307.56836656001
5007.806656039793,53922.18046569907
5007.832699232351,54058.975203252456
5007.858742560347,53880.84503009133
5007.884786023782,53831.44866940353
5007.910829622656,53878.63370927127
5007.936873356971,54057.77705513513
5007.962917226726,54120.86722385478
5007.988961231923,54212.995668449745
5008.015005372563,54292.39449284766
5008.041049648646,54311.250839815104
5008.067094060171,54369.66571138802
5008.0931386071425,54494.51307417032
5008.119183289558,54566.994996577974
5008.14522810742,54555.804510016984
5008.171273060728,54481.11257377589
5008.197318149483,54439.90243522729
5008.223363373687,54416.866358177685
5008.249408733339,54166.456887723616
5008.27545422844,53959.38285488425
5008.301499858992,53921.089697284835
5008.327545624995,53683.94453487102
5008.353591526448,53368.01567201401
5008.379637563355,52876.15497244667
5008.405683735714,52561.656389314136
5008.431730043527,51950.11094445515
5008.457776486794,51985.16208476069
5008.483823065515,51940.64239996165
5008.509869779693,52004.455716758566
5008.535916629327,52179.1698338511
5008.561963614418,52488.64559641958
5008.588010734968,53165.85810040424
5008.614057990975,53627.410928742735
5008.640105382442,53794.34650626774
5008.666152909369,54074.30104716346
5008.692200571756,54032.46804100591
5008.718248369605,53960.61005128089
5008.744296302916,54234.54408894744
5008.77034437169,54029.63742094846
5008.796392575927,53837.96325455008
5008.822440915628,54146.061736768206
5008.848489390794,54083.308134650804
5008.874538001426,54213.338665747935
5008.900586747524,54114.69614621067
5008.926635629089,54460.02098453902
5008.952684646122,54222.112281612026
5008.978733798623,54293.96234970242
5009.004783086593,54256.23900170321
5009.030832510033,54143.37326571188
5009.056882068944,54460.05090080887
5009.082931763326,54351.037444609356
5009.108981593179,54232.558507401
5009.135031558506,54432.39521641692
5009.161081659306,54107.76356321158
5009.187131895579,53909.19970774786
5009.213182267327,53722.309207298444
5009.239232774552,53531.39934346103
5009.265283417251,53383.5024934363
5009.291334195428,53039.41062283611
5009.317385109083,52848.54854812608
5009.343436158216,52732.73209319956
5009.369487342828,52329.82939412271
5009.395538662919,51976.79488809014
5009.421590118491,51707.145422473724
5009.447641709544,51371.310704801064
5009.473693436078,51246.02019462612
5009.499745298095,51032.69202919376
5009.525797295596,50577.74409839868
5009.55184942858,50857.30415933398
5009.577901697049,51125.43957956784
5009.603954101003,50933.15872055204
5009.630006640443,50755.95625101623
5009.65605931537,50455.7123876802
5009.682112125784,49870.095857247696
5009.708165071686,48944.67588443687
5009.7342181530785,48205.80692770242
5009.760271369959,47061.29872934216
5009.78632472233,45636.72387222506
5009.812378210192,44567.96354569791
5009.838431833546,43191.218627526905
5009.864485592391,41550.923894470005
5009.890539486731,40109.75884382607
5009.916593516564,39021.41617262978
5009.942647681891,38140.974361897555
5009.968701982713,37221.45276626321
5009.994756419032,36260.8287907723
5010.020810990847,35523.48589047921
5010.046865698159,35306.38447047373
5010.072920540969,35814.50936569918
5010.098975519279,37175.22815357828
5010.125030633087,39237.06943932501
5010.151085882395,41821.5879298936
5010.177141267204,44871.13403650984
5010.2031967875155,47168.18598793662
5010.229252443328,48947.779334037536
5010.255308234644,50816.492228032665
5010.281364161464,51957.078413184834
5010.307420223788,52757.43863566145
5010.333476421617,53405.68921266439
5010.359532754951,53549.86199237078
5010.3855892237925,53854.240304590414
5010.4116458281405,53784.89944532092
5010.437702567997,53488.71133130745
5010.463759443362,53278.48620575204
5010.489816454236,52991.472587144584
5010.51587360062,52823.32769259261
5010.541930882514,52364.663719544056
5010.56798829992,51781.44365615786
5010.5940458528385,51150.93919073571
5010.62010354127,50294.5630410211
5010.646161365214,49262.473607814216
5010.672219324672,47772.31386861775
5010.698277419646,46350.72217693361
5010.724335650135,45341.16155632092
5010.7503940161405,44354.94004635081
5010.7764525176635,43991.30792464741
5010.802511154703,44075.47534494384
5010.828569927262,44626.53921290605
5010.85462883534,46537.38112983969
5010.880687878937,48425.10451601744
5010.906747058056,50200.1897023209
5010.932806372695,51600.57047944172
5010.958865822856,52444.33440240846
5010.98492540854,53216.71434623756
5011.0109851297475,53661.16438097342
5011.0370449864795,53933.099422144696
5011.063104978735,54041.30708930651
5011.089165106517,54015.92516529188
5011.115225369825,54048.77606693202
5011.14128576866,54028.77485856175
5011.167346303022,53950.458872787
5011.193406972913,54253.720527958074
5011.219467778333,54159.218114874915
5011.2455287192815,54015.879851029094
5011.271589795761,54168.09742014271
5011.297651007772,54045.5515014034
5011.323712355315,53480.704326783314
5011.34977383839,53145.42011463055
5011.375835456999,52812.781079570464
5011.401897211142,52243.9809890321
5011.427959100819,51336.96275380005
5011.454021126031,50066.57804611566
5011.4800832867795,48845.19392619662
5011.506145583065,47205.908436220394
5011.532208014888,45463.31743036928
5011.558270582248,44102.51442047181
5011.584333285148,42279.31739692574
5011.610396123588,40626.69790975097
5011.636459097567,39266.99619202048
5011.662522207088,37704.9306105277
5011.68858545215,36388.153579427024
5011.714648832754,34709.78325166939
5011.740712348902,32520.84282837387
5011.766776000594,29770.503625645717
5011.79283978783,27022.65364497476
5011.818903710611,24196.820479963248
5011.844967768939,21952.6821289046
5011.871031962813,19988.28013943136
5011.897096292234,18797.231530699144
5011.923160757203,18610.635286549255
5011.949225357721,19599.064261793963
5011.975290093788,21222.719066152596
5012.001354965406,23506.553284601665
5012.027419972574,26473.939739636593
5012.053485115294,29590.718270700494
5012.079550393566,32648.38233685854
5012.105615807392,35450.77510793747
5012.13168135677,37834.86223555532
5012.157747041703,39400.55726761707
5012.183812862192,40041.9237005714
5012.209878818236,40090.45878055994
5012.235944909837,39923.744314947115
5012.262011136994,39614.92442732384
5012.28807749971,39152.90270307043
5012.3141439979845,39522.88590447997
5012.340210631818,40692.6653486991
5012.366277401212,42188.335239681976
5012.392344306166,43674.91853407064
5012.418411346682,45031.13893623168
5012.44447852276,45760.732392250546
5012.470545834401,46103.58550807406
5012.496613281605,46073.149498500556
5012.522680864374,46193.891993201694
5012.548748582707,46246.4636445251
5012.574816436606,46925.562701416166
5012.600884426071,47946.795757498876
5012.626952551104,49192.13944067666
5012.653020811705,50058.02287143522
5012.679089207873,51186.83140966249
5012.705157739611,51695.80469890527
5012.73122640692,52151.3799169678
5012.757295209798,52444.76911651221
5012.7833641482475,52249.88225647945
5012.80943322227,52126.01501763929
5012.835502431864,52082.1247237669
5012.861571777033,51888.50775500593
5012.887641257775,51498.35792226906
5012.9137108740915,50843.12221712499
5012.939780625984,50041.70273133654
5012.965850513452,49179.08657163299
5012.991920536498,47945.70410025628
5013.017990695121,46477.67109456113
5013.044060989323,44719.92982385835
5013.070131419104,42428.706147568235
5013.096201984464,40371.77142667073
5013.122272685405,38450.3698001916
5013.148343521927,36668.4729528983
5013.17441449403,36168.88863698805
5013.200485601717,36391.62151935584
5013.226556844987,37224.967344511664
5013.2526282238405,37975.7025457596
5013.278699738279,38734.921499134594
5013.304771388303,38921.058158791486
5013.330843173913,38637.97527875883
5013.35691509511,37529.35489447861
5013.382987151894,35858.066934513794
5013.409059344267,33886.90927041206
5013.435131672228,31371.16487411705
5013.46120413578,29108.553446942544
5013.487276734921,27254.231203616324
5013.513349469653,25827.760950222422
5013.539422339977,25823.999986612722
5013.565495345894,26769.738384754397
5013.5915684874035,28570.791475406262
5013.617641764507,31166.983784876644
5013.643715177206,34076.120653646896
5013.6697887254995,36754.491657453844
5013.695862409389,38967.24735437958
5013.721936228875,41122.699851366975
5013.748010183958,42488.024283683706
5013.77408427464,43297.05588724556
5013.800158500921,43873.30258626301
5013.826232862801,43822.02903367808
5013.852307360281,43481.48810388182
5013.8783819933615,42673.397577318225
5013.904456762045,41017.704998746885
5013.930531666329,38883.50181175185
5013.956606706218,36346.103492321614
5013.982681881709,33530.60505962735
5014.008757192805,30810.012358511325
5014.034832639507,28537.113964522658
5014.060908221814,27193.603677358384
5014.086983939728,26897.809016491607
5014.113059793249,27703.10464837171
5014.139135782378,29486.243212417372
5014.165211907116,32088.257109019087
5014.1912881674625,35428.09164315203
5014.21736456342,38420.91821514901
5014.243441094988,41694.71489480255
5014.269517762167,44412.88582860946
5014.295594564959,46035.90961627663
5014.321671503363,47642.288034571095
5014.347748577381,48287.04930878343
