wave,flux
5000.025812696027,44290.17371971264
5000.051815424163,42385.63495334284
5000.0778182875265,40594.85275014323
5000.103821286119,39134.002404892344
5000.12982441994,37543.67443032804
5000.155827688991,36252.71836985354
5000.181831093272,36221.25186017242
5000.207834632784,37099.37698700293
5000.2338383075285,38562.57281381556
5000.259842117506,40264.79281050153
5000.285846062716,42252.2902486357
5000.311850143161,44091.10289221081
5000.33785435884,45494.281819892414
5000.363858709754,46310.07654735652
5000.389863195905,46780.30237790652
5000.415867817292,46594.842783950684
5000.441872573917,45869.26736358307
5000.4678774657805,45092.79030765624
5000.493882492882,43788.03581216955
5000.519887655224,42132.42716717835
5000.545892952806,41228.983524676885
5000.571898385629,40999.840120910696
5000.597903953694,41254.39719659901
5000.623909657001,41971.02133932126
5000.649915495552,42996.302698990185
5000.675921469346,43938.41524268054
5000.701927578384,44865.930880317705
5000.727933822669,45547.96249699134
5000.7539402021985,46283.8587863237
5000.779946716975,47003.082855405104
5000.805953366999,47530.47404227103
5000.831960152272,48098.34180408735
5000.857967072792,48889.037528024666
5000.883974128563,49523.478377963154
5000.9099813195835,49797.58468033704
5000.935988645855,50185.93469878498
5000.961996107378,50420.27524017156
5000.988003704153,51010.723201894856
5001.014011436181,50916.94023653803
5001.040019303464,50821.22784194303
5001.066027306,51123.4394782498
5001.092035443791,50755.169762509715
5001.118043716839,50213.09505231887
5001.1440521251425,49432.493714511176
5001.170060668704,48538.82064439872
5001.196069347523,47409.38918208113
5001.222078161601,45741.41008128494
5001.248087110937,43903.41159755514
5001.274096195534,42320.851762054575
5001.300105415392,41002.54460668366
5001.326114770512,40274.62391896636
5001.352124260892,40422.32667796929
5001.3781338865365,40890.21073085912
5001.4041436474445,40826.124513094626
5001.430153543616,41004.06946132616
5001.456163575053,40781.154711181574
5001.482173741756,40152.33050907227
5001.508184043724,38430.658638030014
5001.534194480961,36329.92157507498
5001.560205053464,34167.01947708001
5001.586215761236,31661.293217759467
5001.612226604278,29031.970584344363
5001.638237582589,27002.62216547293
5001.664248696171,25660.908332053936
5001.690259945024,25104.825963562325
5001.716271329149,25815.72366395238
5001.742282848547,27417.126756208203
5001.768294503218,29606.990650223644
5001.794306293164,32551.757656212496
5001.820318218383,35695.314691227584
5001.84633027888,39050.85685768726
5001.872342474651,41906.01935158174
5001.8983548056995,44926.81726112123
5001.924367272026,47673.624305155645
5001.9503798736305,49941.60072342192
5001.976392610514,51262.360261432375
5002.002405482678,52406.88868021551
5002.028418490122,53505.66152845035
5002.054431632847,53981.52253373281
5002.080444910854,54180.09919144904
5002.106458324142,54253.463531744674
5002.1324718727155,54174.787122689406
5002.158485556572,54238.48405259734
5002.184499375713,53646.77144061077
5002.210513330139,52969.80304413988
5002.236527419852,52592.81635697842
5002.262541644852,52429.871267573086
5002.288556005138,51814.06552509163
5002.314570500714,51318.32952038
5002.340585131577,50674.35103784116
5002.36659989773,49988.74395725705
5002.392614799174,48883.20127528482
5002.418629835909,47922.947326699956
5002.444645007936,46951.66808443207
5002.4706603152545,45541.54758128488
5002.496675757866,43835.941639233475
5002.522691335772,42271.69787096889
5002.548707048972,40698.052153502664
5002.574722897468,38752.569607118436
5002.600738881259,37410.725110259715
5002.626755000347,37546.704759391156
5002.652771254732,38505.256816851754
5002.678787644415,40519.46505207755
5002.704804169397,42432.75621922011
5002.730820829678,44818.175166704124
5002.75683762526,47034.702562565086
5002.782854556142,49061.04755278599
5002.8088716223265,50615.101356393876
5002.834888823812,51949.73171650053
5002.860906160601,53076.36335259916
5002.886923632695,53811.004483406155
5002.912941240092,54262.99556465177
5002.938958982793,54361.98963062719
5002.9649768608015,54434.98012517428
5002.990994874116,54543.0147225239
5003.017013022737,54545.71116705743
5003.043031306666,54831.951788626924
5003.069049725905,54442.11019215033
5003.095068280452,54620.417909561045
5003.121086970309,54694.13080570087
5003.147105795477,54438.02080674104
5003.173124755956,54343.48914051296
5003.199143851748,54221.57632229771
5003.225163082852,54443.93706641326
5003.251182449269,54275.00094784643
5003.277201951001,53831.92495816541
5003.3032215880485,53652.82242674116
5003.32924136041,53612.114128962145
5003.35526126809,53586.40224332831
5003.381281311085,53444.794656697544
5003.407301489398,53080.776887659245
5003.433321803031,52530.249452367505
5003.459342251982,51755.45307442996
5003.4853628362525,50944.67791499867
5003.511383555844,50235.23669123476
5003.537404410757,49507.61262332199
5003.563425400991,49086.734072505096
5003.589446526548,48895.57751938845
5003.615467787429,49074.70233457678
5003.641489183634,49149.846576914635
5003.667510715163,48973.42150878825
5003.693532382018,49088.200920729345
5003.719554184199,48799.35689829482
5003.745576121707,48539.79621635484
5003.771598194542,48034.23540546955
5003.797620402706,46924.4151762769
5003.823642746199,45842.82584138265
5003.849665225021,45212.90456777192
5003.875687839174,44944.30315612946
5003.901710588658,45216.73819459316
5003.927733473473,46000.52392704677
5003.953756493622,46896.54285412075
5003.979779649103,47858.91298048113
5004.005802939919,48613.42125783569
5004.031826366068,49655.179806678
5004.057849927553,50263.445801632944
5004.083873624375,51035.815370504395
5004.109897456533,51123.32796781478
5004.135921424028,51435.958242682165
5004.161945526862,51655.7700133008
5004.187969765035,51875.44425317982
5004.213994138547,52275.27378358398
5004.240018647399,52662.279206477004
5004.266043291592,53240.0610522257
5004.292068071127,53621.648106544904
5004.318092986004,53669.09719846003
5004.344118036223,53945.88172880512
5004.370143221788,54443.34836780091
5004.396168542696,54856.97290430222
5004.422193998949,55026.18363852955
5004.448219590549,54872.38650846604
5004.474245317495,54594.730861258984
5004.500271179789,54292.8937690701
5004.52629717743,54590.30209700333
5004.5523233104195,54481.737035007805
5004.578349578759,53735.87322557594
5004.604375982449,52873.11988429246
5004.630402521489,52302.410839430726
5004.656429195881,51848.90877555751
5004.682456005625,51047.53552029948
5004.708482950721,50455.45956156182
5004.734510031172,49816.8692888688
5004.760537246977,49064.39909402423
5004.7865645981365,48066.03948689456
5004.812592084652,46907.41141565166
5004.838619706525,45551.83566299715
5004.8646474637535,43707.8894717805
5004.890675356341,41825.34465532321
5004.916703384286,39547.46852833643
5004.942731547591,37502.731193882435
5004.968759846256,36138.92232371481
5004.994788280281,35490.75693012947
5005.020816849668,35976.01814901908
5005.046845554417,37463.23616553773
5005.072874394528,39216.389238484764
5005.098903370003,41273.28357503817
5005.124932480842,43021.30373321309
5005.150961727047,44245.021073089105
5005.176991108617,45237.257005300606
5005.203020625552,46013.657385975646
5005.229050277856,46328.0860778762
5005.255080065526,45954.52798824996
5005.281109988566,45291.25229058481
5005.3071400469735,44268.318981321834
5005.333170240751,42555.775049272874
5005.3592005699,40566.14486872675
5005.38523103442,38357.407267194554
5005.411261634312,35789.65040349148
5005.4372923695755,32890.408112964804
5005.463323240213,30389.631022136626
5005.489354246225,28144.371598595597
5005.515385387611,26374.829485203627
5005.541416664373,25404.8080962995
5005.567448076511,25493.16652318687
5005.593479624025,26086.895846523727
5005.619511306918,27040.44992417515
5005.645543125189,28524.854859370018
5005.671575078838,29535.932194940837
5005.697607167867,30367.688769881806
5005.723639392277,30826.98809809427
5005.749671752068,30585.373053711268
5005.77570424724,29868.741255321464
5005.8017368777955,28645.79949985991
5005.8277696437335,26824.708106653532
5005.853802545055,24742.741867552948
5005.879835581762,22928.0050272167
5005.905868753854,21702.131363067634
5005.931902061331,21205.991760489298
5005.957935504196,21721.415491067975
5005.983969082448,23104.44419029066
5006.010002796088,25403.47539601583
5006.036036645117,28045.282350752546
5006.062070629536,31090.426567097864
5006.088104749344,34521.799316656834
5006.114139004544,37720.16315798406
5006.140173395135,41257.837409976026
5006.166207921118,44489.51575464203
5006.192242582495,47042.91821691139
5006.218277379266,49290.04724514793
5006.244312311431,50931.14928992019
5006.270347378991,52257.62827445904
5006.296382581946,53148.422203827475
5006.322417920299,53388.034815480845
5006.348453394048,53557.561223062934
5006.374489003196,53822.34755939664
5006.400524747743,53867.13229139193
5006.426560627688,53723.4574580085
5006.452596643034,53764.12797534143
5006.47863279378,53326.46891800257
5006.504669079928,53515.74177398552
5006.530705501478,53249.76217250904
5006.556742058431,53153.09970755159
5006.582778750788,53151.52034712142
5006.608815578549,52868.911900682586
5006.634852541715,52057.977962611425
5006.660889640287,51202.58048699209
5006.686926874265,50433.596111569444
5006.71296424365,49742.62696361266
5006.739001748444,48794.40526669031
5006.765039388645,47624.79247820532
5006.791077164256,46286.75722512332
5006.817115075277,44905.32323706786
5006.843153121708,43268.6386897431
5006.869191303552,41172.35146775102
5006.895229620806,38886.76315765023
5006.921268073474,36284.63726965129
5006.947306661555,33237.6956588163
5006.97334538505,30278.675140599124
5006.999384243961,27703.73694662764
5007.025423238286,25690.42274686411
5007.051462368028,24615.09783915817
5007.077501633187,24912.35781083565
5007.103541033764,25946.083286151214
5007.129580569759,27970.197101086014
5007.155620241173,30480.67054743229
5007.181660048007,33744.567636261796
5007.207699990262,36900.79709734735
5007.233740067937,40054.6365375573
5007.259780281035,43243.9783109293
5007.285820629555,45748.5767150803
5007.311861113499,48026.971999553876
5007.337901732866,49960.563160939084
5007.363942487658,51279.45753758721
5007.389983377876,52051.226340691705
5007.41602440352,52231.67161139948
5007.442065564591,52025.41257595291
5007.468106861089,51798.9373115946
5007.494148293015,51688.59914707138
5007.520189860371,51424.548217474265
5007.546231563156,51011.82355955126
5007.572273401372,50938.83211218971
5007.598315375018,51504.40511646799
5007.624357484096,52482.018000336364
5007.650399728607,53146.585196922664
5007.676442108551,53643.42601369622
5007.702484623929,54148.20217400077
5007.728527274741,54643.0072465537
5007.754570060989,55212.66663571456
5007.780612982673,55412.83206138859
5007.806656039793,55543.30899950181
5007.832699232351,55920.733260552486
5007.858742560347,55626.34706731425
5007.884786023782,55679.40467048122
5007.910829622656,56046.21120593657
5007.936873356971,55873.941125341764
5007.962917226726,55930.88393781482
5007.988961231923,56135.75824913693
5008.015005372563,56132.14667253329
5008.041049648646,56028.33940140464
5008.067094060171,55761.041803432796
5008.0931386071425,56195.70915600196
5008.119183289558,56259.321405931936
5008.14522810742,56198.08218089292
5008.171273060728,56178.84516493896
5008.197318149483,56244.12520431891
5008.223363373687,56355.64147296887
5008.249408733339,55987.4456758282
5008.27545422844,55776.6949402131
5008.301499858992,55655.60749692611
5008.327545624995,55131.761268788694
5008.353591526448,55088.7621703613
5008.379637563355,54594.89452792609
5008.405683735714,54121.55790701054
5008.431730043527,53879.49824583182
5008.457776486794,53469.529956466686
5008.483823065515,53553.37885188069
5008.509869779693,53907.987765721395
5008.535916629327,54189.3740404255
5008.561963614418,54699.06004922272
5008.588010734968,55169.393682534195
5008.614057990975,55291.357032751075
5008.640105382442,55457.729710975975
5008.666152909369,55837.40306923713
5008.692200571756,55831.469558843586
5008.718248369605,55555.050109493444
5008.744296302916,55616.22835961458
5008.77034437169,55619.845187266554
5008.796392575927,55742.97265318483
5008.822440915628,56024.60395182457
5008.848489390794,55901.67804655206
5008.874538001426,55860.303476241126
5008.900586747524,55816.902152231516
5008.926635629089,55966.62052026121
5008.952684646122,56117.86734375736
5008.978733798623,56118.15841678027
5009.004783086593,56130.27875279847
5009.030832510033,56211.89317940051
5009.056882068944,56137.12118067175
5009.082931763326,56074.84602285994
5009.108981593179,56003.72533081881
5009.135031558506,55888.10204334346
5009.161081659306,55959.05565723781
5009.187131895579,55855.15001294619
5009.213182267327,55495.84640145859
5009.239232774552,55236.67648378661
5009.265283417251,55065.69362926583
5009.291334195428,54939.04627730283
5009.317385109083,54581.930579500564
5009.343436158216,54360.89097543315
5009.369487342828,54112.887295240536
5009.395538662919,53821.184422711
5009.421590118491,53492.04385858479
5009.447641709544,53160.062538392434
5009.473693436078,52984.962651292786
5009.499745298095,52996.31326588587
5009.525797295596,53024.564297837554
5009.55184942858,52938.09899601104
5009.577901697049,52974.18672331525
5009.603954101003,52929.15035363506
5009.630006640443,52415.08656508737
5009.65605931537,51786.24823969995
5009.682112125784,51260.52057724154
5009.708165071686,50582.96016558712
5009.7342181530785,49764.9252048314
5009.760271369959,48459.51743002422
5009.78632472233,47009.41471144962
5009.812378210192,45485.98584609348
5009.838431833546,43937.52224068025
5009.864485592391,42657.160371770595
5009.890539486731,41501.98531148574
5009.916593516564,40563.94936528486
5009.942647681891,39429.19694632827
5009.968701982713,38085.363077844806
5009.994756419032,37009.21094602509
5010.020810990847,36183.824611084325
5010.046865698159,36689.302565363214
5010.072920540969,37676.47002350151
5010.098975519279,39766.41484275273
5010.125030633087,42139.702026299456
5010.151085882395,44462.01196743827
5010.177141267204,46665.808775289064
5010.2031967875155,49002.34900398756
5010.229252443328,50794.236091759754
5010.255308234644,52360.54442362165
5010.281364161464,53690.31069374162
5010.307420223788,54520.11975512402
5010.333476421617,54984.30725906396
5010.359532754951,55528.228420312924
5010.3855892237925,55535.47996248327
5010.4116458281405,55407.49313571078
5010.437702567997,55378.35608238845
5010.463759443362,55275.50548192008
5010.489816454236,55106.412675299565
5010.51587360062,54701.86355761501
5010.541930882514,54069.368127683294
5010.56798829992,53272.09314057182
5010.5940458528385,52301.351675991296
5010.62010354127,51316.75435860564
5010.646161365214,50202.64357787778
5010.672219324672,48874.77499017448
5010.698277419646,47753.21364455462
5010.724335650135,46361.243419740305
5010.7503940161405,45425.43222556627
5010.7764525176635,46060.34106654102
5010.802511154703,46881.20089360419
5010.828569927262,47706.45257028982
5010.85462883534,49364.9219660638
5010.880687878937,50940.0035495425
5010.906747058056,52108.316862621905
5010.932806372695,53191.78309647415
5010.958865822856,54159.676817228225
5010.98492540854,54660.46458187993
5011.0109851297475,55379.830217081944
5011.0370449864795,55442.5523316271
5011.063104978735,55623.669497100615
5011.089165106517,55882.83140393446
5011.115225369825,55884.33111602946
5011.14128576866,56020.88366496545
5011.167346303022,56066.367878419274
5011.193406972913,56104.6844118153
5011.219467778333,56029.22365271857
5011.2455287192815,55788.99376671751
5011.271589795761,55901.77998874973
5011.297651007772,55914.75638548678
5011.323712355315,55410.06387305703
5011.34977383839,54787.70121596596
5011.375835456999,54189.266860918564
5011.401897211142,53576.31061869676
5011.427959100819,52982.07733239776
5011.454021126031,51852.118263658514
5011.4800832867795,50397.67580513885
5011.506145583065,48796.50999136123
5011.532208014888,47134.21401703547
5011.558270582248,45424.05701071949
5011.584333285148,44207.22556256334
5011.610396123588,42785.64156876924
5011.636459097567,41281.074286086136
5011.662522207088,39671.02858788768
5011.68858545215,37569.629280777735
5011.714648832754,35275.934518164424
5011.740712348902,32808.413276069885
5011.766776000594,29944.518394268373
5011.79283978783,27043.018949577297
5011.818903710611,24229.566178989244
5011.844967768939,22023.376562516954
5011.871031962813,20529.52578513228
5011.897096292234,19931.533472192048
5011.923160757203,20367.92171729303
5011.949225357721,21732.951422276485
5011.975290093788,23776.92239337206
5012.001354965406,26284.133803262983
5012.027419972574,29069.655094730326
5012.053485115294,31946.236877101514
5012.079550393566,34743.45842358933
5012.105615807392,37028.10914672771
5012.13168135677,38824.05931459477
5012.157747041703,40160.786290259886
5012.183812862192,40737.168910184206
5012.209878818236,40953.09140305551
5012.235944909837,40622.36138399753
5012.262011136994,40468.80008633191
5012.28807749971,41079.37638729663
5012.3141439979845,42030.89387526597
5012.340210631818,43305.32698594614
5012.366277401212,44326.69991219983
5012.392344306166,45337.95376636186
5012.418411346682,46377.66110423249
5012.44447852276,46897.96279101406
5012.470545834401,46953.0047913043
5012.496613281605,47086.70402269624
5012.522680864374,47584.760215949034
5012.548748582707,48333.19557427608
5012.574816436606,49482.61531406133
5012.600884426071,50423.32308763606
5012.626952551104,51341.21551944629
5012.653020811705,52307.76839805103
5012.679089207873,53093.51980501235
5012.705157739611,53506.158436083904
5012.73122640692,53719.4789923885
5012.757295209798,53913.08723401133
5012.7833641482475,54059.99803394733
5012.80943322227,54006.587290354575
5012.835502431864,53662.85798985976
5012.861571777033,53320.199700110395
5012.887641257775,53051.8405591073
5012.9137108740915,52580.326636683465
5012.939780625984,51714.61332058738
5012.965850513452,50429.38105295134
5012.991920536498,49122.76106975952
5013.017990695121,47556.915956200675
5013.044060989323,45434.981562529065
5013.070131419104,43300.34649595375
5013.096201984464,41219.324881887514
5013.122272685405,39563.32171662866
5013.148343521927,38522.68675545383
5013.17441449403,38712.1700584396
5013.200485601717,39231.6217455495
5013.226556844987,39879.18792590001
5013.2526282238405,40317.74875534454
5013.278699738279,40501.50709491387
5013.304771388303,40067.97909643772
5013.330843173913,39209.26472790588
5013.35691509511,37897.3571864534
5013.382987151894,35877.01490005412
5013.409059344267,33702.88042811253
5013.435131672228,31382.30941266252
5013.46120413578,29196.946052473915
5013.487276734921,27648.648819696682
5013.513349469653,27207.943430675496
5013.539422339977,27825.381138582634
5013.565495345894,29168.070361782517
5013.5915684874035,31470.976803211135
5013.617641764507,33981.05086289203
5013.643715177206,36363.9957420699
5013.6697887254995,38884.08225652362
5013.695862409389,40909.50046504845
5013.721936228875,42617.42462913437
5013.748010183958,44151.39245146804
5013.77408427464,45070.40806821742
5013.800158500921,45638.06862768558
5013.826232862801,45611.63041253966
5013.852307360281,44850.339196887035
5013.8783819933615,43399.0646677622
5013.904456762045,41425.031149186856
5013.930531666329,39199.86131859501
5013.956606706218,36384.393033976456
5013.982681881709,33539.72280833326
5014.008757192805,31101.676473626656
5014.034832639507,29484.705197454372
5014.060908221814,28692.69066359577
5014.086983939728,29002.318955610197
5014.113059793249,30070.208636375017
5014.139135782378,32598.419375557252
5014.165211907116,35245.00193288276
5014.1912881674625,38502.035211842165
5014.21736456342,41437.88261558712
5014.243441094988,43961.39000889997
5014.269517762167,46069.57301737364
5014.295594564959,47932.60339766325
5014.321671503363,49049.82969523256
5014.347748577381,49509.65089183292
