wave,flux
5000.025812696027,29634.17532425725
5000.051815424163,28256.05245118448
5000.0778182875265,26863.868741409402
5000.103821286119,25445.61743737198
5000.12982441994,24448.139659850534
5000.155827688991,24481.551545330167
5000.181831093272,25103.92261403386
5000.207834632784,26338.732368291065
5000.2338383075285,28030.70160270315
5000.259842117506,29817.307520940147
5000.285846062716,31206.28542388506
5000.311850143161,32436.472030689732
5000.33785435884,33145.692508950124
5000.363858709754,33298.727827375464
5000.389863195905,33103.95377548638
5000.415867817292,32415.63896238863
5000.441872573917,31390.06376632656
5000.4678774657805,30116.35051026625
5000.493882492882,29065.757302105496
5000.519887655224,27979.199459756022
5000.545892952806,27789.379556825916
5000.571898385629,28116.108863612102
5000.597903953694,29128.031166734283
5000.623909657001,29965.06659001035
5000.649915495552,30791.315544672096
5000.675921469346,31723.358858924537
5000.701927578384,32151.69138614185
5000.727933822669,32285.366437961147
5000.7539402021985,32693.9106353101
5000.779946716975,33166.50433374526
5000.805953366999,33588.78950553001
5000.831960152272,34167.29158427073
5000.857967072792,34640.66869157431
5000.883974128563,35003.57725977609
5000.9099813195835,35419.96149292113
5000.935988645855,35517.88111309488
5000.961996107378,35752.47769141737
5000.988003704153,35585.91105963809
5001.014011436181,35611.20020144631
5001.040019303464,35518.401255887875
5001.066027306,35558.322247618395
5001.092035443791,35391.73356211056
5001.118043716839,34774.131509825864
5001.1440521251425,34015.097534937886
5001.170060668704,33299.35879754697
5001.196069347523,32097.878836121967
5001.222078161601,30469.037471774176
5001.248087110937,29136.349020787628
5001.274096195534,28161.006622371857
5001.300105415392,27734.263408770414
5001.326114770512,27764.04381483421
5001.352124260892,28590.921430939226
5001.3781338865365,29058.152864306063
5001.4041436474445,29106.669479557364
5001.430153543616,29058.45065342261
5001.456163575053,28420.100062816495
5001.482173741756,27437.379300884917
5001.508184043724,25982.266210553633
5001.534194480961,24023.888465403423
5001.560205053464,21977.49801148383
5001.586215761236,19935.475061158893
5001.612226604278,18050.44075816279
5001.638237582589,16809.271598324798
5001.664248696171,16513.878351238724
5001.690259945024,17112.42255607298
5001.716271329149,18348.780964967496
5001.742282848547,20398.342225037282
5001.768294503218,22764.57911868118
5001.794306293164,25467.000871845623
5001.820318218383,27842.674333250583
5001.84633027888,30329.024288180564
5001.872342474651,32324.1745882626
5001.8983548056995,33747.744446885845
5001.924367272026,35155.2184210817
5001.9503798736305,36233.45665413785
5001.976392610514,36999.07053195461
5002.002405482678,37412.675913601546
5002.028418490122,37676.31457706731
5002.054431632847,37875.3684655465
5002.080444910854,37998.927805590174
5002.106458324142,38111.41309087144
5002.1324718727155,37741.98616498647
5002.158485556572,37555.2676695717
5002.184499375713,37244.05414962365
5002.210513330139,37056.50270432327
5002.236527419852,36377.80833460925
5002.262541644852,36218.78410956844
5002.288556005138,35875.204934908645
5002.314570500714,35535.67370681083
5002.340585131577,35102.77917735964
5002.36659989773,34373.63579066805
5002.392614799174,33837.59585005917
5002.418629835909,33115.582989850715
5002.444645007936,32091.394291646204
5002.4706603152545,31026.252944658318
5002.496675757866,29646.252994163293
5002.522691335772,27868.185096787307
5002.548707048972,26257.923442921627
5002.574722897468,25393.037627303
5002.600738881259,25234.291660878625
5002.626755000347,26155.487690951704
5002.652771254732,27986.26571011602
5002.678787644415,29825.314480140096
5002.704804169397,31667.20509983628
5002.730820829678,33322.30675870599
5002.75683762526,34759.44221646082
5002.782854556142,35991.33116659338
5002.8088716223265,36800.677898289076
5002.834888823812,37444.408970644836
5002.860906160601,38085.08969247399
5002.886923632695,38145.47052809081
5002.912941240092,38244.66145243428
5002.938958982793,38525.28293562904
5002.9649768608015,38291.299180762544
5002.990994874116,38258.390690460175
5003.017013022737,38333.91742117841
5003.043031306666,38325.6886773106
5003.069049725905,38331.69009117798
5003.095068280452,38210.882937324495
5003.121086970309,38134.63008757924
5003.147105795477,38004.56930001666
5003.173124755956,37869.081453173814
5003.199143851748,37745.00375692069
5003.225163082852,37884.59624526621
5003.251182449269,37807.98431635448
5003.277201951001,37795.16933197575
5003.3032215880485,37795.779817385075
5003.32924136041,37631.517957333555
5003.35526126809,37386.56281888733
5003.381281311085,37116.45398811082
5003.407301489398,36943.88671304809
5003.433321803031,36545.6677718337
5003.459342251982,35720.96674740495
5003.4853628362525,35185.32596761401
5003.511383555844,34335.78599381186
5003.537404410757,33877.9039199991
5003.563425400991,33982.16882562871
5003.589446526548,33848.263864628505
5003.615467787429,34093.71701895939
5003.641489183634,34558.02201664684
5003.667510715163,34824.2337827131
5003.693532382018,34527.20707363284
5003.719554184199,34130.66267936653
5003.745576121707,33420.7309321826
5003.771598194542,32649.206202144058
5003.797620402706,31799.396785957673
5003.823642746199,31106.543166664404
5003.849665225021,30950.920819791998
5003.875687839174,31150.666209280378
5003.901710588658,31900.34036447736
5003.927733473473,32997.471645628655
5003.953756493622,33661.087224505885
5003.979779649103,34259.370009818
5004.005802939919,34811.11721152457
5004.031826366068,35351.425174962205
5004.057849927553,35623.57069460717
5004.083873624375,35929.442000095405
5004.109897456533,35841.51836429566
5004.135921424028,36155.58534746685
5004.161945526862,36021.503832971575
5004.187969765035,36315.88251707829
5004.213994138547,36716.20571203718
5004.240018647399,37043.04376795441
5004.266043291592,37502.40050288442
5004.292068071127,37969.66282858292
5004.318092986004,38137.865476021005
5004.344118036223,38022.00261935574
5004.370143221788,38055.00736225557
5004.396168542696,38281.64074790264
5004.422193998949,38454.02219306739
5004.448219590549,38447.08680435642
5004.474245317495,38278.67356145834
5004.500271179789,38390.74713744789
5004.52629717743,38119.68560809749
5004.5523233104195,37634.2284765885
5004.578349578759,37182.39773388951
5004.604375982449,36667.38163017703
5004.630402521489,36364.45654250492
5004.656429195881,35608.64341686826
5004.682456005625,35260.1311076031
5004.708482950721,34975.49642935391
5004.734510031172,34447.695740433795
5004.760537246977,33925.44938787552
5004.7865645981365,33122.8289741062
5004.812592084652,32109.615430862512
5004.838619706525,30909.711005171335
5004.8646474637535,29053.640102442845
5004.890675356341,27026.39899487581
5004.916703384286,25426.94696027652
5004.942731547591,24368.543450627712
5004.968759846256,23774.696682273123
5004.994788280281,24138.708639473454
5005.020816849668,25506.352056066055
5005.046845554417,27405.364158125572
5005.072874394528,29116.063624585913
5005.098903370003,30685.522250506223
5005.124932480842,31627.51630774174
5005.150961727047,32235.3266188983
5005.176991108617,32643.151733710394
5005.203020625552,32808.94014218718
5005.229050277856,32675.765488520166
5005.255080065526,32168.067505521743
5005.281109988566,31280.70728112772
5005.3071400469735,30157.25079363385
5005.333170240751,28739.90668707928
5005.3592005699,26990.441499438588
5005.38523103442,25145.935085044173
5005.411261634312,23058.856456091762
5005.4372923695755,20807.94585160278
5005.463323240213,18715.471214091067
5005.489354246225,17630.001040263654
5005.515385387611,16786.459388710966
5005.541416664373,16955.754719639852
5005.567448076511,17779.56203084896
5005.593479624025,18786.29563123511
5005.619511306918,19947.848329153494
5005.645543125189,21203.79583000582
5005.671575078838,21987.903817033864
5005.697607167867,22374.961534155995
5005.723639392277,22276.775340364034
5005.749671752068,21680.236102760417
5005.77570424724,20449.055617473736
5005.8017368777955,18605.490447392633
5005.8277696437335,16806.163512341976
5005.853802545055,15313.66012228485
5005.879835581762,14112.087602377354
5005.905868753854,13666.712117560552
5005.931902061331,14025.287377647102
5005.957935504196,15206.937018527946
5005.983969082448,17139.32489355951
5006.010002796088,19461.885961571556
5006.036036645117,22001.098024937975
5006.062070629536,24506.255785143512
5006.088104749344,27135.631610155287
5006.114139004544,29482.709317690704
5006.140173395135,31812.386470985002
5006.166207921118,33720.80892553338
5006.192242582495,35268.16453025251
5006.218277379266,36279.49599669578
5006.244312311431,36976.89324653783
5006.270347378991,37318.199290990975
5006.296382581946,37218.1302271317
5006.322417920299,37269.24766856139
5006.348453394048,37554.81309380073
5006.374489003196,37419.2026274832
5006.400524747743,37209.79569043901
5006.426560627688,37350.85112460672
5006.452596643034,37272.11307848921
5006.47863279378,37434.56034284806
5006.504669079928,37208.96941048154
5006.530705501478,37007.924566603004
5006.556742058431,36935.062274219046
5006.582778750788,36944.84220745204
5006.608815578549,36514.49404250757
5006.634852541715,36114.88273844196
5006.660889640287,35552.19843636673
5006.686926874265,34946.40666731813
5006.71296424365,34239.19424285094
5006.739001748444,33369.46030781183
5006.765039388645,32668.756629707594
5006.791077164256,31898.75849344434
5006.817115075277,30730.81273020422
5006.843153121708,29240.909363170056
5006.869191303552,27444.07951327573
5006.895229620806,25438.39934776014
5006.921268073474,23234.698261699563
5006.947306661555,20782.485678274126
5006.97334538505,18551.389275789243
5006.999384243961,16887.266725764533
5007.025423238286,16057.321309022034
5007.051462368028,16242.178673829714
5007.077501633187,17208.57733363186
5007.103541033764,19032.05545039539
5007.129580569759,21142.031888343798
5007.155620241173,23618.492797344927
5007.181660048007,26116.012071528497
5007.207699990262,28747.60185243701
5007.233740067937,30796.75829743591
5007.259780281035,32686.646516038407
5007.285820629555,34405.09389059984
5007.311861113499,35533.5929282126
5007.337901732866,36223.69932093632
5007.363942487658,36884.97356365679
5007.389983377876,37081.21580080047
5007.41602440352,36846.97729651052
5007.442065564591,36518.687574075884
5007.468106861089,35938.910713692356
5007.494148293015,35411.556163530244
5007.520189860371,35277.67440804702
5007.546231563156,35497.54539819349
5007.572273401372,35986.675220756784
5007.598315375018,36324.68196230374
5007.624357484096,37069.62433244575
5007.650399728607,37881.49369952615
5007.676442108551,38162.23597975528
5007.702484623929,38473.42342568373
5007.728527274741,38803.693782145994
5007.754570060989,38900.68971706969
5007.780612982673,38989.65510993101
5007.806656039793,38981.62051848211
5007.832699232351,38957.66513774986
5007.858742560347,39022.731227010125
5007.884786023782,39025.85641913506
5007.910829622656,39037.57805037409
5007.936873356971,39117.566002160485
5007.962917226726,39145.017414366586
5007.988961231923,39295.309158232216
5008.015005372563,39280.64830380266
5008.041049648646,39353.68444901358
5008.067094060171,39683.53574627477
5008.0931386071425,39598.67626847163
5008.119183289558,39488.53953442146
5008.14522810742,39395.478779668454
5008.171273060728,39374.81729944989
5008.197318149483,39441.78466954939
5008.223363373687,39265.6243857459
5008.249408733339,39333.974304760166
5008.27545422844,39073.57465330084
5008.301499858992,38657.390777482506
5008.327545624995,38616.06662702577
5008.353591526448,38155.40884435505
5008.379637563355,37818.74477326707
5008.405683735714,37609.959566601625
5008.431730043527,37323.87175889061
5008.457776486794,37521.43097264737
5008.483823065515,37621.86614813274
5008.509869779693,37875.705814223824
5008.535916629327,38215.35626693782
5008.561963614418,38646.64859575708
5008.588010734968,38842.58077638853
5008.614057990975,38894.080002696275
5008.640105382442,39107.30065863396
5008.666152909369,39069.35275081763
5008.692200571756,39021.519026030786
5008.718248369605,39170.731961353784
5008.744296302916,39037.283861508855
5008.77034437169,38898.78358779309
5008.796392575927,38943.32542851719
5008.822440915628,38989.59112002093
5008.848489390794,38917.95203046091
5008.874538001426,39193.19636126395
5008.900586747524,38979.93717653561
5008.926635629089,39034.23068781812
5008.952684646122,39227.10147620248
5008.978733798623,39264.27555522022
5009.004783086593,39291.69538930356
5009.030832510033,39169.78276937473
5009.056882068944,39382.46338300744
5009.082931763326,39476.93335632144
5009.108981593179,39434.20630177699
5009.135031558506,39173.191775836814
5009.161081659306,39070.21748963802
5009.187131895579,39016.96877279441
5009.213182267327,38769.17945845246
5009.239232774552,38558.147527043955
5009.265283417251,38374.41531809977
5009.291334195428,38133.9214251326
5009.317385109083,37981.05555695417
5009.343436158216,37828.84809590106
5009.369487342828,37534.94181352178
5009.395538662919,37242.38371720072
5009.421590118491,36987.93220982506
5009.447641709544,36821.94912760574
5009.473693436078,36884.90751423351
5009.499745298095,36980.548777398886
5009.525797295596,37309.99931055181
5009.55184942858,37126.0380527504
5009.577901697049,37109.00707874549
5009.603954101003,36753.51785811626
5009.630006640443,36560.06756576806
5009.65605931537,36178.63548976011
5009.682112125784,35631.67015707339
5009.708165071686,34917.503343895914
5009.7342181530785,33925.15512085772
5009.760271369959,32763.67140851603
5009.78632472233,31551.56257180596
5009.812378210192,30532.592366735047
5009.838431833546,29771.18661592174
5009.864485592391,28985.15996282503
5009.890539486731,28247.93720656792
5009.916593516564,27410.096423228846
5009.942647681891,26303.24825782938
5009.968701982713,25197.24545989218
5009.994756419032,24589.223929490257
5010.020810990847,24909.96477582858
5010.046865698159,25747.56506789663
5010.072920540969,27236.92435387294
5010.098975519279,29389.115917279763
5010.125030633087,31258.202178383788
5010.151085882395,33049.12127132454
5010.177141267204,34563.11741945782
5010.2031967875155,36068.64813692988
5010.229252443328,37242.487567662814
5010.255308234644,37896.02922557376
5010.281364161464,38505.571184596236
5010.307420223788,38616.611653260115
5010.333476421617,38946.93658505707
5010.359532754951,38871.24577586296
5010.3855892237925,39025.17174200729
5010.4116458281405,38891.18729709767
5010.437702567997,38782.48128975998
5010.463759443362,38483.637001057636
5010.489816454236,38495.190711991614
5010.51587360062,38342.745488560395
5010.541930882514,37467.594615262264
5010.56798829992,36664.435700794456
5010.5940458528385,35990.566426975616
5010.62010354127,35227.454375644134
5010.646161365214,34144.07781902974
5010.672219324672,32688.92245204625
5010.698277419646,31669.452385724988
5010.724335650135,31236.553792204115
5010.7503940161405,31388.27246472644
5010.7764525176635,32071.43477029575
5010.802511154703,33279.600812362274
5010.828569927262,34545.39808238752
5010.85462883534,35804.109343018106
5010.880687878937,36696.99299982864
5010.906747058056,37689.880242178195
5010.932806372695,38537.48511327673
5010.958865822856,38560.10689153794
5010.98492540854,38871.684857993794
5011.0109851297475,38741.94141647309
5011.0370449864795,39143.32657893202
5011.063104978735,39187.38458832208
5011.089165106517,39232.66471196904
5011.115225369825,39243.44320950447
5011.14128576866,39254.8349369594
5011.167346303022,39456.788403674844
5011.193406972913,39146.99254796746
5011.219467778333,39099.68870891748
5011.2455287192815,39009.088382463975
5011.271589795761,38991.031386663635
5011.297651007772,38835.6072018592
5011.323712355315,38477.74924813792
5011.34977383839,38119.25850152744
5011.375835456999,37646.04994885077
5011.401897211142,37198.59825329387
5011.427959100819,36373.679292425964
5011.454021126031,35243.43658796134
5011.4800832867795,34134.10518314617
5011.506145583065,32785.82635077489
5011.532208014888,31670.039817224853
5011.558270582248,30760.74692862068
5011.584333285148,29977.63570493725
5011.610396123588,28762.399522593358
5011.636459097567,27810.818889863545
5011.662522207088,26551.856836626004
5011.68858545215,24886.039106853605
5011.714648832754,22901.575489720835
5011.740712348902,20808.790618899406
5011.766776000594,18554.68599430442
5011.79283978783,16179.225463007933
5011.818903710611,14476.743469667312
5011.844967768939,13154.206359698323
5011.871031962813,12681.246190285518
5011.897096292234,13218.18889682082
5011.923160757203,14397.684513866565
5011.949225357721,16027.242883038109
5011.975290093788,18079.222307708995
5012.001354965406,20417.7200301468
5012.027419972574,22849.06222862487
5012.053485115294,25122.301422394627
5012.079550393566,26843.64270492137
5012.105615807392,28148.130483905734
5012.13168135677,28932.068361763206
5012.157747041703,29081.515033431064
5012.183812862192,28680.725977165494
5012.209878818236,27972.589821328835
5012.235944909837,27756.159329217695
5012.262011136994,28142.72796116903
5012.28807749971,29010.855449170842
5012.3141439979845,30174.892072618535
5012.340210631818,31305.14102331246
5012.366277401212,32458.65996651901
5012.392344306166,33042.65841034933
5012.418411346682,33352.20978570277
5012.44447852276,33068.137410777366
5012.470545834401,32864.63829911155
5012.496613281605,32983.225332445734
5012.522680864374,33351.85722566746
5012.548748582707,33975.91281293122
5012.574816436606,35196.58649908187
5012.600884426071,35982.814421296185
5012.626952551104,36738.655876823614
5012.653020811705,37480.96397244598
5012.679089207873,37768.70534161302
5012.705157739611,37960.12268663365
5012.73122640692,37692.05273842014
5012.757295209798,37749.24432674285
5012.7833641482475,37714.65083684466
5012.80943322227,37642.914567330496
5012.835502431864,37545.02455686027
5012.861571777033,37354.24187588353
5012.887641257775,37064.01190022254
5012.9137108740915,36543.74804537812
5012.939780625984,35532.62159855682
5012.965850513452,34421.90649686752
5012.991920536498,33356.38566874461
5013.017990695121,31901.632781668486
5013.044060989323,30020.22223628685
5013.070131419104,28182.314532536264
5013.096201984464,26939.1817194389
5013.122272685405,26267.22967547628
5013.148343521927,26316.63444468788
5013.17441449403,27058.06370988189
5013.200485601717,27813.559582922564
5013.226556844987,28531.05803415408
5013.2526282238405,28884.275783703382
5013.278699738279,28798.271770978157
5013.304771388303,28112.590469350693
5013.330843173913,26805.247300840176
5013.35691509511,25213.38331897493
5013.382987151894,23346.22993354843
5013.409059344267,21349.90749597731
5013.435131672228,19433.641023207187
5013.46120413578,18175.658079821387
5013.487276734921,17765.415134756196
5013.513349469653,18507.332695043264
5013.539422339977,19837.605846064293
5013.565495345894,21607.70940171713
5013.5915684874035,23621.634248564722
5013.617641764507,25730.5186686948
5013.643715177206,27662.512002329004
5013.6697887254995,29139.181360065126
5013.695862409389,30347.47822746761
5013.721936228875,31313.544988352816
5013.748010183958,31918.695923892905
5013.77408427464,32453.93870126219
5013.800158500921,32422.07775439194
5013.826232862801,32061.916196851726
5013.852307360281,31206.45839209669
5013.8783819933615,29596.779958681043
5013.904456762045,27572.014598607482
5013.930531666329,25272.39018853418
5013.956606706218,23047.312732671413
5013.982681881709,20976.11778676831
5014.008757192805,19447.721203965895
5014.034832639507,18852.58870434937
5014.060908221814,18937.04558842707
5014.086983939728,20033.534019041374
5014.113059793249,21894.568100837194
5014.139135782378,24290.03611777294
5014.165211907116,26901.830867722972
5014.1912881674625,29358.67106603403
5014.21736456342,31204.906106382037
5014.243441094988,32937.11047581723
5014.269517762167,34103.069739521496
5014.295594564959,35040.538246798824
