wave,flux
5000.025812696027,30857.520770546478
5000.051815424163,29567.228823329046
5000.0778182875265,28329.083189979716
5000.103821286119,27049.756876937303
5000.12982441994,25483.3750168951
5000.155827688991,24393.889535326125
5000.181831093272,24039.302015167636
5000.207834632784,24560.99287012641
5000.2338383075285,25593.477853250846
5000.259842117506,27121.47111113915
5000.285846062716,28759.89970637727
5000.311850143161,30161.75425957506
5000.33785435884,31503.402973794102
5000.363858709754,32625.430753809076
5000.389863195905,32900.900926070964
5000.415867817292,32607.538184316316
5000.441872573917,32266.100944890488
5000.4678774657805,31550.285127515977
5000.493882492882,30363.788701189038
5000.519887655224,28981.548306346966
5000.545892952806,27844.467227625395
5000.571898385629,27570.823885878945
5000.597903953694,27898.52736101565
5000.623909657001,28527.69375464108
5000.649915495552,29421.0400592349
5000.675921469346,30176.778439968253
5000.701927578384,30979.04334386733
5000.727933822669,31513.16409165365
5000.7539402021985,31882.74677248451
5000.779946716975,32144.053906034642
5000.805953366999,32393.5309044477
5000.831960152272,32950.11084601707
5000.857967072792,33585.94250234234
5000.883974128563,34061.7481679254
5000.9099813195835,34544.64070745958
5000.935988645855,34669.00417682097
5000.961996107378,35043.55765593911
5000.988003704153,34894.65674187185
5001.014011436181,35067.42588127649
5001.040019303464,35215.83955898962
5001.066027306,35150.81680450546
5001.092035443791,35069.5695757127
5001.118043716839,34967.68867350295
5001.1440521251425,34486.66853686655
5001.170060668704,33872.45527853385
5001.196069347523,33252.15074758791
5001.222078161601,32122.743747054647
5001.248087110937,30550.459372431244
5001.274096195534,29112.624174235345
5001.300105415392,27987.23397613862
5001.326114770512,27451.74310536465
5001.352124260892,27566.748656168675
5001.3781338865365,27830.77246050934
5001.4041436474445,28466.367671280765
5001.430153543616,28295.966761737865
5001.456163575053,28526.008812008353
5001.482173741756,28050.868283878568
5001.508184043724,27052.013749987815
5001.534194480961,25570.015213635466
5001.560205053464,24061.223061294597
5001.586215761236,22265.021409020006
5001.612226604278,20261.96611973427
5001.638237582589,18554.497927038214
5001.664248696171,17154.20871819885
5001.690259945024,16376.916200379643
5001.716271329149,16675.657873496588
5001.742282848547,17748.84790578288
5001.768294503218,19568.412359543017
5001.794306293164,21682.099200368084
5001.820318218383,24220.277506341594
5001.84633027888,26733.090565357852
5001.872342474651,29021.46411418188
5001.8983548056995,31288.83132024887
5001.924367272026,32813.24373328134
5001.9503798736305,34282.740155846994
5001.976392610514,35538.13740793867
5002.002405482678,36452.93952603364
5002.028418490122,36934.22240714287
5002.054431632847,37110.1077524267
5002.080444910854,37392.28276428237
5002.106458324142,37584.06272325472
5002.1324718727155,37431.938600993635
5002.158485556572,37348.50322418653
5002.184499375713,37228.98575705026
5002.210513330139,36841.652042710186
5002.236527419852,36545.94042693017
5002.262541644852,36107.675459003694
5002.288556005138,35789.82343238571
5002.314570500714,35288.242497324565
5002.340585131577,34878.538045361165
5002.36659989773,34515.00732490183
5002.392614799174,33932.85627896541
5002.418629835909,33287.933205079156
5002.444645007936,32704.052455569174
5002.4706603152545,31900.411251222155
5002.496675757866,30842.30534933244
5002.522691335772,29636.192125282396
5002.548707048972,28110.8261116205
5002.574722897468,26422.83616761217
5002.600738881259,25247.681187105085
5002.626755000347,24948.942156596662
5002.652771254732,25486.400094376
5002.678787644415,26943.394151650653
5002.704804169397,28615.594667381665
5002.730820829678,30857.498574133988
5002.75683762526,32373.988024368256
5002.782854556142,33859.3091823851
5002.8088716223265,35182.67970678643
5002.834888823812,36294.268430774006
5002.860906160601,36953.79948802207
5002.886923632695,37352.11521312156
5002.912941240092,37560.37418412831
5002.938958982793,37725.43847713413
5002.9649768608015,37794.38332258368
5002.990994874116,37703.67151394042
5003.017013022737,37676.81361565599
5003.043031306666,37766.17570627007
5003.069049725905,37973.804575204274
5003.095068280452,37761.27882714301
5003.121086970309,37948.70072713679
5003.147105795477,37748.06325014895
5003.173124755956,37768.59739026247
5003.199143851748,37516.814774789935
5003.225163082852,37340.81948018985
5003.251182449269,37202.779640367575
5003.277201951001,36884.55066123077
5003.3032215880485,36872.181787836256
5003.32924136041,37031.55439574564
5003.35526126809,37053.72557221191
5003.381281311085,36928.42925032144
5003.407301489398,36676.9969723149
5003.433321803031,36365.815945607625
5003.459342251982,35994.57766833189
5003.4853628362525,35491.316896661236
5003.511383555844,34816.31752269053
5003.537404410757,33977.30523565245
5003.563425400991,33579.797196484666
5003.589446526548,33100.194592961685
5003.615467787429,33211.556536163305
5003.641489183634,33631.72811193842
5003.667510715163,33781.54793858913
5003.693532382018,33921.973495659
5003.719554184199,33969.18896871272
5003.745576121707,33935.46960067775
5003.771598194542,33463.06933465051
5003.797620402706,32659.464693669568
5003.823642746199,31690.55202993942
5003.849665225021,30857.707906958567
5003.875687839174,30539.714798925706
5003.901710588658,30722.989646979422
5003.927733473473,31199.300906305794
5003.953756493622,31984.21397804242
5003.979779649103,32968.71275327655
5004.005802939919,33661.839221158836
5004.031826366068,34313.97927401114
5004.057849927553,34807.56782842728
5004.083873624375,35071.48895331888
5004.109897456533,35444.409057056044
5004.135921424028,35513.33444241334
5004.161945526862,35813.85398039593
5004.187969765035,35641.15600182085
5004.213994138547,35705.54558611311
5004.240018647399,36140.32468759463
5004.266043291592,36566.78518152033
5004.292068071127,36913.71014471952
5004.318092986004,37214.021929879375
5004.344118036223,37617.96812642973
5004.370143221788,37804.94469107385
5004.396168542696,37677.99963648192
5004.422193998949,37729.548295094995
5004.448219590549,37820.702097762565
5004.474245317495,38065.2023868014
5004.500271179789,38198.18470173285
5004.52629717743,37730.18732836868
5004.5523233104195,37540.777323323266
5004.578349578759,37176.38703681991
5004.604375982449,36785.93070095894
5004.630402521489,36387.49878825254
5004.656429195881,35802.64528262733
5004.682456005625,35231.31310127569
5004.708482950721,34787.62282967877
5004.734510031172,34292.43522071534
5004.760537246977,33946.21239480751
5004.7865645981365,33557.036323788576
5004.812592084652,32938.72398391671
5004.838619706525,31967.59331587198
5004.8646474637535,30776.07791587594
5004.890675356341,29460.051933066796
5004.916703384286,27678.836923395116
5004.942731547591,25789.688355258073
5004.968759846256,24281.75363607184
5004.994788280281,23469.749763779957
5005.020816849668,23698.277828689068
5005.046845554417,24975.402274271324
5005.072874394528,26463.908517577143
5005.098903370003,28235.46446074019
5005.124932480842,29711.694933451945
5005.150961727047,30667.62359428853
5005.176991108617,31405.67128351554
5005.203020625552,31779.460588232214
5005.229050277856,32151.76774859699
5005.255080065526,31962.821469872473
5005.281109988566,31523.098398574995
5005.3071400469735,30872.337537319516
5005.333170240751,29791.79877690854
5005.3592005699,28518.40430970798
5005.38523103442,27008.29509296719
5005.411261634312,25284.87815687564
5005.4372923695755,23365.049674745947
5005.463323240213,21140.98428962848
5005.489354246225,19065.870808250864
5005.515385387611,17606.389792023612
5005.541416664373,16517.359331972282
5005.567448076511,16318.284539703147
5005.593479624025,16999.25544081036
5005.619511306918,17989.324188697265
5005.645543125189,19135.52206481393
5005.671575078838,20226.478438886497
5005.697607167867,21028.81097886456
5005.723639392277,21519.253285281393
5005.749671752068,21740.27186981133
5005.77570424724,21347.19959089404
5005.8017368777955,20351.502757030543
5005.8277696437335,18951.586331155053
5005.853802545055,17256.116409854607
5005.879835581762,15684.83801752868
5005.905868753854,14483.306133328153
5005.931902061331,13786.5100475481
5005.957935504196,13955.725400196621
5005.983969082448,14739.899221497642
5006.010002796088,16160.385521141436
5006.036036645117,18142.299055690022
5006.062070629536,20634.02115341607
5006.088104749344,23384.167924493395
5006.114139004544,25759.059186445764
5006.140173395135,28399.984998878605
5006.166207921118,30548.082106702306
5006.192242582495,32466.35202029705
5006.218277379266,34111.33040560974
5006.244312311431,35211.122060787355
5006.270347378991,35955.34528696106
5006.296382581946,36435.243941159075
5006.322417920299,36671.179975931824
5006.348453394048,36991.979245243274
5006.374489003196,37148.51614393207
5006.400524747743,37073.72952422821
5006.426560627688,36975.17528935263
5006.452596643034,36862.68183768066
5006.47863279378,36974.721596841126
5006.504669079928,36866.92699938605
5006.530705501478,36679.77686634111
5006.556742058431,36771.99782059383
5006.582778750788,36796.89570117929
5006.608815578549,36492.90503550673
5006.634852541715,35954.36253948936
5006.660889640287,35533.41917736563
5006.686926874265,35029.52293660644
5006.71296424365,34338.157604129534
5006.739001748444,33578.50516441727
5006.765039388645,32800.6663283624
5006.791077164256,32061.43605797373
5006.817115075277,31428.254307172738
5006.843153121708,30377.96465168574
5006.869191303552,29024.01693991579
5006.895229620806,27401.37863632989
5006.921268073474,25520.84016066369
5006.947306661555,23452.20044249402
5006.97334538505,21197.74377364733
5006.999384243961,18968.94889301843
5007.025423238286,17126.823573955025
5007.051462368028,16271.502746956614
5007.077501633187,16061.820088833594
5007.103541033764,16586.4884243903
5007.129580569759,18100.781472223418
5007.155620241173,20208.796752764414
5007.181660048007,22485.66179679555
5007.207699990262,25116.622785149943
5007.233740067937,27508.89295472738
5007.259780281035,29742.178785028387
5007.285820629555,31649.628624636556
5007.311861113499,33380.29511938821
5007.337901732866,34681.94854244545
5007.363942487658,35483.98733553349
5007.389983377876,36216.16622520716
5007.41602440352,36620.21354932963
5007.442065564591,36348.70344163231
5007.468106861089,36013.156298641785
5007.494148293015,35639.351498155025
5007.520189860371,35166.85690466416
5007.546231563156,34954.457252997556
5007.572273401372,34848.01758321987
5007.598315375018,35185.84479866365
5007.624357484096,35879.40293118279
5007.650399728607,36341.226517827585
5007.676442108551,37126.982647187106
5007.702484623929,37457.08325441593
5007.728527274741,37927.97741930627
5007.754570060989,38236.68359749988
5007.780612982673,38281.169825291385
5007.806656039793,38459.15514209745
5007.832699232351,38190.082206043626
5007.858742560347,38379.97457786382
5007.884786023782,38739.30672939808
5007.910829622656,38707.20404491787
5007.936873356971,38537.55501781341
5007.962917226726,38663.18106718093
5007.988961231923,38774.82108385813
5008.015005372563,38788.91579352063
5008.041049648646,38677.35779693207
5008.067094060171,38662.10819154735
5008.0931386071425,38929.99363457648
5008.119183289558,38937.31979848571
5008.14522810742,38710.37994407222
5008.171273060728,38660.29508044605
5008.197318149483,38576.765928481946
5008.223363373687,38740.107687635405
5008.249408733339,38852.16264142829
5008.27545422844,38720.678722614044
5008.301499858992,38782.60111417261
5008.327545624995,38257.44203888724
5008.353591526448,38093.13510994406
5008.379637563355,37766.1041838478
5008.405683735714,37426.750979506694
5008.431730043527,37188.85700475
5008.457776486794,36823.78573306071
5008.483823065515,36874.568995416994
5008.509869779693,37296.863192124365
5008.535916629327,37594.472912771875
5008.561963614418,37866.009618728065
5008.588010734968,38038.7094541118
5008.614057990975,38264.52722836252
5008.640105382442,38562.4487886309
5008.666152909369,38720.35144796532
5008.692200571756,38662.16630950582
5008.718248369605,38537.347439434205
5008.744296302916,38499.89236403269
5008.77034437169,38492.10319191428
5008.796392575927,38570.44748621058
5008.822440915628,38625.068619103615
5008.848489390794,38466.6613044414
5008.874538001426,38533.38622924083
5008.900586747524,38608.08730417997
5008.926635629089,38783.94784272662
5008.952684646122,38736.01036273193
5008.978733798623,38719.67515790917
5009.004783086593,38925.64770062084
5009.030832510033,38752.88830577885
5009.056882068944,38955.61369958653
5009.082931763326,38797.372924587435
5009.108981593179,38756.871676270064
5009.135031558506,38685.646799170994
5009.161081659306,38773.44834479652
5009.187131895579,38567.47337504014
5009.213182267327,38370.070957067095
5009.239232774552,38046.40359497017
5009.265283417251,37929.10771169793
5009.291334195428,37887.81922279312
5009.317385109083,37712.20615452137
5009.343436158216,37641.705319359164
5009.369487342828,37466.82866597364
5009.395538662919,37255.04827170733
5009.421590118491,36973.57809526042
5009.447641709544,36505.73670153687
5009.473693436078,36347.42372551351
5009.499745298095,36301.80310680472
5009.525797295596,36350.60591115604
5009.55184942858,36413.576384436295
5009.577901697049,36450.09379269826
5009.603954101003,36455.1472529871
5009.630006640443,36490.18057837197
5009.65605931537,35886.46772919481
5009.682112125784,35544.718465534206
5009.708165071686,34953.972467423366
5009.7342181530785,34237.31588742175
5009.760271369959,33624.880681479815
5009.78632472233,32501.057126175303
5009.812378210192,31436.96414661668
5009.838431833546,30393.552095537132
5009.864485592391,29541.84213651249
5009.890539486731,28848.580226462476
5009.916593516564,28277.710022326384
5009.942647681891,27386.81653502276
5009.968701982713,26457.47887427846
5009.994756419032,25424.092192511434
5010.020810990847,24499.72551903948
5010.046865698159,24608.365346923074
5010.072920540969,25296.617495592724
5010.098975519279,26446.71757526725
5010.125030633087,28403.555505650846
5010.151085882395,30498.61078782317
5010.177141267204,32059.42617959802
5010.2031967875155,33822.342922125
5010.229252443328,35254.54609539403
5010.255308234644,36163.30304454921
5010.281364161464,37248.53016342177
5010.307420223788,37680.789963251766
5010.333476421617,38007.269687238855
5010.359532754951,38293.4980522765
5010.3855892237925,38203.94070610617
5010.4116458281405,38179.00522000146
5010.437702567997,38005.163851520185
5010.463759443362,38123.47749207037
5010.489816454236,38084.02481944775
5010.51587360062,37804.80978629243
5010.541930882514,37491.82294553828
5010.56798829992,37082.597014592466
5010.5940458528385,36483.273723815466
5010.62010354127,35750.01419642894
5010.646161365214,34962.68991847248
5010.672219324672,33932.65397921804
5010.698277419646,32669.617312506718
5010.724335650135,31661.34385503354
5010.7503940161405,30986.297270676845
5010.7764525176635,30805.173560863463
5010.802511154703,31550.235887243132
5010.828569927262,32595.352987222443
5010.85462883534,33655.05057357021
5010.880687878937,34951.41367597004
5010.906747058056,35981.41324394877
5010.932806372695,36989.59766471289
5010.958865822856,37401.07367359643
5010.98492540854,37925.507433961604
5011.0109851297475,38267.41142465337
5011.0370449864795,38386.180451838685
5011.063104978735,38752.84370865364
5011.089165106517,38655.41566918621
5011.115225369825,38741.251930225684
5011.14128576866,38813.38189764049
5011.167346303022,38636.671604930234
5011.193406972913,38771.28807073456
5011.219467778333,38796.24361180202
5011.2455287192815,38653.077875304305
5011.271589795761,38563.14327252729
5011.297651007772,38494.651435607695
5011.323712355315,38463.91650265118
5011.34977383839,38155.133008777884
5011.375835456999,37800.09138020171
5011.401897211142,37483.964885824214
5011.427959100819,36733.65896718192
5011.454021126031,35998.631270802165
5011.4800832867795,35133.145016169015
5011.506145583065,33803.88090833164
5011.532208014888,32523.217744426227
5011.558270582248,31100.070146592203
5011.584333285148,30044.63635183743
5011.610396123588,29352.588538683238
5011.636459097567,28409.363847579833
5011.662522207088,27259.879315125338
5011.68858545215,26219.320337246463
5011.714648832754,24826.677155706093
5011.740712348902,23023.203634535206
5011.766776000594,21098.930047056787
5011.79283978783,18941.55378367907
5011.818903710611,16833.0345862701
5011.844967768939,15021.046617098295
5011.871031962813,13401.276436923408
5011.897096292234,12783.361673500336
5011.923160757203,12915.923175912187
5011.949225357721,13693.223230221636
5011.975290093788,15131.782496984117
5012.001354965406,16920.24473760675
5012.027419972574,19267.467389374913
5012.053485115294,21556.886371590237
5012.079550393566,23760.360793418782
5012.105615807392,25628.658510321988
5012.13168135677,27268.499568029863
5012.157747041703,28242.542116046832
5012.183812862192,28510.004875581588
5012.209878818236,28330.572895842073
5012.235944909837,27854.218711309084
5012.262011136994,27518.355090190005
5012.28807749971,27588.584764854375
5012.3141439979845,28342.834273831337
5012.340210631818,29562.787558461205
5012.366277401212,30594.5223752752
5012.392344306166,31568.21416389299
5012.418411346682,32342.624393998693
5012.44447852276,32413.225586099707
5012.470545834401,32624.664237293848
5012.496613281605,32598.86695330253
5012.522680864374,32499.792382636366
5012.548748582707,32858.780151607236
5012.574816436606,33781.33196798572
5012.600884426071,34635.943296501915
5012.626952551104,35336.79685299219
5012.653020811705,36186.2209892987
5012.679089207873,36694.903598351404
5012.705157739611,37317.525878114684
5012.73122640692,37248.28091437688
5012.757295209798,37372.12275402384
5012.7833641482475,37434.616421918174
5012.80943322227,37196.36675422551
5012.835502431864,37079.58482976681
5012.861571777033,36920.49928098933
5012.887641257775,36746.69272250912
5012.9137108740915,36498.02882671326
5012.939780625984,35976.59306309283
5012.965850513452,35414.53793984707
5012.991920536498,34388.072865161
5013.017990695121,33252.056351627296
5013.044060989323,31979.66632943814
5013.070131419104,30135.229448131297
5013.096201984464,28195.930671519567
5013.122272685405,26704.931444695685
5013.148343521927,25867.655131002586
5013.17441449403,25712.48538993513
5013.200485601717,26299.85097358194
5013.226556844987,27153.499373500323
5013.2526282238405,27649.423944530707
5013.278699738279,28161.70496596485
5013.304771388303,28451.545535187244
5013.330843173913,27962.192776760236
5013.35691509511,26678.714855630875
5013.382987151894,25333.28499690789
5013.409059344267,23801.611297463078
5013.435131672228,21821.66390898896
5013.46120413578,19968.040778470826
5013.487276734921,18433.63876026017
5013.513349469653,17622.05779323404
5013.539422339977,17840.826903392433
5013.565495345894,18953.875012545464
5013.5915684874035,20750.35598221479
5013.617641764507,22655.656549784595
5013.643715177206,24751.272097375993
5013.6697887254995,26683.703198616036
5013.695862409389,28191.261961141172
5013.721936228875,29408.28009869741
5013.748010183958,30295.302024883782
5013.77408427464,30996.438956333794
5013.800158500921,31342.399727941043
5013.826232862801,31626.174077624182
5013.852307360281,31403.465994938913
5013.8783819933615,30669.804706168423
5013.904456762045,29481.723282027622
5013.930531666329,27723.98689132512
5013.956606706218,25656.98421445076
5013.982681881709,23329.52714852528
5014.008757192805,21246.900826175857
5014.034832639507,19658.04509267021
5014.060908221814,18635.124491344588
5014.086983939728,18559.396984412957
5014.113059793249,19503.460235022176
5014.139135782378,21233.198321257027
5014.165211907116,23431.800630344394
5014.1912881674625,25818.774680091567
5014.21736456342,28143.556458195413
5014.243441094988,30400.259583270643
5014.269517762167,31934.019130736175
5014.295594564959,33384.15094969787
