wave,flux
5000.025812696027,38988.757867396045
5000.051815424163,37393.07533598874
5000.0778182875265,35915.693894831995
5000.103821286119,34142.530700945295
5000.12982441994,32597.642173046745
5000.155827688991,30918.206118456117
5000.181831093272,30363.547039133933
5000.207834632784,30988.564281078354
5000.2338383075285,32248.59430210766
5000.259842117506,34035.152209516964
5000.285846062716,36133.84850272726
5000.311850143161,38096.73736286475
5000.33785435884,39677.476912945705
5000.363858709754,40841.4227457117
5000.389863195905,41324.86325609902
5000.415867817292,41402.49856650576
5000.441872573917,41079.72425613194
5000.4678774657805,39805.620776022166
5000.493882492882,38199.27716792554
5000.519887655224,36744.16022061027
5000.545892952806,35252.482736758146
5000.571898385629,34737.718159359814
5000.597903953694,35307.233314077006
5000.623909657001,36143.035504206884
5000.649915495552,37149.37923148912
5000.675921469346,38254.09357402733
5000.701927578384,39149.36903282136
5000.727933822669,39930.442874150845
5000.7539402021985,40399.64553169982
5000.779946716975,40751.133070949254
5000.805953366999,41123.68184376523
5000.831960152272,41542.52318562084
5000.857967072792,42271.726853604756
5000.883974128563,43064.332602802504
5000.9099813195835,43487.47059997141
5000.935988645855,43768.30829025691
5000.961996107378,44098.18219199812
5000.988003704153,44533.946792000206
5001.014011436181,44701.663463731646
5001.040019303464,44638.909691817214
5001.066027306,44209.668028690525
5001.092035443791,44233.86779939979
5001.118043716839,44081.98668407079
5001.1440521251425,43490.791770081574
5001.170060668704,42776.75952007606
5001.196069347523,41914.24220649969
5001.222078161601,40589.06477822172
5001.248087110937,38961.35079811469
5001.274096195534,37192.01838734774
5001.300105415392,35489.30598603589
5001.326114770512,34673.15726505719
5001.352124260892,34549.428845512084
5001.3781338865365,35172.68447507372
5001.4041436474445,35928.4225632948
5001.430153543616,35948.75777650014
5001.456163575053,35723.01391550883
5001.482173741756,35283.61059036444
5001.508184043724,34245.98560578538
5001.534194480961,32823.29107855113
5001.560205053464,30770.83262340978
5001.586215761236,28341.761074426755
5001.612226604278,25785.45290110177
5001.638237582589,23271.026445434974
5001.664248696171,21379.039690224436
5001.690259945024,20676.643537230055
5001.716271329149,21068.311570661015
5001.742282848547,22348.919275267053
5001.768294503218,24740.87358884313
5001.794306293164,27332.498610713203
5001.820318218383,30677.383515151618
5001.84633027888,33758.67514153819
5001.872342474651,36755.44556211213
5001.8983548056995,39551.69094517633
5001.924367272026,41672.70029048351
5001.9503798736305,43324.226922750975
5001.976392610514,45133.237490730484
5002.002405482678,46105.580496142735
5002.028418490122,46581.34826248508
5002.054431632847,47027.26309434776
5002.080444910854,47146.76044144589
5002.106458324142,47239.73537521428
5002.1324718727155,47294.62665881317
5002.158485556572,47072.78857154373
5002.184499375713,47027.60714528317
5002.210513330139,46722.41270879274
5002.236527419852,46219.16244050322
5002.262541644852,45736.20869618601
5002.288556005138,44891.30967618365
5002.314570500714,44469.61718891385
5002.340585131577,44113.012520823635
5002.36659989773,43465.77673151688
5002.392614799174,42683.106427223334
5002.418629835909,41888.48015666235
5002.444645007936,41335.187401124305
5002.4706603152545,40396.90428029323
5002.496675757866,39061.3415650363
5002.522691335772,37422.05525818212
5002.548707048972,35392.36889593771
5002.574722897468,33522.69592296223
5002.600738881259,32010.759103895234
5002.626755000347,31401.48707690756
5002.652771254732,32078.9203998658
5002.678787644415,34130.13789985357
5002.704804169397,36419.69726401992
5002.730820829678,38886.139933466446
5002.75683762526,41279.02518525404
5002.782854556142,42965.82572353169
5002.8088716223265,44583.05792174327
5002.834888823812,45673.65327061698
5002.860906160601,46434.412797566154
5002.886923632695,46961.55661411134
5002.912941240092,47368.766765914865
5002.938958982793,47746.03550321096
5002.9649768608015,47969.354015668
5002.990994874116,48064.869902778024
5003.017013022737,48032.42190730127
5003.043031306666,47909.934463238234
5003.069049725905,47863.98530579758
5003.095068280452,47574.14339413167
5003.121086970309,47653.9952534978
5003.147105795477,47636.79658619859
5003.173124755956,47631.52101371146
5003.199143851748,47398.462964357954
5003.225163082852,47194.91670589411
5003.251182449269,47256.8066030661
5003.277201951001,47033.41564324672
5003.3032215880485,46905.647912058266
5003.32924136041,46852.579310592584
5003.35526126809,46809.31595686293
5003.381281311085,46748.15235219059
5003.407301489398,46492.548546577134
5003.433321803031,46033.56479219652
5003.459342251982,45418.49166717706
5003.4853628362525,44669.54332523097
5003.511383555844,43802.315981318585
5003.537404410757,42839.42356319286
5003.563425400991,42344.8788077157
5003.589446526548,42023.56208456435
5003.615467787429,42236.74134676205
5003.641489183634,42641.09049307552
5003.667510715163,42848.24734401586
5003.693532382018,43036.01522481119
5003.719554184199,43202.91727307656
5003.745576121707,42772.12496548957
5003.771598194542,42133.5691389138
5003.797620402706,41266.63455460298
5003.823642746199,40213.91004882513
5003.849665225021,39135.25325994331
5003.875687839174,38529.635002018375
5003.901710588658,38773.21303665144
5003.927733473473,39660.26834327385
5003.953756493622,40789.57389524614
5003.979779649103,41674.90806846133
5004.005802939919,42560.22081912431
5004.031826366068,43323.98299492878
5004.057849927553,43944.71557469279
5004.083873624375,44395.680491387604
5004.109897456533,44726.84284971177
5004.135921424028,44930.00495746001
5004.161945526862,45082.06370712952
5004.187969765035,45267.034975183975
5004.213994138547,45538.47533626473
5004.240018647399,45719.03291407711
5004.266043291592,46406.78528589032
5004.292068071127,46923.121143217395
5004.318092986004,47003.17405388037
5004.344118036223,47241.944347002405
5004.370143221788,47538.9585232101
5004.396168542696,47777.96211800424
5004.422193998949,47913.28646978293
5004.448219590549,47801.54665296808
5004.474245317495,47904.52542059585
5004.500271179789,47770.97482015833
5004.52629717743,47605.35071995219
5004.5523233104195,47563.33587219614
5004.578349578759,47023.53507357447
5004.604375982449,46640.92540718013
5004.630402521489,45718.817297483525
5004.656429195881,45205.50113515893
5004.682456005625,44540.37597581355
5004.708482950721,43900.13359120533
5004.734510031172,43418.83920641285
5004.760537246977,42868.3183437484
5004.7865645981365,42344.23459284401
5004.812592084652,41521.32119218306
5004.838619706525,40362.484404901545
5004.8646474637535,38982.57335464495
5004.890675356341,37090.429871589076
5004.916703384286,34887.098969924285
5004.942731547591,32692.8775545
5004.968759846256,30836.590372795254
5004.994788280281,29842.040143602157
5005.020816849668,30044.518498586687
5005.046845554417,31196.683913392168
5005.072874394528,33476.00462193877
5005.098903370003,35683.09450442653
5005.124932480842,37558.843080390056
5005.150961727047,38864.70326871456
5005.176991108617,39797.28190124339
5005.203020625552,40386.08583817116
5005.229050277856,40608.535385908326
5005.255080065526,40609.34049861799
5005.281109988566,39996.23892324275
5005.3071400469735,39008.185477267565
5005.333170240751,37663.28477137725
5005.3592005699,35878.59666089029
5005.38523103442,33983.741851523446
5005.411261634312,31931.029455305
5005.4372923695755,29691.972362514167
5005.463323240213,26945.75737808647
5005.489354246225,24095.856695571863
5005.515385387611,22143.54271012182
5005.541416664373,20885.842497744554
5005.567448076511,20771.00210256451
5005.593479624025,21367.41924957881
5005.619511306918,22752.485501477437
5005.645543125189,24127.83057007309
5005.671575078838,25548.489925943682
5005.697607167867,26564.938819095663
5005.723639392277,27302.753684126354
5005.749671752068,27448.504416467502
5005.77570424724,26823.611999278368
5005.8017368777955,25586.89221410272
5005.8277696437335,23960.55839109599
5005.853802545055,21920.376603024444
5005.879835581762,19777.022430951383
5005.905868753854,18154.326302087222
5005.931902061331,17315.337110942917
5005.957935504196,17460.697325774483
5005.983969082448,18550.45584783376
5006.010002796088,20485.720930573585
5006.036036645117,22986.518252904
5006.062070629536,26204.1890452069
5006.088104749344,29282.458081451805
5006.114139004544,32687.98295535182
5006.140173395135,35838.81542024484
5006.166207921118,38545.08692954473
5006.192242582495,41122.16617807776
5006.218277379266,43240.3616213282
5006.244312311431,44598.23233490133
5006.270347378991,45678.88290323478
5006.296382581946,46398.54947646569
5006.322417920299,46686.706511234726
5006.348453394048,46752.6706215778
5006.374489003196,46763.2052614433
5006.400524747743,46688.97427420851
5006.426560627688,46624.5284336294
5006.452596643034,46573.40194563876
5006.47863279378,46348.50149932693
5006.504669079928,46360.964554931605
5006.530705501478,46488.495782131635
5006.556742058431,46427.44636451967
5006.582778750788,46324.11671851311
5006.608815578549,46285.99153845784
5006.634852541715,45459.98727435932
5006.660889640287,44856.166030465
5006.686926874265,44392.408701500186
5006.71296424365,43506.53426062277
5006.739001748444,42574.79504984565
5006.765039388645,41846.39170607424
5006.791077164256,40783.64696932753
5006.817115075277,39572.50330578386
5006.843153121708,38299.5113731515
5006.869191303552,36710.91006388123
5006.895229620806,34673.03399318322
5006.921268073474,32349.369684250978
5006.947306661555,29726.631278009223
5006.97334538505,26858.38201536413
5006.999384243961,24117.03901147635
5007.025423238286,21782.60400734202
5007.051462368028,20411.302349463025
5007.077501633187,20213.566277072863
5007.103541033764,20974.83921458669
5007.129580569759,22931.25632510967
5007.155620241173,25330.316583536107
5007.181660048007,28462.517126417522
5007.207699990262,31487.845658517967
5007.233740067937,34653.841398206925
5007.259780281035,37538.03532357819
5007.285820629555,40254.24227479425
5007.311861113499,42020.69747751211
5007.337901732866,43700.70790674563
5007.363942487658,45078.59798718278
5007.389983377876,45728.743873981264
5007.41602440352,45806.496562126544
5007.442065564591,45817.40403786924
5007.468106861089,45751.80492734617
5007.494148293015,45190.48434027271
5007.520189860371,44479.36362363537
5007.546231563156,44032.44838373335
5007.572273401372,43908.10383269344
5007.598315375018,44542.868157332814
5007.624357484096,45481.12150029999
5007.650399728607,46009.97666165617
5007.676442108551,46708.731111545756
5007.702484623929,47348.531331680984
5007.728527274741,48139.68573805865
5007.754570060989,48358.70920948408
5007.780612982673,48437.48162337786
5007.806656039793,48589.47309698611
5007.832699232351,48431.77101542268
5007.858742560347,48739.62447056344
5007.884786023782,48873.53953062776
5007.910829622656,48889.21813141772
5007.936873356971,48710.09553448936
5007.962917226726,48600.30184788926
5007.988961231923,49035.81065362467
5008.015005372563,49271.62919464674
5008.041049648646,49171.24304966299
5008.067094060171,49143.21300628299
5008.0931386071425,49229.82864972734
5008.119183289558,49246.290195281574
5008.14522810742,49082.29884450321
5008.171273060728,49029.6065581224
5008.197318149483,48954.66855584353
5008.223363373687,48815.07050600606
5008.249408733339,48878.175674897044
5008.27545422844,48863.03371340941
5008.301499858992,48675.11856995746
5008.327545624995,48479.62957019326
5008.353591526448,47997.45112525652
5008.379637563355,47892.37229671436
5008.405683735714,47441.5003778923
5008.431730043527,47070.88262004653
5008.457776486794,46506.4679802888
5008.483823065515,46351.96869973626
5008.509869779693,46888.04523669135
5008.535916629327,47315.184588645876
5008.561963614418,47771.63620156789
5008.588010734968,48137.126758186634
5008.614057990975,48328.15525008703
5008.640105382442,48458.01357383474
5008.666152909369,48649.3164570804
5008.692200571756,48738.64827747354
5008.718248369605,48748.96053701134
5008.744296302916,48705.82898022767
5008.77034437169,48517.65575886143
5008.796392575927,48516.693329570975
5008.822440915628,48484.608343877546
5008.848489390794,48527.96025064457
5008.874538001426,48733.0978077177
5008.900586747524,48976.651937095136
5008.926635629089,49028.24103543478
5008.952684646122,48930.252084081636
5008.978733798623,49084.47866993883
5009.004783086593,49025.53345686867
5009.030832510033,49059.47164455949
5009.056882068944,48942.63937725315
5009.082931763326,49205.11119387703
5009.108981593179,48984.94319723923
5009.135031558506,48890.70690405202
5009.161081659306,49003.12064619476
5009.187131895579,48939.97806924666
5009.213182267327,48665.44773052031
5009.239232774552,48287.293317892385
5009.265283417251,48088.807246680684
5009.291334195428,47963.971431928396
5009.317385109083,47730.14244959646
5009.343436158216,47691.1467202009
5009.369487342828,47534.074033139674
5009.395538662919,46977.25549491318
5009.421590118491,46698.81419607401
5009.447641709544,46510.32027782251
5009.473693436078,46049.77178669585
5009.499745298095,45911.73630798887
5009.525797295596,46004.8267980682
5009.55184942858,46242.2603374867
5009.577901697049,46379.75422461547
5009.603954101003,46067.53557179526
5009.630006640443,46136.53683835308
5009.65605931537,45623.04907040463
5009.682112125784,45247.80371958653
5009.708165071686,44379.33701650213
5009.7342181530785,43659.152945780916
5009.760271369959,42328.77470171125
5009.78632472233,41306.84874434056
5009.812378210192,39951.609257192154
5009.838431833546,38241.965180161926
5009.864485592391,37100.492530829804
5009.890539486731,36358.016335008724
5009.916593516564,35611.810988046884
5009.942647681891,34557.864799033814
5009.968701982713,33243.82124880517
5009.994756419032,32017.669607792075
5010.020810990847,31119.071528469212
5010.046865698159,31038.594290891306
5010.072920540969,31979.464140129057
5010.098975519279,33669.795086765975
5010.125030633087,35958.13902062759
5010.151085882395,38387.27016609057
5010.177141267204,40700.48696614374
5010.2031967875155,42745.212415661495
5010.229252443328,44515.26788600014
5010.255308234644,46046.705452382135
5010.281364161464,47024.701492662134
5010.307420223788,47580.8626175889
5010.333476421617,48377.243815424845
5010.359532754951,48358.06693061311
5010.3855892237925,48641.09669520449
5010.4116458281405,48276.71387916845
5010.437702567997,47951.23461998866
5010.463759443362,48300.60035018658
5010.489816454236,47968.8868037688
5010.51587360062,47776.68004216959
5010.541930882514,47347.8824185595
5010.56798829992,47026.61265185808
5010.5940458528385,46434.344273721275
5010.62010354127,45430.828948394075
5010.646161365214,44176.933903218625
5010.672219324672,42776.307515016466
5010.698277419646,41369.81741172193
5010.724335650135,40038.39051009213
5010.7503940161405,39140.61475579639
5010.7764525176635,38966.81926998544
5010.802511154703,39705.18040757027
5010.828569927262,41213.772117581764
5010.85462883534,42795.994415451874
5010.880687878937,44197.13614769973
5010.906747058056,45696.37306478046
5010.932806372695,46656.485142662415
5010.958865822856,47522.50402237301
5010.98492540854,47907.467668807476
5011.0109851297475,47975.16946774725
5011.0370449864795,48560.72924272037
5011.063104978735,48823.963902695534
5011.089165106517,48875.16806736956
5011.115225369825,48860.15651442994
5011.14128576866,49109.757170093835
5011.167346303022,49053.35918956572
5011.193406972913,48873.989776622206
5011.219467778333,49033.04387497935
5011.2455287192815,48963.55581252084
5011.271589795761,48823.68897982001
5011.297651007772,48602.89763802528
5011.323712355315,48399.22442301417
5011.34977383839,47855.598947186394
5011.375835456999,47570.466097304736
5011.401897211142,47143.72723810482
5011.427959100819,46386.59955748173
5011.454021126031,45517.15165794191
5011.4800832867795,44142.446767246394
5011.506145583065,42690.75328989233
5011.532208014888,41215.58080935411
5011.558270582248,39593.59434525051
5011.584333285148,38069.7214667906
5011.610396123588,36860.17609442328
5011.636459097567,36073.43365145272
5011.662522207088,34898.40280086103
5011.68858545215,33139.14242719574
5011.714648832754,31426.901312132315
5011.740712348902,29033.333986486166
5011.766776000594,26623.67425227535
5011.79283978783,24123.790724302195
5011.818903710611,21459.874505151587
5011.844967768939,18965.054227589484
5011.871031962813,17107.634672182947
5011.897096292234,16128.697710964745
5011.923160757203,16332.948081981685
5011.949225357721,17280.551004010114
5011.975290093788,19142.48099838875
5012.001354965406,21606.806486433532
5012.027419972574,24330.95146624632
5012.053485115294,27223.50541682326
5012.079550393566,30082.93441179332
5012.105615807392,32574.305275848914
5012.13168135677,34409.53755535233
5012.157747041703,35661.35473331801
5012.183812862192,36015.306651463856
5012.209878818236,35752.889095735816
5012.235944909837,35270.141255084156
5012.262011136994,34677.58188539949
5012.28807749971,34784.61357507372
5012.3141439979845,35830.576986877306
5012.340210631818,37229.35875767707
5012.366277401212,38731.02313813942
5012.392344306166,39944.795888020286
5012.418411346682,40668.45963255491
5012.44447852276,41319.863225453315
5012.470545834401,41299.36820929311
5012.496613281605,41264.12184915556
5012.522680864374,41222.8291693346
5012.548748582707,41342.524197415776
5012.574816436606,42441.00393443375
5012.600884426071,43488.851878681424
5012.626952551104,44843.83974435929
5012.653020811705,45741.86728260329
5012.679089207873,46607.5014478921
5012.705157739611,46998.538668452224
5012.73122640692,47113.40299310797
5012.757295209798,47145.957051532896
5012.7833641482475,46979.99939861192
5012.80943322227,46964.79446485672
5012.835502431864,46896.93303258892
5012.861571777033,46712.69825854805
5012.887641257775,46391.359634783745
5012.9137108740915,46027.05922157629
5012.939780625984,45585.98153823262
5012.965850513452,44805.92826386767
5012.991920536498,43486.54230222329
5013.017990695121,41874.10711103199
5013.044060989323,40040.76248696989
5013.070131419104,37849.03309355388
5013.096201984464,35712.32644459783
5013.122272685405,33931.748546307994
5013.148343521927,32762.626149579537
5013.17441449403,32580.140523951526
5013.200485601717,33202.205982605185
5013.226556844987,34224.2354710372
5013.2526282238405,35077.70373513825
5013.278699738279,35570.53659017806
5013.304771388303,35689.95953152592
5013.330843173913,35050.649019654484
5013.35691509511,33850.58702451205
5013.382987151894,32352.144783275162
5013.409059344267,30126.90449620906
5013.435131672228,27610.20814633597
5013.46120413578,25289.846287899847
5013.487276734921,23384.883121577892
5013.513349469653,22388.44991814651
5013.539422339977,22615.50979533931
5013.565495345894,24160.694501412807
5013.5915684874035,26225.811885014085
5013.617641764507,28608.263580210176
5013.643715177206,31298.992386081027
5013.6697887254995,33793.951390652684
5013.695862409389,35416.21593632703
5013.721936228875,37171.71807588454
5013.748010183958,38406.71646413282
5013.77408427464,39406.32631249687
5013.800158500921,40044.59709913962
5013.826232862801,40151.692372681115
5013.852307360281,39709.82739741418
5013.8783819933615,38554.55183781462
5013.904456762045,37255.533196963304
5013.930531666329,35079.70323859878
5013.956606706218,32299.51214927289
5013.982681881709,29544.499936069555
5014.008757192805,26934.60476283572
5014.034832639507,24870.05504911243
5014.060908221814,23657.820389945442
5014.086983939728,23393.766819537035
5014.113059793249,24492.41257586739
5014.139135782378,26729.271327328675
5014.165211907116,29300.362718424305
5014.1912881674625,32391.89601525015
5014.21736456342,35557.34345279848
5014.243441094988,38256.028040860605
5014.269517762167,40366.07542618555
5014.295594564959,42149.64777961813
5014.321671503363,43276.06456979866
5014.347748577381,43848.41468730965
