wave,flux
5000.025812696027,25526.9806279898
5000.051815424163,24607.143456845268
5000.0778182875265,24165.15816225271
5000.103821286119,23997.52940756494
5000.12982441994,24651.311321232257
5000.155827688991,25943.28852536504
5000.181831093272,27358.349059451706
5000.207834632784,28645.634346072336
5000.2338383075285,29947.66679999172
5000.259842117506,30904.50335915118
5000.285846062716,31621.562881722035
5000.311850143161,31922.96717788706
5000.33785435884,31580.95493122978
5000.363858709754,30901.84144530576
5000.389863195905,29955.908364035145
5000.415867817292,28636.081133701995
5000.441872573917,27575.79673935064
5000.4678774657805,27141.737489317373
5000.493882492882,27167.113080211675
5000.519887655224,27659.213007562397
5000.545892952806,27997.778174931063
5000.571898385629,29004.338172186075
5000.597903953694,29568.090146842704
5000.623909657001,30289.666037690382
5000.649915495552,30672.440770538615
5000.675921469346,30926.235377005385
5000.701927578384,31250.281574642067
5000.727933822669,31724.43764386676
5000.7539402021985,32340.76846160084
5000.779946716975,32941.62503822254
5000.805953366999,33341.99142179967
5000.831960152272,33750.4749166926
5000.857967072792,34020.400154870884
5000.883974128563,34047.18565464679
5000.9099813195835,34096.87841289817
5000.935988645855,33947.83166565521
5000.961996107378,34287.857301671225
5000.988003704153,34437.775362151406
5001.014011436181,34069.05935565497
5001.040019303464,33853.7730431523
5001.066027306,33296.46695144601
5001.092035443791,32649.235541057653
5001.118043716839,31648.510436298053
5001.1440521251425,30261.074595783022
5001.170060668704,28753.716363706993
5001.196069347523,27822.734465696994
5001.222078161601,27284.809376455578
5001.248087110937,27014.29147921231
5001.274096195534,27175.0037119762
5001.300105415392,27456.857604025714
5001.326114770512,27809.81904635961
5001.352124260892,28148.17822103483
5001.3781338865365,27994.899096
5001.4041436474445,27226.84284279639
5001.430153543616,26344.304287934938
5001.456163575053,24726.35786861789
5001.482173741756,22754.877757739367
5001.508184043724,20720.09518090368
5001.534194480961,18797.36446943882
5001.560205053464,17237.498538903776
5001.586215761236,16252.667549527774
5001.612226604278,16072.56081738846
5001.638237582589,16809.388743027204
5001.664248696171,18057.209354869214
5001.690259945024,19780.353150916097
5001.716271329149,22061.693546260434
5001.742282848547,24375.76226195662
5001.768294503218,26577.00026875898
5001.794306293164,28576.335621153685
5001.820318218383,30533.570124767735
5001.84633027888,32030.020327167218
5001.872342474651,33382.417378291015
5001.8983548056995,34492.392382154794
5001.924367272026,35156.91379155002
5001.9503798736305,35571.46316326189
5001.976392610514,35911.111943675365
5002.002405482678,36083.61529175749
5002.028418490122,36204.50512799018
5002.054431632847,36173.05460466017
5002.080444910854,36138.202375077795
5002.106458324142,36150.83643448453
5002.1324718727155,35841.14719210748
5002.158485556572,35424.1578305028
5002.184499375713,35205.341399919926
5002.210513330139,34772.25849147471
5002.236527419852,34422.493021161186
5002.262541644852,34128.2595023909
5002.288556005138,33798.044336668085
5002.314570500714,33446.96041354638
5002.340585131577,32898.15039816749
5002.36659989773,32076.14731713704
5002.392614799174,31060.863462021345
5002.418629835909,29760.737638184673
5002.444645007936,28132.189036363892
5002.4706603152545,26452.792141194303
5002.496675757866,25283.494030964648
5002.522691335772,24851.419370921587
5002.548707048972,25099.385957706487
5002.574722897468,25918.300537090254
5002.600738881259,27154.49724456643
5002.626755000347,28760.024054141773
5002.652771254732,30442.948095663003
5002.678787644415,31838.145721261662
5002.704804169397,33197.169279350754
5002.730820829678,34295.69542601976
5002.75683762526,34978.767572502155
5002.782854556142,35574.784827054275
5002.8088716223265,36010.03028410324
5002.834888823812,36306.4201548215
5002.860906160601,36335.55024269067
5002.886923632695,36548.88649568915
5002.912941240092,36678.49540798734
5002.938958982793,36671.49271623788
5002.9649768608015,36671.899443924034
5002.990994874116,36737.71507925636
5003.017013022737,36779.180734328096
5003.043031306666,36693.75212783163
5003.069049725905,36649.387553553184
5003.095068280452,36554.34098614009
5003.121086970309,36572.141368860845
5003.147105795477,36344.96892044465
5003.173124755956,36243.446966447445
5003.199143851748,36065.461849654675
5003.225163082852,35941.57090654623
5003.251182449269,36220.316158431764
5003.277201951001,36115.666750233555
5003.3032215880485,35901.745475768745
5003.32924136041,35463.5992682924
5003.35526126809,35160.4217337882
5003.381281311085,34807.08773175903
5003.407301489398,34070.0325297292
5003.433321803031,33379.52414137972
5003.459342251982,32994.00030126702
5003.4853628362525,32821.26130671501
5003.511383555844,33035.6285779774
5003.537404410757,33228.5712494567
5003.563425400991,32940.86719698706
5003.589446526548,33270.69678695694
5003.615467787429,33563.21478446954
5003.641489183634,33475.34905906822
5003.667510715163,32877.515906361376
5003.693532382018,32072.999733153632
5003.719554184199,31173.471911163433
5003.745576121707,30373.877381908183
5003.771598194542,30238.002334702152
5003.797620402706,30238.937083750236
5003.823642746199,30386.595959105707
5003.849665225021,30803.617229848645
5003.875687839174,31462.91507516966
5003.901710588658,32171.47604825929
5003.927733473473,32857.999420085805
5003.953756493622,33429.85965258117
5003.979779649103,33676.9388082264
5004.005802939919,33921.27225533706
5004.031826366068,34180.53381602622
5004.057849927553,34424.41346885306
5004.083873624375,34672.96173361068
5004.109897456533,34691.72360350378
5004.135921424028,34935.225153420506
5004.161945526862,35334.193893446136
5004.187969765035,35487.73433393902
5004.213994138547,35817.228650221485
5004.240018647399,36095.010382345085
5004.266043291592,36250.52850351488
5004.292068071127,36462.2974786089
5004.318092986004,36580.926068011155
5004.344118036223,36543.504042662804
5004.370143221788,36545.58373293162
5004.396168542696,36593.8788359169
5004.422193998949,36623.89495103208
5004.448219590549,36578.52103860775
5004.474245317495,36330.70966849175
5004.500271179789,35969.07606971729
5004.52629717743,35533.444242097736
5004.5523233104195,35213.439078494994
5004.578349578759,34586.173994320896
5004.604375982449,34216.23767554831
5004.630402521489,33892.71771677073
5004.656429195881,33537.674755760825
5004.682456005625,33095.528853671545
5004.708482950721,32522.538973268962
5004.734510031172,31886.455431556253
5004.760537246977,30817.71655494294
5004.7865645981365,29431.53834852917
5004.812592084652,27501.914883982477
5004.838619706525,25575.31637191187
5004.8646474637535,24120.94987583375
5004.890675356341,23172.502447295978
5004.916703384286,23127.53116475668
5004.942731547591,23883.405881557184
5004.968759846256,24992.28781842008
5004.994788280281,26345.45727349199
5005.020816849668,27930.038623922293
5005.046845554417,29168.219533354964
5005.072874394528,30479.85074955278
5005.098903370003,30797.085370321336
5005.124932480842,31020.014800412915
5005.150961727047,31129.240383893677
5005.176991108617,31081.60535766438
5005.203020625552,30749.05907922679
5005.229050277856,29817.443904846357
5005.255080065526,28808.890107703868
5005.281109988566,27600.721985546086
5005.3071400469735,25820.695743299115
5005.333170240751,23736.973329269353
5005.3592005699,21619.085840695276
5005.38523103442,19560.79921353217
5005.411261634312,17832.786094850955
5005.4372923695755,16781.084700438045
5005.463323240213,16485.92621143965
5005.489354246225,16694.13731255289
5005.515385387611,17369.406766016844
5005.541416664373,18327.701337093127
5005.567448076511,19366.895477260026
5005.593479624025,20463.366736018805
5005.619511306918,21064.895236321543
5005.645543125189,21455.3909266735
5005.671575078838,21167.53604712263
5005.697607167867,20452.405394675516
5005.723639392277,18938.513596079214
5005.749671752068,17292.674785007854
5005.77570424724,15803.91762316553
5005.8017368777955,14375.879189001853
5005.8277696437335,13372.240350499096
5005.853802545055,13096.022424733044
5005.879835581762,13558.689307763805
5005.905868753854,14876.309172438958
5005.931902061331,16718.05707119309
5005.957935504196,18753.451350361167
5005.983969082448,21162.331412595442
5006.010002796088,23503.98105664121
5006.036036645117,25757.002382918112
5006.062070629536,28063.70375714323
5006.088104749344,30065.162678981927
5006.114139004544,31652.54130303977
5006.140173395135,33078.668120162525
5006.166207921118,34206.74116728548
5006.192242582495,35003.70543757485
5006.218277379266,35322.37703553276
5006.244312311431,35808.56847802388
5006.270347378991,35825.59899178432
5006.296382581946,35851.404559023875
5006.322417920299,35631.97185492658
5006.348453394048,35450.12127875825
5006.374489003196,35617.05053515811
5006.400524747743,35668.92628970058
5006.426560627688,35597.14183162347
5006.452596643034,35571.68405365932
5006.47863279378,35433.270203458604
5006.504669079928,35278.64274311523
5006.530705501478,35096.5580452436
5006.556742058431,34858.42437350588
5006.582778750788,34693.55439288905
5006.608815578549,34056.236704587456
5006.634852541715,33601.367688859755
5006.660889640287,32876.870059459725
5006.686926874265,31990.23419416532
5006.71296424365,31604.83454882708
5006.739001748444,30758.41522268172
5006.765039388645,29705.20007985005
5006.791077164256,28220.104848947252
5006.817115075277,26461.268129245665
5006.843153121708,24434.607906841225
5006.869191303552,22006.326117301986
5006.895229620806,19722.25264480757
5006.921268073474,17920.046058107382
5006.947306661555,16491.590631773015
5006.97334538505,15685.159865904676
5006.999384243961,15870.22458917743
5007.025423238286,16878.014651080684
5007.051462368028,18455.393719673186
5007.077501633187,20556.23006823013
5007.103541033764,22745.677138427793
5007.129580569759,24920.211567593287
5007.155620241173,27303.386884081
5007.181660048007,29278.501441911987
5007.207699990262,31195.55959909257
5007.233740067937,32517.665767490216
5007.259780281035,33770.39346072439
5007.285820629555,34685.692853436325
5007.311861113499,34978.91159917551
5007.337901732866,35169.36728686311
5007.363942487658,34894.760515660295
5007.389983377876,34324.86207671014
5007.41602440352,34079.512201943886
5007.442065564591,33963.095573387654
5007.468106861089,33911.04924488677
5007.494148293015,34145.706646287224
5007.520189860371,34610.03982741803
5007.546231563156,35080.26858084221
5007.572273401372,35532.67383583009
5007.598315375018,36033.80198086274
5007.624357484096,36537.89309960794
5007.650399728607,36950.560902201505
5007.676442108551,37067.76615624096
5007.702484623929,37138.35927898491
5007.728527274741,37341.32967041269
5007.754570060989,37235.35428808076
5007.780612982673,37216.74765233902
5007.806656039793,37298.45206325051
5007.832699232351,37345.915400527374
5007.858742560347,37425.573556429095
5007.884786023782,37389.44367925974
5007.910829622656,37215.830900533256
5007.936873356971,37597.78083433971
5007.962917226726,37467.429643290685
5007.988961231923,37590.82695114638
5008.015005372563,37685.53012975461
5008.041049648646,37624.83326193468
5008.067094060171,37614.17952612862
5008.0931386071425,37661.977288386355
5008.119183289558,37621.60066114069
5008.14522810742,37527.26181687639
5008.171273060728,37523.07176042251
5008.197318149483,37455.4371043759
5008.223363373687,37339.71174808079
5008.249408733339,37233.38758227231
5008.27545422844,37037.741512830864
5008.301499858992,36559.093918447776
5008.327545624995,36226.60777556175
5008.353591526448,35985.78204004658
5008.379637563355,35966.62157173726
5008.405683735714,36024.14315653707
5008.431730043527,36116.97217583086
5008.457776486794,36434.26083470075
5008.483823065515,36562.29812399089
5008.509869779693,36850.08423107078
5008.535916629327,37125.102393196816
5008.561963614418,37404.3674879338
5008.588010734968,37433.03603574738
5008.614057990975,37277.79941300118
5008.640105382442,37297.36986363887
5008.666152909369,37235.5678087981
5008.692200571756,37216.83673126944
5008.718248369605,37441.352692013716
5008.744296302916,37414.80951555627
5008.77034437169,37276.77280035611
5008.796392575927,37299.306162479465
5008.822440915628,37326.84449980882
5008.848489390794,37478.66433520962
5008.874538001426,37384.20841597847
5008.900586747524,37445.52483624537
5008.926635629089,37639.71490277799
5008.952684646122,37703.6124505904
5008.978733798623,37768.54124126128
5009.004783086593,37663.81742130869
5009.030832510033,37532.80351775396
5009.056882068944,37478.45626794857
5009.082931763326,37745.0611876733
5009.108981593179,37449.6898795467
5009.135031558506,37171.62566869354
5009.161081659306,37007.29864237544
5009.187131895579,36974.693457947746
5009.213182267327,36710.34744544761
5009.239232774552,36627.869228559175
5009.265283417251,36549.78229198733
5009.291334195428,36260.21883214188
5009.317385109083,35889.8118844389
5009.343436158216,35675.6344153274
5009.369487342828,35481.30972747773
5009.395538662919,35408.35128455493
5009.421590118491,35535.169270334314
5009.447641709544,35593.55823345807
5009.473693436078,35669.208704383156
5009.499745298095,35663.343389508984
5009.525797295596,35629.10742475423
5009.55184942858,35336.89781946822
5009.577901697049,35039.13654396008
5009.603954101003,34533.54954942438
5009.630006640443,33917.083660674805
5009.65605931537,33400.96972116036
5009.682112125784,32237.377447112736
5009.708165071686,31444.108562879737
5009.7342181530785,30549.396057994454
5009.760271369959,29746.773019055963
5009.78632472233,28997.006303272203
5009.812378210192,28004.398031775585
5009.838431833546,26993.043116346158
5009.864485592391,25876.572644833464
5009.890539486731,24597.77184917623
5009.916593516564,23843.16003343575
5009.942647681891,23819.7379332293
5009.968701982713,24021.921173916176
5009.994756419032,24959.163787833317
5010.020810990847,26452.53998891029
5010.046865698159,28023.945891001673
5010.072920540969,29747.881516572572
5010.098975519279,31415.094642707463
5010.125030633087,32938.04778010613
5010.151085882395,34215.43379925402
5010.177141267204,35181.52435040902
5010.2031967875155,35786.367738357214
5010.229252443328,36369.77311231595
5010.255308234644,36728.09173590283
5010.281364161464,36873.69102862784
5010.307420223788,37007.55633972629
5010.333476421617,37070.15370139792
5010.359532754951,36877.208373618865
5010.3855892237925,37122.10660747783
5010.4116458281405,36952.04906096372
5010.437702567997,36656.45316984135
5010.463759443362,36440.33367846221
5010.489816454236,35985.9820091741
5010.51587360062,35436.09255677591
5010.541930882514,34735.16501860826
5010.56798829992,33572.52366360851
5010.5940458528385,32243.33948125753
5010.62010354127,31236.43464472341
5010.646161365214,30316.843671852206
5010.672219324672,30077.45521210737
5010.698277419646,30424.767427968865
5010.724335650135,30951.58816310744
5010.7503940161405,31819.654268701972
5010.7764525176635,32981.98512359055
5010.802511154703,34132.512287728096
5010.828569927262,35059.81211716473
5010.85462883534,35879.719153827
5010.880687878937,36481.50726492372
5010.906747058056,36744.15492853236
5010.932806372695,36975.651640615426
5010.958865822856,37348.25523274809
5010.98492540854,37327.00267142301
5011.0109851297475,37447.69424634012
5011.0370449864795,37397.965918509355
5011.063104978735,37320.461883837364
5011.089165106517,37267.73328368418
5011.115225369825,37026.42274634935
5011.14128576866,37389.759467444695
5011.167346303022,37468.05753891414
5011.193406972913,37378.78095051386
5011.219467778333,37105.89368475184
5011.2455287192815,37068.988758443425
5011.271589795761,36782.14149477746
5011.297651007772,36650.92933590381
5011.323712355315,36159.375588905874
5011.34977383839,35384.307759961215
5011.375835456999,34736.886732591345
5011.401897211142,33765.03795028704
5011.427959100819,32612.496245841474
5011.454021126031,31581.266480555718
5011.4800832867795,30576.74923006116
5011.506145583065,29761.055523786374
5011.532208014888,28900.20405762137
5011.558270582248,27943.896476796635
5011.584333285148,26986.780239418935
5011.610396123588,25638.49279288029
5011.636459097567,23950.748643754614
5011.662522207088,21883.735701275305
5011.68858545215,19789.568142983386
5011.714648832754,17467.948209863822
5011.740712348902,15343.330174841558
5011.766776000594,13691.753059342544
5011.79283978783,12681.56167439878
5011.818903710611,12381.719284895937
5011.844967768939,12681.356396309768
5011.871031962813,13870.42087148777
5011.897096292234,15668.102394122734
5011.923160757203,17686.500111880854
5011.949225357721,19850.439757206725
5011.975290093788,22163.182190606633
5012.001354965406,24170.406890869934
5012.027419972574,25712.95718177706
5012.053485115294,26588.574384938285
5012.079550393566,26900.020122006536
5012.105615807392,26797.735529447422
5012.13168135677,26632.746965259954
5012.157747041703,26530.290828649493
5012.183812862192,26883.41087734061
5012.209878818236,27457.7731744685
5012.235944909837,28169.92137348094
5012.262011136994,29181.757044003858
5012.28807749971,30223.28878905799
5012.3141439979845,30972.680011814442
5012.340210631818,31252.1834489123
5012.366277401212,31307.72314560962
5012.392344306166,31280.401749963934
5012.418411346682,31299.058491018306
5012.44447852276,31701.890050395104
5012.470545834401,32173.022038398063
5012.496613281605,32910.21685407762
5012.522680864374,33575.638998419505
5012.548748582707,34234.38161543252
5012.574816436606,34829.974142196086
5012.600884426071,35247.15115040209
5012.626952551104,35813.837825662595
5012.653020811705,36231.03964466812
5012.679089207873,36128.86707607725
5012.705157739611,36197.650390498624
5012.73122640692,35864.957680406886
5012.757295209798,35991.57410879284
5012.7833641482475,35785.763221846195
5012.80943322227,35687.529637148364
5012.835502431864,35401.24131645435
5012.861571777033,34982.897661745614
5012.887641257775,34109.79456013745
5012.9137108740915,33085.55385774825
5012.939780625984,31615.756921815024
5012.965850513452,30095.47910246313
5012.991920536498,28454.537521179922
5013.017990695121,27058.594360421528
5013.044060989323,26213.139469347283
5013.070131419104,25800.22237181693
5013.096201984464,25829.62053656937
5013.122272685405,26330.76283549067
5013.148343521927,26834.250783994634
5013.17441449403,27290.090583244095
5013.200485601717,27514.517091899525
5013.226556844987,27372.46524669569
5013.2526282238405,26909.52137882068
5013.278699738279,25579.17216652085
5013.304771388303,23833.2543513888
5013.330843173913,21986.56335993283
5013.35691509511,19849.302743784632
5013.382987151894,18146.88152131161
5013.409059344267,17245.88959351046
5013.435131672228,17184.40642149767
5013.46120413578,17937.254734193066
5013.487276734921,19310.383854294552
5013.513349469653,20785.5788413017
5013.539422339977,22721.667726304087
5013.565495345894,24428.05846744785
5013.5915684874035,26321.164306934996
5013.617641764507,27697.96071775644
5013.643715177206,28876.29070537642
5013.6697887254995,29963.793056586077
5013.695862409389,30619.241439488793
5013.721936228875,31192.66594812919
5013.748010183958,31093.865442263217
5013.77408427464,30688.842781239557
5013.800158500921,29870.509806834154
5013.826232862801,28229.495885164935
5013.852307360281,26445.67498185776
5013.8783819933615,24270.358446685244
5013.904456762045,22072.120071206446
5013.930531666329,20253.684479918917
5013.956606706218,18844.747112439964
5013.982681881709,18171.379787305956
5014.008757192805,18559.596572992938
5014.034832639507,19827.826662330546
5014.060908221814,21650.0085309136
5014.086983939728,23833.38806810689
5014.113059793249,25956.058719847057
5014.139135782378,27909.41951653265
5014.165211907116,29653.470875307987
5014.1912881674625,31082.71764224079
5014.21736456342,32299.015291617547
5014.243441094988,32983.6638151265
5014.269517762167,33194.92477688656
5014.295594564959,33316.31669322021
