wave,flux
5000.025812696027,11626.714076170365
5000.051815424163,11002.763410063535
5000.0778182875265,10385.15400197963
5000.103821286119,9892.62236649045
5000.12982441994,9840.087421510487
5000.155827688991,9936.60322652583
5000.181831093272,10293.077855509007
5000.207834632784,10895.48221441445
5000.2338383075285,11558.35117444521
5000.259842117506,12166.32993457709
5000.285846062716,12794.411757045233
5000.311850143161,13115.680328793582
5000.33785435884,13327.096966647932
5000.363858709754,13366.893707898516
5000.389863195905,13123.423302125328
5000.415867817292,12820.59968377819
5000.441872573917,12350.927685115903
5000.4678774657805,11774.48765737236
5000.493882492882,11560.591232269408
5000.519887655224,11336.96880581164
5000.545892952806,11250.934112965027
5000.571898385629,11531.143425989372
5000.597903953694,11798.05077005243
5000.623909657001,12214.987553163393
5000.649915495552,12626.709214774795
5000.675921469346,12849.207304201474
5000.701927578384,12981.31496783518
5000.727933822669,13060.022779417872
5000.7539402021985,13188.368046010395
5000.779946716975,13437.078884535342
5000.805953366999,13629.504077479822
5000.831960152272,13779.510030697953
5000.857967072792,13983.990948961282
5000.883974128563,14035.011087516014
5000.9099813195835,14121.981944049481
5000.935988645855,14414.187820718525
5000.961996107378,14173.383037915608
5000.988003704153,14439.25607848378
5001.014011436181,14399.431387203598
5001.040019303464,14246.327832569317
5001.066027306,14173.43512010289
5001.092035443791,14113.52921245585
5001.118043716839,13850.763553344676
5001.1440521251425,13519.944644343572
5001.170060668704,13093.115953542183
5001.196069347523,12576.595189344931
5001.222078161601,11967.17485164197
5001.248087110937,11450.813629901457
5001.274096195534,11318.47235391724
5001.300105415392,11362.593712992042
5001.326114770512,11463.956447688053
5001.352124260892,11478.79968307035
5001.3781338865365,11663.505325725408
5001.4041436474445,11689.890276054652
5001.430153543616,11639.464390376344
5001.456163575053,11207.578125367985
5001.482173741756,10687.996643734587
5001.508184043724,9984.68483612593
5001.534194480961,9153.593452607736
5001.560205053464,8310.093187480226
5001.586215761236,7500.17349299024
5001.612226604278,6965.197722541093
5001.638237582589,6714.6866347175255
5001.664248696171,6707.508177021388
5001.690259945024,7122.658596436589
5001.716271329149,7831.129385709911
5001.742282848547,8680.01978071569
5001.768294503218,9686.781713699254
5001.794306293164,10777.334732351748
5001.820318218383,11602.967481181902
5001.84633027888,12453.91210399686
5001.872342474651,13127.746913037578
5001.8983548056995,13844.344445560384
5001.924367272026,14217.9620127966
5001.9503798736305,14575.891524326491
5001.976392610514,14966.31203510312
5002.002405482678,15141.86775749769
5002.028418490122,15224.163945863227
5002.054431632847,15242.126481208097
5002.080444910854,15147.500361561551
5002.106458324142,15137.664114455252
5002.1324718727155,15147.111176665781
5002.158485556572,14985.493811443725
5002.184499375713,14859.912795422739
5002.210513330139,14770.011543517405
5002.236527419852,14683.97128592791
5002.262541644852,14408.471082127991
5002.288556005138,14365.854838959467
5002.314570500714,14105.962733802156
5002.340585131577,13879.795592997802
5002.36659989773,13721.641347248702
5002.392614799174,13555.877935549854
5002.418629835909,13152.237791407528
5002.444645007936,12709.163766872634
5002.4706603152545,12166.556514755472
5002.496675757866,11420.411639453308
5002.522691335772,10743.302533493888
5002.548707048972,10320.851904412331
5002.574722897468,10220.309131672611
5002.600738881259,10440.29454460828
5002.626755000347,10893.281509487888
5002.652771254732,11629.463105190578
5002.678787644415,12315.631336638236
5002.704804169397,13031.40700720705
5002.730820829678,13481.196864190124
5002.75683762526,14127.191971370123
5002.782854556142,14572.927572924847
5002.8088716223265,14868.855635328635
5002.834888823812,15111.73114134473
5002.860906160601,15218.679470623909
5002.886923632695,15395.530195815292
5002.912941240092,15438.475083289171
5002.938958982793,15405.117829326027
5002.9649768608015,15503.512810150405
5002.990994874116,15595.613278357963
5003.017013022737,15587.518017893659
5003.043031306666,15446.243495733956
5003.069049725905,15516.4793428973
5003.095068280452,15358.869263738456
5003.121086970309,15322.246673821377
5003.147105795477,15265.67362620015
5003.173124755956,15238.99536835777
5003.199143851748,15217.558731307357
5003.225163082852,15162.34639939927
5003.251182449269,15085.28881572901
5003.277201951001,15034.51817615237
5003.3032215880485,15098.638687673958
5003.32924136041,15057.73684977235
5003.35526126809,14942.420327899838
5003.381281311085,14837.02054136865
5003.407301489398,14668.694107545587
5003.433321803031,14371.623473783431
5003.459342251982,14148.547250179145
5003.4853628362525,14007.636605026057
5003.511383555844,13633.437661715025
5003.537404410757,13746.055461310309
5003.563425400991,13666.004562141006
5003.589446526548,13755.478279431229
5003.615467787429,13812.137488420416
5003.641489183634,13844.864037427726
5003.667510715163,13942.832004866425
5003.693532382018,13845.987018012942
5003.719554184199,13669.548348088183
5003.745576121707,13382.526626497674
5003.771598194542,12999.643981672352
5003.797620402706,12569.93956906225
5003.823642746199,12439.418433617671
5003.849665225021,12547.781143073524
5003.875687839174,12733.872874077737
5003.901710588658,13041.682971241835
5003.927733473473,13265.81808118839
5003.953756493622,13554.994228042677
5003.979779649103,14011.86776414733
5004.005802939919,14019.736788955568
5004.031826366068,14110.715258590519
5004.057849927553,14264.274333293863
5004.083873624375,14378.955419147804
5004.109897456533,14462.375393339833
5004.135921424028,14608.994035602318
5004.161945526862,14651.808917178025
5004.187969765035,14643.49325172458
5004.213994138547,14834.278575741511
5004.240018647399,14975.357200722596
5004.266043291592,14990.334615144597
5004.292068071127,15167.636789788656
5004.318092986004,15355.949586196002
5004.344118036223,15357.627572850051
5004.370143221788,15347.204163506489
5004.396168542696,15434.122422484555
5004.422193998949,15508.551671608604
5004.448219590549,15487.008943666082
5004.474245317495,15478.5381157445
5004.500271179789,15234.560905515516
5004.52629717743,15226.312364376157
5004.5523233104195,15136.749827915875
5004.578349578759,14751.631234981745
5004.604375982449,14561.67872429792
5004.630402521489,14472.094027784126
5004.656429195881,14279.690078461157
5004.682456005625,14102.616913407866
5004.708482950721,13935.680859914664
5004.734510031172,13729.52567124903
5004.760537246977,13423.042998209987
5004.7865645981365,13003.656252496923
5004.812592084652,12519.21405778138
5004.838619706525,11981.30695576715
5004.8646474637535,11317.037511171678
5004.890675356341,10582.359039988121
5004.916703384286,9933.111539475209
5004.942731547591,9498.980992346516
5004.968759846256,9596.818820756804
5004.994788280281,10010.671029684487
5005.020816849668,10692.262380941738
5005.046845554417,11212.945961315681
5005.072874394528,11996.788078457806
5005.098903370003,12405.422529264677
5005.124932480842,12654.787626222194
5005.150961727047,13025.029249966954
5005.176991108617,13030.198322892658
5005.203020625552,13077.76883674349
5005.229050277856,13025.410071751236
5005.255080065526,12735.847807490094
5005.281109988566,12338.211780180178
5005.3071400469735,11766.718892100507
5005.333170240751,11145.97189779855
5005.3592005699,10525.237025892658
5005.38523103442,9688.0804059891
5005.411261634312,8717.419564781312
5005.4372923695755,7823.177060789188
5005.463323240213,7186.963725447348
5005.489354246225,6758.283259816211
5005.515385387611,6669.212028835292
5005.541416664373,6923.9148005279685
5005.567448076511,7254.174097944926
5005.593479624025,7795.376112580625
5005.619511306918,8199.891135669674
5005.645543125189,8587.05387967303
5005.671575078838,8756.528542776292
5005.697607167867,8826.264730839173
5005.723639392277,8665.044678408376
5005.749671752068,8273.01193034403
5005.77570424724,7726.458147446484
5005.8017368777955,7076.349552178422
5005.8277696437335,6379.405952117721
5005.853802545055,5793.7723853187135
5005.879835581762,5522.291079615233
5005.905868753854,5514.972869878606
5005.931902061331,5780.450173424855
5005.957935504196,6420.994595267192
5005.983969082448,7157.500095396893
5006.010002796088,8267.02002411116
5006.036036645117,9349.044452497008
5006.062070629536,10286.705996000253
5006.088104749344,11263.347138942652
5006.114139004544,12309.31176893393
5006.140173395135,13204.969558906081
5006.166207921118,13826.949622417633
5006.192242582495,14294.454557936999
5006.218277379266,14619.219253661506
5006.244312311431,14870.906417865666
5006.270347378991,14958.933121227872
5006.296382581946,15052.560105275455
5006.322417920299,15023.224525740456
5006.348453394048,15023.396937640142
5006.374489003196,15057.688111649606
5006.400524747743,15011.207313965246
5006.426560627688,14953.360430143292
5006.452596643034,14868.60732571831
5006.47863279378,14911.503773129169
5006.504669079928,14849.767183980108
5006.530705501478,14924.624771817498
5006.556742058431,14711.357120343908
5006.582778750788,14701.954298651883
5006.608815578549,14534.808933332512
5006.634852541715,14419.15902013269
5006.660889640287,14205.338447087372
5006.686926874265,13867.00851642246
5006.71296424365,13624.714084741
5006.739001748444,13322.369036454991
5006.765039388645,12974.157401453162
5006.791077164256,12539.453928669329
5006.817115075277,11996.609597544699
5006.843153121708,11369.74679254398
5006.869191303552,10657.952749167365
5006.895229620806,9716.79100928701
5006.921268073474,8726.87829948453
5006.947306661555,7821.949747963307
5006.97334538505,7057.138333871054
5006.999384243961,6632.684894817167
5007.025423238286,6429.490279629225
5007.051462368028,6635.767041217345
5007.077501633187,7169.205184026123
5007.103541033764,7905.868996348845
5007.129580569759,8896.372634047077
5007.155620241173,9926.967065758687
5007.181660048007,10987.956316457909
5007.207699990262,11983.500151306373
5007.233740067937,12801.759631227837
5007.259780281035,13477.463757326706
5007.285820629555,13962.673489229737
5007.311861113499,14303.384404177808
5007.337901732866,14603.38491555135
5007.363942487658,14704.582690032421
5007.389983377876,14727.5347517055
5007.41602440352,14599.302322701653
5007.442065564591,14550.014416972883
5007.468106861089,14374.470099377204
5007.494148293015,14101.816020188684
5007.520189860371,14179.404324390674
5007.546231563156,14346.970206539736
5007.572273401372,14514.33806193295
5007.598315375018,14816.796981951797
5007.624357484096,15104.019010920525
5007.650399728607,15299.09690633703
5007.676442108551,15453.916917739456
5007.702484623929,15604.954679000744
5007.728527274741,15822.609514951126
5007.754570060989,15632.112530836503
5007.780612982673,15683.521125253166
5007.806656039793,15660.058227122945
5007.832699232351,15644.48301425965
5007.858742560347,15698.0072582973
5007.884786023782,15692.754924790952
5007.910829622656,15602.19248035028
5007.936873356971,15588.511085907123
5007.962917226726,15667.75872390469
5007.988961231923,15768.857865244792
5008.015005372563,15812.739383639853
5008.041049648646,15920.854121297978
5008.067094060171,15933.361396328
5008.0931386071425,15809.101001426314
5008.119183289558,15814.434151510723
5008.14522810742,15845.294107726191
5008.171273060728,15828.975036154976
5008.197318149483,15816.393292100298
5008.223363373687,15779.175649862285
5008.249408733339,15720.197473456295
5008.27545422844,15682.851597263963
5008.301499858992,15539.835330129865
5008.327545624995,15418.62124135278
5008.353591526448,15353.785869306788
5008.379637563355,15086.799137531885
5008.405683735714,15095.196149710806
5008.431730043527,15136.019960603799
5008.457776486794,15043.130765498423
5008.483823065515,15153.529569648917
5008.509869779693,15339.309632280481
5008.535916629327,15518.514234792705
5008.561963614418,15557.668895451998
5008.588010734968,15646.405703295663
5008.614057990975,15818.22608675543
5008.640105382442,15731.931067831734
5008.666152909369,15600.74550256399
5008.692200571756,15655.58258286146
5008.718248369605,15680.25316449375
5008.744296302916,15710.222648593795
5008.77034437169,15728.983464118164
5008.796392575927,15671.812257788502
5008.822440915628,15742.640155402407
5008.848489390794,15755.014349095458
5008.874538001426,15706.887173703984
5008.900586747524,15772.616624072985
5008.926635629089,15924.086787386253
5008.952684646122,15745.896521631943
5008.978733798623,15765.025358578185
5009.004783086593,15853.555933193293
5009.030832510033,15772.619164388212
5009.056882068944,15746.82144018977
5009.082931763326,15909.188462992539
5009.108981593179,15742.424818752714
5009.135031558506,15781.215016972681
5009.161081659306,15734.651821848389
5009.187131895579,15536.1621857912
5009.213182267327,15467.274420199408
5009.239232774552,15446.525314582765
5009.265283417251,15386.506491768001
5009.291334195428,15293.909741909538
5009.317385109083,15157.323722457462
5009.343436158216,15039.66395747042
5009.369487342828,14964.466036171703
5009.395538662919,14865.2144969024
5009.421590118491,14774.406436318506
5009.447641709544,14739.756757338524
5009.473693436078,14768.133171709616
5009.499745298095,14978.490215466776
5009.525797295596,14989.789908749935
5009.55184942858,14947.209116590726
5009.577901697049,14780.267059959157
5009.603954101003,14641.190936977151
5009.630006640443,14621.46209369708
5009.65605931537,14334.82434678968
5009.682112125784,14092.8880678261
5009.708165071686,13778.736365396195
5009.7342181530785,13302.243403063636
5009.760271369959,12747.675009396806
5009.78632472233,12370.123416898447
5009.812378210192,12035.10186379219
5009.838431833546,11769.547002191948
5009.864485592391,11520.764393343637
5009.890539486731,11051.12611905665
5009.916593516564,10598.429547925407
5009.942647681891,10308.783878069016
5009.968701982713,10001.929038716531
5009.994756419032,9889.54682429324
5010.020810990847,10197.534238493645
5010.046865698159,10782.46231141204
5010.072920540969,11435.354371280517
5010.098975519279,12088.738197924935
5010.125030633087,12848.941937909192
5010.151085882395,13541.21818915024
5010.177141267204,14207.323285644143
5010.2031967875155,14699.712158809685
5010.229252443328,14888.792220532045
5010.255308234644,15113.571164593437
5010.281364161464,15428.941643107322
5010.307420223788,15570.582058468743
5010.333476421617,15579.96599801661
5010.359532754951,15621.904590051134
5010.3855892237925,15452.967449232194
5010.4116458281405,15508.366519404213
5010.437702567997,15531.905514370565
5010.463759443362,15477.565110285974
5010.489816454236,15406.118215595838
5010.51587360062,15047.328679569775
5010.541930882514,14817.759250033876
5010.56798829992,14585.135408653803
5010.5940458528385,14363.869592477506
5010.62010354127,13907.59077910498
5010.646161365214,13431.702126712164
5010.672219324672,12960.779284654243
5010.698277419646,12583.31711171022
5010.724335650135,12605.826162822572
5010.7503940161405,12805.27991826976
5010.7764525176635,13116.086761049206
5010.802511154703,13510.617633960708
5010.828569927262,14059.16693772598
5010.85462883534,14587.27722564673
5010.880687878937,15060.0314970478
5010.906747058056,15258.149819405551
5010.932806372695,15421.460897360144
5010.958865822856,15535.144288084966
5010.98492540854,15565.52232437397
5011.0109851297475,15677.279625214052
5011.0370449864795,15691.508572658311
5011.063104978735,15781.392266764244
5011.089165106517,15734.64443403525
5011.115225369825,15703.952899823948
5011.14128576866,15734.890245520239
5011.167346303022,15781.433098311982
5011.193406972913,15818.20530756236
5011.219467778333,15773.187265842924
5011.2455287192815,15670.040016224166
5011.271589795761,15550.131505267236
5011.297651007772,15497.834065712243
5011.323712355315,15521.871497155522
5011.34977383839,15289.511333546103
5011.375835456999,15021.658237769023
5011.401897211142,14652.905499193183
5011.427959100819,14258.011166566706
5011.454021126031,13940.240389585164
5011.4800832867795,13399.572868818217
5011.506145583065,12825.771462989225
5011.532208014888,12359.85409348028
5011.558270582248,12012.663630222884
5011.584333285148,11713.75558495386
5011.610396123588,11315.586491132939
5011.636459097567,10859.64091846191
5011.662522207088,10241.798059921892
5011.68858545215,9501.528708242005
5011.714648832754,8661.851560768731
5011.740712348902,7821.681596374602
5011.766776000594,6886.182189760568
5011.79283978783,6048.024386396518
5011.818903710611,5377.635851538849
5011.844967768939,5089.770430957812
5011.871031962813,5139.830369556084
5011.897096292234,5455.570620704224
5011.923160757203,6009.815873049383
5011.949225357721,6699.654159068674
5011.975290093788,7579.218922948628
5012.001354965406,8671.776765922266
5012.027419972574,9580.160601579948
5012.053485115294,10392.471116895096
5012.079550393566,10953.332855931194
5012.105615807392,11245.78322343253
5012.13168135677,11445.207391589987
5012.157747041703,11467.043811784664
5012.183812862192,11268.892430693963
5012.209878818236,11149.118431377306
5012.235944909837,11175.355753890304
5012.262011136994,11447.694847375631
5012.28807749971,11825.79058304614
5012.3141439979845,12174.400693183825
5012.340210631818,12722.385983459571
5012.366277401212,13060.841759945737
5012.392344306166,13187.45257368889
5012.418411346682,13178.443273255376
5012.44447852276,13135.163114480476
5012.470545834401,13210.513256692584
5012.496613281605,13342.186047556188
5012.522680864374,13570.497499289497
5012.548748582707,13862.567812605128
5012.574816436606,14128.987175122387
5012.600884426071,14475.753196373982
5012.626952551104,14737.270918071266
5012.653020811705,15087.043702242978
5012.679089207873,15080.023245539354
5012.705157739611,15222.938065354361
5012.73122640692,15279.00948722769
5012.757295209798,15231.677305225296
5012.7833641482475,15170.899184504955
5012.80943322227,15030.917781268841
5012.835502431864,15022.91806778983
5012.861571777033,14947.740882725771
5012.887641257775,14708.435071050031
5012.9137108740915,14430.91530011212
5012.939780625984,14041.013171600975
5012.965850513452,13422.036990995604
5012.991920536498,12891.84735213758
5013.017990695121,12300.29359256805
5013.044060989323,11537.606295767333
5013.070131419104,10970.477547081307
5013.096201984464,10666.837727718634
5013.122272685405,10561.773856437509
5013.148343521927,10718.714454804558
5013.17441449403,11030.342473277396
5013.200485601717,11260.552168045877
5013.226556844987,11408.789181132663
5013.2526282238405,11490.85772282705
5013.278699738279,11301.056746955572
5013.304771388303,10935.924563395827
5013.330843173913,10363.115010594016
5013.35691509511,9619.904704395085
5013.382987151894,8810.535338490356
5013.409059344267,8033.0475545047
5013.435131672228,7425.545829255798
5013.46120413578,7131.499462395241
5013.487276734921,7212.0569321194325
5013.513349469653,7586.751200662467
5013.539422339977,8194.454007682603
5013.565495345894,8925.646640917106
5013.5915684874035,9893.17262919158
5013.617641764507,10645.663479114151
5013.643715177206,11336.091492603426
5013.6697887254995,11905.426817176294
5013.695862409389,12312.651691053008
5013.721936228875,12664.367496695004
5013.748010183958,12777.553834183618
5013.77408427464,12909.602108561128
5013.800158500921,12877.072170667841
5013.826232862801,12507.70938448716
5013.852307360281,12080.607323651659
5013.8783819933615,11394.243914304494
5013.904456762045,10476.771746356946
5013.930531666329,9572.735679226018
5013.956606706218,8688.745490362537
5013.982681881709,7994.862193684936
5014.008757192805,7539.18535542862
5014.034832639507,7361.764705525475
5014.060908221814,7664.2638507156735
5014.086983939728,8371.81792192473
5014.113059793249,9300.062657800803
5014.139135782378,10336.936607157912
5014.165211907116,11219.364733221662
5014.1912881674625,11972.322404199982
