freq,gls,usurper,pdc_unbiased,shape_periodogram,shift_periodogram
1.5,0.031605246424144244,0.027978697061435645,0.022003088454338578,0.0033196423010636578,0.021890222807042926
1.5000715171549266,0.028595336453250155,0.02073771860633658,0.01679692217781675,0.002438370969963732,0.016713652984157442
1.5001430343098532,0.024797888546036324,0.014197675927938165,0.011419584810450916,0.0019165003884091209,0.01135495544783376
1.5002145514647798,0.020789812632417533,0.010670265522691302,0.008796510756732951,0.0015983948134109657,0.008742945692459857
1.5002860686197064,0.017345459787468324,0.011690685214108132,0.009479677332466734,0.0012703985371560105,0.009435915806054929
1.500357585774633,0.015271945925960987,0.014251832777008177,0.011714688134418397,0.002172586048594512,0.011642014925930918
1.5004291029295596,0.015165201318802408,0.018162239230910895,0.01415548030345099,0.003558333472613607,0.014038909737547895
1.5005006200844861,0.01716595655706576,0.022262753162811077,0.016954003693511403,0.004869810594692574,0.016795721288640913
1.5005721372394127,0.02086274426290797,0.025590663634623152,0.019187221778694714,0.006842175657430859,0.018967233203254094
1.5006436543943393,0.02544081002802935,0.02861340809027974,0.02137618975240262,0.007338565745918822,0.021139984781142616
1.500715171549266,0.03000884122307953,0.03266645564467201,0.02421994995090846,0.006826256813706056,0.023998237516668953
1.5007866887041925,0.03391266896856934,0.03662935098027999,0.02666061786266369,0.006946042594593942,0.02643416313576095
1.500858205859119,0.0368882624749449,0.04162567859977589,0.029368029530911475,0.0062554655378719215,0.029161575245780103
1.5009297230140457,0.0390355018056212,0.0475941369263745,0.03287087235373193,0.006142691791516701,0.03266633784636914
1.5010012401689723,0.04067274274449097,0.051864311370972964,0.0349635290275476,0.00781542724096647,0.03470689597378787
1.5010727573238989,0.04213722341942038,0.05559093003547789,0.036798409825528795,0.0096869514190492,0.03648389664836309
1.5011442744788255,0.043587855733941964,0.05787538161990441,0.03793328428010061,0.011217060691504901,0.037571747236077875
1.501215791633752,0.044880915226329254,0.05853469200448715,0.03824814004694497,0.013315129879403075,0.037822772148104804
1.5012873087886787,0.045592465454410994,0.059020495711192236,0.03896037083855539,0.015276879661219647,0.038475359033566886
1.5013588259436053,0.04519857422015515,0.05855562038451347,0.038338310339186395,0.015820620227218894,0.03783704269127222
1.5014303430985318,0.04331902735671992,0.0548450126911564,0.03525172960142179,0.016731922504339962,0.03472378656494539
1.5015018602534584,0.03989064242203222,0.047573149572548816,0.029380562295107576,0.017582022924255147,0.028828487741539382
1.501573377408385,0.035207008956161204,0.03939350944046627,0.02275340008029923,0.018392429434131725,0.022178482414823526
1.5016448945633116,0.029854908046904056,0.03206327809404345,0.01716592382272006,0.017863847582450656,0.016608706849667258
1.5017164117182382,0.02460404968418353,0.025503131074850915,0.01272729457488559,0.015751984155935143,0.012236187983020163
1.5017879288731648,0.020274028275387688,0.021824773339887048,0.010756457121333964,0.013887263237213352,0.010323337496028075
1.5018594460280914,0.01756978332877583,0.019733227216108616,0.009814843547662735,0.011898514324791006,0.009443269095561415
1.501930963183018,0.016887968997375314,0.018275076612174986,0.009773529530205848,0.00980067271946032,0.009466565497857071
1.5020024803379446,0.018154766828972088,0.01707276858550733,0.009545857603491862,0.00791546510949315,0.009297073568315014
1.5020739974928712,0.020807783027131654,0.01663481978516704,0.00997328939183271,0.005835409771191122,0.009788434714966824
1.5021455146477978,0.023992628107040868,0.01832421466844194,0.01144212206274167,0.0032640601924667665,0.011335896208447861
1.5022170318027244,0.026898257150269028,0.02177227364393752,0.014028974316248104,0.0016054846935681158,0.013972709066813874
1.502288548957651,0.029041972437567,0.026247007594081415,0.016679671046279716,-0.0006464911099614421,0.01669167952029823
1.5023600661125776,0.03036170293294545,0.03155282821869785,0.019990738498687276,-0.0013820971855177692,0.02002389311381202
1.5024315832675041,0.031115659296329378,0.03446222729735515,0.02077896981185265,-0.0003493326859170604,0.020779841754830056
1.5025031004224307,0.031680428730509906,0.0344155513264624,0.019519808615351825,0.0005407277863981508,0.019493800265161447
1.5025746175773573,0.032340192227813126,0.03277718691108377,0.018649627815208736,0.0006639657218132973,0.018620229336139188
1.502646134732284,0.033131945974426154,0.030317137749204852,0.017871043624403338,0.00013693684373526733,0.01785828661542865
1.5027176518872105,0.033797027787609374,0.029017371166083387,0.01799769758677829,5.379347850198457e-05,0.01798744756102502
1.502789169042137,0.033871437590867574,0.027550359165052267,0.017486670760106647,-0.001420044927970354,0.017522195922270837
1.5028606861970637,0.03289397904446062,0.02415143421213855,0.015274482970942199,-0.0032536842793301386,0.015367762744960206
1.5029322033519903,0.030638444170610023,0.019412240728373033,0.012011118949132128,-0.0030955113345970207,0.012101060067461589
1.5030037205069169,0.02725242384486997,0.016001003263810168,0.009441040885373031,-0.002342107433479828,0.00950891098632079
1.5030752376618435,0.023245599290448483,0.014250043562697136,0.008606550278537486,-0.0012196901259443312,0.008640127030690286
1.50314675481677,0.019358366958489085,0.013489300513567538,0.008953985446160287,-9.898976809668993e-05,0.008952769372770753
1.5032182719716967,0.01638051368297583,0.014886255467070661,0.010426555451109277,0.0012452547928697593,0.010383120284095817
1.5032897891266233,0.01497089818834955,0.016683691215078685,0.012350463029946239,0.0034343967251032315,0.012238557350764828
1.5033613062815498,0.015499460648454992,0.018391898127591504,0.013981854206916533,0.005782415524927963,0.013796813296123313
1.5034328234364764,0.01793079665045714,0.018431850903827263,0.01416864675154985,0.007287362065594435,0.013937175214484258
1.503504340591403,0.021792554285279486,0.017128528579654422,0.013806564009865633,0.007321897808081124,0.01357418892230094
1.5035758577463296,0.026283745634476982,0.018812587411235614,0.015751292513310384,0.006241898417228561,0.015551302995621333
1.5036473749012562,0.03053094650102892,0.023254429786201528,0.019003856556851165,0.006376194291461298,0.018798280433330077
1.5037188920561828,0.03389868374654469,0.02903553950778957,0.02304438568669538,0.007782291185271162,0.02279383310441107
1.5037904092111094,0.03619247413189749,0.037270149811724954,0.02836367437687625,0.00991044535063016,0.028045699526600597
1.503861926366036,0.03764566473947448,0.04489661220615331,0.03246316988130233,0.01294481666589898,0.03205106052622816
1.5039334435209626,0.038716510453014726,0.0495754840093602,0.03408384953452373,0.016998195841387915,0.033548173559418706
1.5040049606758892,0.0398171228344044,0.0531987940653672,0.03557140334761458,0.020471925667310435,0.03493044534404411
1.5040764778308158,0.041095739566223526,0.05643176016102522,0.037525773851031737,0.022403490355739717,0.03682638484823019
1.5041479949857424,0.04234364882306056,0.05860643780531514,0.038887791087543686,0.02506985430377134,0.03810839248790529
1.504219512140669,0.043051695709888996,0.05865089306594881,0.03921573232033744,0.026162047113832205,0.03840370384984521
1.5042910292955955,0.04260283060723393,0.055203590425648257,0.036347749549566495,0.026750190657263802,0.03551825681092705
1.5043625464505221,0.04053910287302065,0.047808728306802654,0.030363706364527798,0.026451842159939596,0.029543412552353966
1.5044340636054487,0.03679439695722014,0.038661009132621056,0.02344001313236871,0.026176072416322072,0.02262850281996616
1.5045055807603753,0.03178229372791513,0.029809303826065704,0.01698689592080203,0.02543401666092889,0.016198558740330323
1.504577097915302,0.026296542555493532,0.02264068107448274,0.012446934359831944,0.025050199613050432,0.011670888722284441
1.5046486150702285,0.021278189004975218,0.019653279007582545,0.011187449324425095,0.02354299088952504,0.01045776589003716
1.504720132225155,0.017555651134353225,0.01850917593568593,0.011283372248322305,0.022851974492950053,0.010574853855185857
1.5047916493800817,0.01564621916050789,0.01686187814703723,0.010644076718018416,0.022340907844308564,0.009951358593889697
1.5048631665350083,0.015656872938766518,0.01469407086798311,0.009217644422453899,0.021047284212907174,0.008564955019972674
1.5049346836899349,0.017286051262519187,0.013192884544411925,0.008230188330603324,0.019182215751539177,0.007635078617924957
1.5050062008448615,0.019918755698584013,0.012848360772560663,0.007905738300784866,0.01646835490532148,0.007394215870390868
1.505077717999788,0.022804926807040774,0.014880827848865956,0.009361654152707073,0.013046450267684086,0.008954923309528021
1.5051492351547147,0.025289013466251117,0.01890412296914824,0.011726326065843064,0.011156084072343421,0.011376834421018212
1.5052207523096413,0.027015644551186973,0.02391575609230057,0.014241445734319206,0.008730172827214786,0.013965539159525154
1.5052922694645678,0.028012475009877,0.027483028868932422,0.015961322224474977,0.00703061550842806,0.01573696175170871
1.5053637866194944,0.028596359216805502,0.02761118250977324,0.014919408532213189,0.006127878451334273,0.01472330357432954
1.505435303774421,0.02915112616185344,0.02688258907331812,0.013309044659559194,0.005565131790815308,0.013131003885953292
1.5055068209293476,0.029900153036102176,0.025652597721290294,0.012321918805932341,0.003200363122603341,0.012217245963998778
1.5055783380842742,0.030782681811496897,0.025490165502666716,0.01250866989698158,0.002490428447783497,0.01242581322811007
1.5056498552392008,0.03146961942071043,0.025787198532093956,0.013496870470295333,0.0033160435379662573,0.01338807950198489
1.5057213723941274,0.03149161794629547,0.02510526221601445,0.013134126432083434,0.003514065999065353,0.013019397414764836
1.505792889549054,0.030427310908792447,0.02254809050350259,0.011855838401314541,0.003505625300444473,0.011741966641069478
1.5058644067039806,0.02809465201809536,0.019189017841947372,0.009674998552531539,0.003954562526383433,0.009548294256289886
1.5059359238589072,0.024683284499830333,0.01534831835973466,0.006168765257997816,0.004422109470397466,0.00602926438765376
1.5060074410138338,0.020766913938386953,0.01236800184472954,0.003987129865862614,0.006165740112210205,0.003794810139249714
1.5060789581687604,0.017165658691511196,0.011893528933087687,0.004506773893992003,0.006846989759299997,0.004293188970622521
1.506150475323687,0.014695536880755058,0.012410298317236404,0.005603202541494299,0.008887623133779146,0.005326163991150071
1.5062219924786135,0.013907828977730352,0.012058305704609418,0.006474304461408025,0.010531862015655188,0.00614618837898698
1.5062935096335401,0.014929925183180436,0.011122212488585201,0.007024475314287043,0.01086772548244959,0.006685778181856634
1.5063650267884667,0.01746107614733839,0.008969172615298145,0.006681651925523114,0.010768479413498431,0.0063461553111201895
1.5064365439433933,0.020900617081537138,0.008829033840628095,0.008103902228742074,0.010519442266153855,0.007775492677127512
1.50650806109832,0.024545654709518663,0.011938849598830294,0.01119024144466396,0.010610220761325815,0.010857764248494283
1.5065795782532465,0.027795889555703463,0.018035483738957702,0.015188716512202768,0.012285227550721178,0.014803155594645125
1.506651095408173,0.030315638754338018,0.02606743701638203,0.02020329875354711,0.013185380327719624,0.019788254545857004
1.5067226125630997,0.03210575674634778,0.034928249549384595,0.02516307524326057,0.014496747480942287,0.024706200168998264
1.5067941297180263,0.03344435853615213,0.04085897597373153,0.02809340030703321,0.018035694149578035,0.027527900367143428
1.5068656468729529,0.03469846610783441,0.0440700491043543,0.028836225363534616,0.021664048946606913,0.028160570691746406
1.5069371640278795,0.03608805388876267,0.044711805944268816,0.029158238083419115,0.02431491395267783,0.028402435019685625
1.507008681182806,0.03753193323000867,0.044668815319659196,0.029645090979329304,0.027077780551229787,0.028805997672476987
1.5070801983377327,0.038657419159163646,0.043366758381034064,0.03000532215028713,0.029628421843526147,0.029089587564462227
1.5071517154926592,0.038950459296790155,0.04114317666426319,0.029635790998015537,0.02994825893067529,0.028710440708593327
1.5072232326475858,0.03795818995272562,0.035624305073668844,0.026170643808596194,0.030157968556979067,0.02523881260035024
1.5072947498025124,0.035465807062779846,0.028370936074077483,0.02167628316777021,0.029794395785104302,0.020755262569213416
1.507366266957439,0.03160750390290827,0.02259971813872157,0.01779655130545853,0.029264994946483835,0.01689154580317747
1.5074377841123656,0.02689036393457737,0.017836634030610726,0.014369878001425985,0.028094420280482445,0.013500612685303327
1.5075093012672922,0.022110982309926926,0.014574011223581122,0.012274203971852665,0.026715706372594447,0.011447213060484384
1.5075808184222188,0.018158898886019043,0.013206233213564064,0.010838451012952628,0.02654217602014708,0.010016909484597452
1.5076523355771454,0.015750547010193554,0.012802375524985933,0.009985828883372298,0.026859585179293623,0.009154641953340203
1.507723852732072,0.015198153002695225,0.010805144380681699,0.008495434228764531,0.027524129929986825,0.0076439895930367945
1.5077953698869986,0.01632710132796861,0.008132834076096556,0.006411917338543193,0.026544004585073763,0.0055907838018498645
1.5078668870419252,0.01858159605132472,0.006352702755487623,0.00521914285473996,0.023688771749571718,0.004486062666847806
1.5079384041968518,0.02125563485920751,0.005869222727244816,0.005152249488431391,0.019916363119370936,0.004535387732048104
1.5080099213517784,0.023737553869918368,0.007195227480982846,0.0057615299185219465,0.016300748983352556,0.005255883074400736
1.508081438506705,0.025680396681245936,0.010730116573325994,0.007453924502377228,0.013397994931504488,0.007037094480325187
1.5081529556616315,0.027059576075294776,0.014342536733955706,0.008842952470356694,0.009551527079088039,0.008544056538570028
1.5082244728165581,0.028112039179855254,0.016315929606689403,0.008942296206187028,0.006261940114482662,0.008744756843518166
1.5082959899714847,0.029172386947160022,0.01851470357927343,0.008780907310022895,0.00345648935674021,0.008669990280348889
1.5083675071264113,0.03045818310099522,0.021326425744874193,0.010026451111954632,0.002578645373347031,0.00994204194704976
1.508439024281338,0.03190386747651281,0.024644489446462126,0.012747040105629182,0.0017455616716200487,0.012687058580883767
1.5085105414362645,0.03314377564440417,0.027333010490758067,0.01600259242207933,0.0031164835500036374,0.0158987841093291
1.508582058591191,0.03366149064758627,0.029152721350646,0.0186299276568245,0.0032754853504639685,0.018519991570945235
1.5086535757461177,0.03301661123576188,0.027372101875346895,0.017302793300784304,0.0032567741480477516,0.017194052610071484
1.5087250929010443,0.031031763736761156,0.022713224438316765,0.013978643770450466,0.003516519678254424,0.013863445075717224
1.5087966100559709,0.02787943173947238,0.01650156965209634,0.009773118861112214,0.0049391605137777145,0.009615995421468328
1.5088681272108975,0.024071143965329337,0.010176658100731482,0.005405399448016361,0.0060503480271192085,0.005215994716912198
1.508939644365824,0.020368522042175177,0.0054730735378993,0.002619426200917792,0.006686445141953495,0.002411651399638589
1.5090111615207507,0.017622660517009992,0.0034222984020284373,0.001280243020763253,0.006214427791500126,0.001087656193727789
1.5090826786756772,0.016549556574789192,0.0031330713966013666,0.001094148915450876,0.00588809960685411,0.0009117276297409934
1.5091541958306038,0.01749078347259404,0.003422487752576551,0.001728275756159572,0.006672616807259845,0.0015213324073874578
1.5092257129855304,0.02026609634215111,0.004457775839196611,0.002622344403247119,0.0071886549195746855,0.002399060466115736
1.509297230140457,0.024225306810832306,0.007304026483235316,0.005090188490138515,0.007481115961471438,0.004856771216726905
1.5093687472953836,0.028505184243561566,0.013124845920736887,0.010396256019729185,0.007299444468861458,0.010166081106385212
1.5094402644503102,0.032363241212534366,0.02168956465410792,0.017181792517199104,0.00804854030042724,0.016925586568232964
1.5095117816052368,0.035420479974014,0.030858932819803665,0.023785576506019895,0.010897710289075832,0.023439211904984984
1.5095832987601634,0.03772295943106026,0.037709807082181114,0.028541189697550762,0.011616448335726493,0.028171013206212504
1.50965481591509,0.039632532833370364,0.04032786118855891,0.030196375009199177,0.012845409728105269,0.029788099948688168
1.5097263330700166,0.041605230836871475,0.0390903497786372,0.028415936049993602,0.014183549737606362,0.027967508931204896
1.5097978502249432,0.04392716574129624,0.03693602582089587,0.026087173799228647,0.015361358922095144,0.025603628173409377
1.5098693673798698,0.04649881119729661,0.03490807855393902,0.025125670272120693,0.015429957709895378,0.024640343166003355
1.5099408845347964,0.048782229516577,0.03362306689819591,0.025898717163670308,0.017243253922013195,0.025357917378496925
1.510012401689723,0.04998265464348263,0.03307544615403622,0.027970420605425636,0.019303177101338664,0.027366479214494623
1.5100839188446495,0.04939582665258717,0.029866034062564807,0.02744804663090382,0.020386180078131026,0.026811377493442003
1.5101554359995761,0.046726633743720845,0.025166740193401,0.024915387052692306,0.020901642108074173,0.02426361915943032
1.5102269531545027,0.04221494386441091,0.020178256287477395,0.022036546886626967,0.022708978264296215,0.021330422535621216
1.5102984703094293,0.0365554045951188,0.01636932041430685,0.019143160662124768,0.024662718104227627,0.01837805175739255
1.510369987464356,0.030705701566729478,0.014413577429332792,0.01712115674686206,0.02650498575822751,0.01630017223606333
1.5104415046192825,0.025671938650474672,0.01446322445982261,0.016152578444133103,0.02729902467703192,0.015307472389184326
1.510513021774209,0.02230380117340663,0.01544349507192548,0.01595046449902194,0.027926725319013773,0.015086239576826591
1.5105845389291357,0.02110478427342222,0.015010449690374203,0.014310671393420193,0.026979788419052724,0.01347543617679545
1.5106560560840623,0.022087028251984653,0.012892809412892938,0.011927341615445858,0.025750126864091807,0.0111299374186816
1.5107275732389889,0.02474352062355467,0.009245826129229402,0.008315005741078718,0.02319864233282712,0.007596418181011205
1.5107990903939155,0.028206425428266402,0.007471022964737942,0.006455089330600415,0.02014341909372273,0.005830887741080857
1.510870607548842,0.03156791810921427,0.00864362279499276,0.006924877381908108,0.01660450454399152,0.0064094871777721826
1.5109421247037687,0.034217944840168574,0.012573726982654302,0.0085255112555674,0.014872816552601116,0.00806287957844961
1.5110136418586952,0.036025983655989566,0.01855777364720373,0.01161661354179527,0.010813673101602032,0.01127770126259026
1.5110851590136218,0.03729532439305516,0.02276956702484027,0.013294021431409462,0.00753926373092695,0.01305517950982981
1.5111566761685484,0.03854470610167679,0.025029283877197633,0.013163190298163863,0.005731262282114857,0.012980096602976091
1.511228193323475,0.04022460916569971,0.027661194578855682,0.013651672900344249,0.005877803998621126,0.013463842754848455
1.5112997104784016,0.04246467581659284,0.029319449730113533,0.01442102957265151,0.004778636194913085,0.014266717392038265
1.5113712276333282,0.04493429586497486,0.032114264526200705,0.016921655013448497,0.004764262079159199,0.016766638511183252
1.5114427447882548,0.04689231770787431,0.03448662720823129,0.019784155718843215,0.005021623043482673,0.019619907565766675
1.5115142619431814,0.047454803887083834,0.03320259796616198,0.02007376929597759,0.00566021699968388,0.01988973905346627
1.511585779098108,0.04599085839647899,0.02787738964494631,0.017243949592298295,0.006273488301742162,0.017042319080638663
