freq,gls,usurper,pdc_unbiased,shape_periodogram,shift_periodogram
1.5,0.031605246424144244,0.030493688060619854,0.022003088454338578,0.03557980166405625,-0.002142919649623054
1.5000715171549266,0.028595336453250155,0.024115211497241346,0.01679692217781675,0.028867931631614406,-0.0026082640582751893
1.5001430343098532,0.024797888546036324,0.018663388783204407,0.011419584810450916,0.023559388901942212,-0.004011916569944738
1.5002145514647798,0.020789812632417533,0.017068517035897558,0.008796510756732951,0.01895855392001762,-0.0035515912980757817
1.5002860686197064,0.017345459787468324,0.019790110094035696,0.009479677332466734,0.017214386866158782,-0.0019970972853022963
1.500357585774633,0.015271945925960987,0.024382685923688304,0.011714688134418397,0.017681159619960942,-0.00042402340408563235
1.5004291029295596,0.015165201318802408,0.029704858363371948,0.01415548030345099,0.021908840403072265,-0.0008214626636955347
1.5005006200844861,0.01716595655706576,0.034686909943935834,0.016954003693511403,0.025364048314363605,-0.00048473658720485884
1.5005721372394127,0.02086274426290797,0.038532463263228234,0.019187221778694714,0.02890507996528723,-0.0006618441572911425
1.5006436543943393,0.02544081002802935,0.04179930882836807,0.02137618975240262,0.03207595038030503,-0.0006644914635489642
1.500715171549266,0.03000884122307953,0.045275319677406674,0.02421994995090846,0.03423056132558374,0.0004509035584793804
1.5007866887041925,0.03391266896856934,0.04924445529937764,0.02666061786266369,0.039896309703805546,-0.0007640523613352744
1.500858205859119,0.0368882624749449,0.05370731914767139,0.029368029530911475,0.047230314671789765,-0.0027095702278651587
1.5009297230140457,0.0390355018056212,0.058459078022837514,0.03287087235373193,0.05643059049685388,-0.005063661786064176
1.5010012401689723,0.04067274274449097,0.05985005528037236,0.0349635290275476,0.06388812618893784,-0.007589562257438971
1.5010727573238989,0.04213722341942038,0.05958572159648652,0.036798409825528795,0.06872663103398656,-0.008835520895901975
1.5011442744788255,0.043587855733941964,0.059138966153653494,0.03793328428010061,0.07310432100093024,-0.010397423648795541
1.501215791633752,0.044880915226329254,0.05844835777121334,0.03824814004694497,0.07646993002924625,-0.012059798865578238
1.5012873087886787,0.045592465454410994,0.059172714511697866,0.03896037083855539,0.07992058303672397,-0.013443179596774654
1.5013588259436053,0.04519857422015515,0.058438907754831335,0.038338310339186395,0.08024455031854312,-0.014142626035997469
1.5014303430985318,0.04331902735671992,0.05497804275271085,0.03525172960142179,0.07941795538494624,-0.016220873033514143
1.5015018602534584,0.03989064242203222,0.04744274011594157,0.029380562295107576,0.07541389181693063,-0.0187800983590853
1.501573377408385,0.035207008956161204,0.03859791973578149,0.02275340008029923,0.07033697007521611,-0.02134547095781443
1.5016448945633116,0.029854908046904056,0.030536221166514263,0.01716592382272006,0.06256486763101854,-0.021511004273701752
1.5017164117182382,0.02460404968418353,0.023730068262009935,0.01272729457488559,0.05385250077553155,-0.020194126760851114
1.5017879288731648,0.020274028275387688,0.01969237478524224,0.010756457121333964,0.04643587425548773,-0.017587021964619913
1.5018594460280914,0.01756978332877583,0.01781209325404558,0.009814843547662735,0.04195196148669339,-0.015806315635293614
1.501930963183018,0.016887968997375314,0.017521645391127414,0.009773529530205848,0.03726423969568624,-0.013169507615610416
1.5020024803379446,0.018154766828972088,0.01680635277244555,0.009545857603491862,0.03289424919132125,-0.01086791155338621
1.5020739974928712,0.020807783027131654,0.017425079037431984,0.00997328939183271,0.029554323451056276,-0.008614453229645195
1.5021455146477978,0.023992628107040868,0.019957704953417803,0.01144212206274167,0.02801830992642038,-0.0065314097015284405
1.5022170318027244,0.026898257150269028,0.024444372217463983,0.014028974316248104,0.029611554820424133,-0.005309677137987366
1.502288548957651,0.029041972437567,0.0291503834563072,0.016679671046279716,0.03266458860842613,-0.004866118262409505
1.5023600661125776,0.03036170293294545,0.0342004984546133,0.019990738498687276,0.037188101598279025,-0.004715805540920664
1.5024315832675041,0.031115659296329378,0.03481015365703296,0.02077896981185265,0.04080641194099512,-0.006127397619504212
1.5025031004224307,0.031680428730509906,0.031900726226741234,0.019519808615351825,0.0424186479965935,-0.008082796348639256
1.5025746175773573,0.032340192227813126,0.028073537864613182,0.018649627815208736,0.041401057135929384,-0.008219678564686025
1.502646134732284,0.033131945974426154,0.02529776730474531,0.017871043624403338,0.03867226428976488,-0.007306396603762148
1.5027176518872105,0.033797027787609374,0.024758696363403596,0.01799769758677829,0.03740393148943185,-0.006479756413821261
1.502789169042137,0.033871437590867574,0.023462712541862708,0.017486670760106647,0.03516654537893006,-0.005626366081211723
1.5028606861970637,0.03289397904446062,0.02043036872977865,0.015274482970942199,0.03242548015742517,-0.005886620762272019
1.5029322033519903,0.030638444170610023,0.0170336324784318,0.012011118949132128,0.030082131123299275,-0.0072381397562017915
1.5030037205069169,0.02725242384486997,0.01529424256274911,0.009441040885373031,0.0286124929132687,-0.008516164699472337
1.5030752376618435,0.023245599290448483,0.016892823014165895,0.008606550278537486,0.02810746483335683,-0.00891521708648379
1.50314675481677,0.019358366958489085,0.02031767948381248,0.008953985446160287,0.027930161844674565,-0.008528432390603424
1.5032182719716967,0.01638051368297583,0.02453752211211948,0.010426555451109277,0.028086702586436682,-0.00740596968453949
1.5032897891266233,0.01497089818834955,0.028643361652760126,0.012350463029946239,0.028759292565122645,-0.006205795280959644
1.5033613062815498,0.015499460648454992,0.03194067077807725,0.013981854206916533,0.028984721959658535,-0.0049916155479185955
1.5034328234364764,0.01793079665045714,0.03234734285359527,0.01416864675154985,0.026965709748926352,-0.0036886123261929216
1.503504340591403,0.021792554285279486,0.0316244483806432,0.013806564009865633,0.02435477521269816,-0.002500531055187204
1.5035758577463296,0.026283745634476982,0.03399976380146116,0.015751292513310384,0.02426988938528656,-0.0008518757604698855
1.5036473749012562,0.03053094650102892,0.038976987890462556,0.019003856556851165,0.028900813997255453,-0.0008103621646759233
1.5037188920561828,0.03389868374654469,0.045718684369629205,0.02304438568669538,0.037401974438257705,-0.002322803213938428
1.5037904092111094,0.03619247413189749,0.054083168522273815,0.02836367437687625,0.04680712306465565,-0.003296417833055751
1.503861926366036,0.03764566473947448,0.06025205617094336,0.03246316988130233,0.05564414312241178,-0.00495169191972422
1.5039334435209626,0.038716510453014726,0.06303811982260796,0.03408384953452373,0.06406277204608678,-0.008415369307469486
1.5040049606758892,0.0398171228344044,0.06423168499098686,0.03557140334761458,0.0704554696099389,-0.010835888485288318
1.5040764778308158,0.041095739566223526,0.06731895934575756,0.037525773851031737,0.0757574309222191,-0.012249663986080022
1.5041479949857424,0.04234364882306056,0.07051802684183081,0.038887791087543686,0.08050015597107749,-0.01383451372665721
1.504219512140669,0.043051695709888996,0.07186731706181126,0.03921573232033744,0.08401599786695409,-0.015573965522343648
1.5042910292955955,0.04260283060723393,0.06757198389419014,0.036347749549566495,0.08449874720482581,-0.018221280279699992
1.5043625464505221,0.04053910287302065,0.05732408529622402,0.030363706364527798,0.0805430218484943,-0.020901620349252352
1.5044340636054487,0.03679439695722014,0.04429502495839351,0.02344001313236871,0.0720952573677386,-0.021784153531428034
1.5045055807603753,0.03178229372791513,0.03289614900742597,0.01698689592080203,0.06387571783184068,-0.02240701637675683
1.504577097915302,0.026296542555493532,0.025092867270501848,0.012446934359831944,0.05590371260979632,-0.021595240539175595
1.5046486150702285,0.021278189004975218,0.02222989912128342,0.011187449324425095,0.04922790545251501,-0.018824135852961856
1.504720132225155,0.017555651134353225,0.02141789338777736,0.011283372248322305,0.04402335587328473,-0.015778199640078056
1.5047916493800817,0.01564621916050789,0.02041615856452546,0.010644076718018416,0.040186332763091595,-0.01411782941533735
1.5048631665350083,0.015656872938766518,0.01832242925647836,0.009217644422453899,0.03499185997941545,-0.012332581281581408
1.5049346836899349,0.017286051262519187,0.016873882066250737,0.008230188330603324,0.029834663146223035,-0.010208222611839748
1.5050062008448615,0.019918755698584013,0.016843922471947295,0.007905738300784866,0.025258839316549566,-0.007870138875733849
1.505077717999788,0.022804926807040774,0.019070437696400388,0.009361654152707073,0.022003980195340653,-0.004819800103085455
1.5051492351547147,0.025289013466251117,0.023980986327628878,0.011726326065843064,0.02480351081179732,-0.004467631930572789
1.5052207523096413,0.027015644551186973,0.028925266367014587,0.014241445734319206,0.028901979796180154,-0.004730878456302437
1.5052922694645678,0.028012475009877,0.03141691825530413,0.015961322224474977,0.031340637538503864,-0.004703649867788659
1.5053637866194944,0.028596359216805502,0.028216531266331304,0.014919408532213189,0.030982055057168188,-0.005357070135297981
1.505435303774421,0.02915112616185344,0.021705066491270866,0.013309044659559194,0.027964665851643773,-0.004964626148746599
1.5055068209293476,0.029900153036102176,0.01709320936342637,0.012321918805932341,0.02501266527012212,-0.004096612658196444
1.5055783380842742,0.030782681811496897,0.016323048334759966,0.01250866989698158,0.02354260030565684,-0.0031062681531585637
1.5056498552392008,0.03146961942071043,0.018573653169880123,0.013496870470295333,0.02523241414645042,-0.0032548714378986
1.5057213723941274,0.03149161794629547,0.01979087689052587,0.013134126432083434,0.027612019948974123,-0.004907828476101624
1.505792889549054,0.030427310908792447,0.019671753216844827,0.011855838401314541,0.02955815814562235,-0.007067606905722683
1.5058644067039806,0.02809465201809536,0.0179330733412838,0.009674998552531539,0.029583136324590663,-0.008876288385534281
1.5059359238589072,0.024683284499830333,0.014586610054423941,0.006168765257997816,0.028585109536199138,-0.011192668163236686
1.5060074410138338,0.020766913938386953,0.012446068980774593,0.003987129865862614,0.026822746564549537,-0.011983894793464546
1.5060789581687604,0.017165658691511196,0.013595126382565093,0.004506773893992003,0.02485990024040046,-0.010439064581762606
1.506150475323687,0.014695536880755058,0.016092670436598448,0.005603202541494299,0.024355921642948936,-0.009250297469123321
1.5062219924786135,0.013907828977730352,0.01825321140347595,0.006474304461408025,0.023913849336604055,-0.008282099580689916
1.5062935096335401,0.014929925183180436,0.018581064437502424,0.007024475314287043,0.021057039860567964,-0.006203532863724444
1.5063650267884667,0.01746107614733839,0.01735410621660251,0.006681651925523114,0.018474229964739467,-0.005015664331529768
1.5064365439433933,0.020900617081537138,0.01862002645075843,0.008103902228742074,0.016838661334212537,-0.002915031831610665
1.50650806109832,0.024545654709518663,0.022456115046024502,0.01119024144466396,0.015263628383002124,0.000520048335076074
1.5065795782532465,0.027795889555703463,0.029285222172752985,0.015188716512202768,0.018933667184748808,0.0017216352182934575
1.506651095408173,0.030315638754338018,0.038294195070432475,0.02020329875354711,0.025169710158818293,0.002300327130537199
1.5067226125630997,0.03210575674634778,0.04741275099407815,0.02516307524326057,0.03330392981826074,0.0017551139219583337
1.5067941297180263,0.03344435853615213,0.05264678298690344,0.02809340030703321,0.040789837466616075,-9.219603083485477e-05
1.5068656468729529,0.03469846610783441,0.053056219252507156,0.028836225363534616,0.04514946081098315,-0.0019626675559277283
1.5069371640278795,0.03608805388876267,0.051970576106217255,0.029158238083419115,0.04727862409536259,-0.0029100370357001814
1.507008681182806,0.03753193323000867,0.051715658636033154,0.029645090979329304,0.049655260727075476,-0.003862693780041619
1.5070801983377327,0.038657419159163646,0.05197465608194951,0.03000532215028713,0.051167724386036464,-0.004427505324370525
1.5071517154926592,0.038950459296790155,0.050883964512230664,0.029635790998015537,0.0507612481493587,-0.004500570751582971
1.5072232326475858,0.03795818995272562,0.04578809649043724,0.026170643808596194,0.049198491519817415,-0.006466546931405562
1.5072947498025124,0.035465807062779846,0.0392300491838344,0.02167628316777021,0.04627975200120032,-0.00850655406953808
1.507366266957439,0.03160750390290827,0.0338089026611605,0.01779655130545853,0.042932873330435196,-0.009794847713791705
1.5074377841123656,0.02689036393457737,0.029138346877852755,0.014369878001425985,0.03988957852650641,-0.010882180474298807
1.5075093012672922,0.022110982309926926,0.02495430977791076,0.012274203971852665,0.03591540433422497,-0.010343322509581207
1.5075808184222188,0.018158898886019043,0.022241210189077765,0.010838451012952628,0.03389917231561786,-0.010376577945163732
1.5076523355771454,0.015750547010193554,0.02066720858605488,0.009985828883372298,0.0318735967955548,-0.00992468835473055
1.507723852732072,0.015198153002695225,0.017667424252175278,0.008495434228764531,0.0277326148147809,-0.00879323081393104
1.5077953698869986,0.01632710132796861,0.013621544188171178,0.006411917338543193,0.02215646831067529,-0.007333151716739985
1.5078668870419252,0.01858159605132472,0.01066652472699443,0.00521914285473996,0.016475638610463205,-0.005081333168091775
1.5079384041968518,0.02125563485920751,0.008928963524707009,0.005152249488431391,0.01036938892098381,-0.0016619557810953825
1.5080099213517784,0.023737553869918368,0.008814589520709439,0.0057615299185219465,0.007154419369063948,0.0006682479641380073
1.508081438506705,0.025680396681245936,0.010797671338795181,0.007453924502377228,0.005997556085461544,0.0027183376700730677
1.5081529556616315,0.027059576075294776,0.01261297653130342,0.008842952470356694,0.006070006601485032,0.003819582411910608
1.5082244728165581,0.028112039179855254,0.011781033768204312,0.008942296206187028,0.0056163350282444294,0.004159374600104322
1.5082959899714847,0.029172386947160022,0.009475243078807757,0.008780907310022895,0.005378226215983829,0.0041620868869109325
1.5083675071264113,0.03045818310099522,0.009288610072951946,0.010026451111954632,0.006297813877033958,0.004663427670575093
1.508439024281338,0.03190386747651281,0.013263801629466119,0.012747040105629182,0.009440980477050108,0.005113258678977171
1.5085105414362645,0.03314377564440417,0.019300557346726838,0.01600259242207933,0.014474540729095512,0.004928170720424843
1.508582058591191,0.03366149064758627,0.02427629197104406,0.0186299276568245,0.018962612439634458,0.004536920642289524
1.5086535757461177,0.03301661123576188,0.02432745102127496,0.017302793300784304,0.02091382483734258,0.002334636194223653
1.5087250929010443,0.031031763736761156,0.02050209199263922,0.013978643770450466,0.020624304833969605,-0.00023601596888804709
1.5087966100559709,0.02787943173947238,0.01536741328062983,0.009773118861112214,0.018361013014366528,-0.00240816044209377
1.5088681272108975,0.024071143965329337,0.010571308973716073,0.005405399448016361,0.0164496728465887,-0.004913357658902457
1.508939644365824,0.020368522042175177,0.0066131555131066,0.002619426200917792,0.013337965944042384,-0.005434157170039539
1.5090111615207507,0.017622660517009992,0.004565576043605561,0.001280243020763253,0.012036306568684436,-0.005794918366594311
1.5090826786756772,0.016549556574789192,0.0038032925090351337,0.001094148915450876,0.012212496451273747,-0.006048216182916296
1.5091541958306038,0.01749078347259404,0.003740881791428382,0.001728275756159572,0.011369597121704721,-0.005047099819631704
1.5092257129855304,0.02026609634215111,0.004209176498372087,0.002622344403247119,0.008917062293163075,-0.0029163978382239723
1.509297230140457,0.024225306810832306,0.0075618947375372825,0.005090188490138515,0.007374283692738281,-8.989729848834699e-06
1.5093687472953836,0.028505184243561566,0.01543636492750482,0.010396256019729185,0.007935451865619971,0.004036002187977287
1.5094402644503102,0.032363241212534366,0.026409842998579805,0.017181792517199104,0.011779132962526456,0.007431628220607058
1.5095117816052368,0.035420479974014,0.0384887112745459,0.023785576506019895,0.017816234174976592,0.009432316008183558
1.5095832987601634,0.03772295943106026,0.04740236890778016,0.028541189697550762,0.022618165580637756,0.01061660194697188
1.50965481591509,0.039632532833370364,0.04993552978249423,0.030196375009199177,0.025418209873717183,0.010387327013952969
1.5097263330700166,0.041605230836871475,0.04509260058153218,0.028415936049993602,0.025186169185955933,0.009052908656755614
1.5097978502249432,0.04392716574129624,0.03765754133454374,0.026087173799228647,0.020965791730587865,0.009535726678943252
1.5098693673798698,0.04649881119729661,0.03339798674306602,0.025125670272120693,0.01672892145772718,0.011153769798775593
1.5099408845347964,0.048782229516577,0.033600668574372404,0.025898717163670308,0.01614455712746341,0.012122417121251446
1.510012401689723,0.04998265464348263,0.036651921516587666,0.027970420605425636,0.017498920778640053,0.013057751236466223
1.5100839188446495,0.04939582665258717,0.03736146798633894,0.02744804663090382,0.018483194999449892,0.012067994076166716
1.5101554359995761,0.046726633743720845,0.03520471566575935,0.024915387052692306,0.018310733714983755,0.01008108432889971
1.5102269531545027,0.04221494386441091,0.03265588574140873,0.022036546886626967,0.0174715493033819,0.008188760211363546
1.5102984703094293,0.0365554045951188,0.03125590461699624,0.019143160662124768,0.018121330985375536,0.005437882176685881
1.510369987464356,0.030705701566729478,0.03144640594718121,0.01712115674686206,0.01962965866730643,0.002915800403756283
1.5104415046192825,0.025671938650474672,0.03279380741903541,0.016152578444133103,0.02176494186661182,0.0009038033410246103
1.510513021774209,0.02230380117340663,0.034620153168754685,0.01595046449902194,0.024623489730654705,-0.0008891963584977468
1.5105845389291357,0.02110478427342222,0.03336988941367404,0.014310671393420193,0.025148974118807454,-0.0025377091224906704
1.5106560560840623,0.022087028251984653,0.02833711258421039,0.011927341615445858,0.02109727014251135,-0.0021929471099999946
1.5107275732389889,0.02474352062355467,0.020071796082060136,0.008315005741078718,0.014814959386514805,-0.0015898856093051641
1.5107990903939155,0.028206425428266402,0.013694781792994491,0.006455089330600415,0.008377354452201675,0.0005429391345338905
1.510870607548842,0.03156791810921427,0.01060084822054539,0.006924877381908108,0.003664048867365998,0.003610710805821359
1.5109421247037687,0.034217944840168574,0.010718422316833785,0.0085255112555674,0.0025946356764899644,0.005535523326330423
1.5110136418586952,0.036025983655989566,0.013960472577091633,0.01161661354179527,0.0037715038335189954,0.007408445940045766
1.5110851590136218,0.03729532439305516,0.015549542668324418,0.013294021431409462,0.006113944544685236,0.007455741155490067
1.5111566761685484,0.03854470610167679,0.014089793053835948,0.013163190298163863,0.008925950196195749,0.005748563678238392
1.511228193323475,0.04022460916569971,0.012603585370607885,0.013651672900344249,0.009772121022378915,0.005669060339728946
1.5112997104784016,0.04246467581659284,0.013425332496127021,0.01442102957265151,0.010682444588022031,0.005784139620344322
1.5113712276333282,0.04493429586497486,0.01844768937152919,0.016921655013448497,0.013477174752060953,0.006251712706722993
1.5114427447882548,0.04689231770787431,0.0243277800824001,0.019784155718843215,0.016973624611529466,0.006618267890247195
1.5115142619431814,0.047454803887083834,0.026879887284896393,0.02007376929597759,0.019583321091832948,0.005372073003251995
