freq,gls,usurper,pdc_unbiased,shape_periodogram,shift_periodogram
1.5,0.031605246424144244,0.03591515153281347,0.022003088454338578,0.0557840877339449,-0.025083150037650333
1.5000715171549266,0.028595336453250155,0.029122830968903297,0.01679692217781675,0.048189592201315155,-0.023193066077997742
1.5001430343098532,0.024797888546036324,0.023254399413164012,0.011419584810450916,0.0418093185859036,-0.022300912570154416
1.5002145514647798,0.020789812632417533,0.021200786742539304,0.008796510756732951,0.035838380091311434,-0.019799575444202917
1.5002860686197064,0.017345459787468324,0.02351843844593052,0.009479677332466734,0.03214992884781712,-0.016661111630347166
1.500357585774633,0.015271945925960987,0.027820148337541123,0.011714688134418397,0.030096115628223886,-0.013630227928871232
1.5004291029295596,0.015165201318802408,0.033019968137946956,0.01415548030345099,0.03237758846480031,-0.013589425270356241
1.5005006200844861,0.01716595655706576,0.037448851056309525,0.016954003693511403,0.03232152146813022,-0.011611496241981616
1.5005721372394127,0.02086274426290797,0.040044560707509426,0.019187221778694714,0.029383665609317933,-0.007942327187802824
1.5006436543943393,0.02544081002802935,0.04222800892811276,0.02137618975240262,0.02686835408119645,-0.004609230961784488
1.500715171549266,0.03000884122307953,0.044990700438998374,0.02421994995090846,0.02578151565102674,-0.0018544965870793432
1.5007866887041925,0.03391266896856934,0.04901146607665765,0.02666061786266369,0.030989684076434192,-0.003926041566391562
1.500858205859119,0.0368882624749449,0.05430225677888374,0.029368029530911475,0.04144175187397956,-0.009603500495604744
1.5009297230140457,0.0390355018056212,0.06071820104037565,0.03287087235373193,0.05772264704576939,-0.018952423149976496
1.5010012401689723,0.04067274274449097,0.06409551084642162,0.0349635290275476,0.07468840184411314,-0.029793931500609203
1.5010727573238989,0.04213722341942038,0.06562600930327875,0.036798409825528795,0.08848854043168183,-0.03853891939229359
1.5011442744788255,0.043587855733941964,0.06647890719391493,0.03793328428010061,0.09925849198088821,-0.045583738646248005
1.501215791633752,0.044880915226329254,0.06633989422385039,0.03824814004694497,0.10466412177894013,-0.049301701792247264
1.5012873087886787,0.045592465454410994,0.06702883868119848,0.03896037083855539,0.10601620416835517,-0.04979213525401514
1.5013588259436053,0.04519857422015515,0.0661798481489961,0.038338310339186395,0.10542752519047288,-0.04979530781726903
1.5014303430985318,0.04331902735671992,0.06254386974112966,0.03525172960142179,0.10332017103824025,-0.0504034466501444
1.5015018602534584,0.03989064242203222,0.0548301246395018,0.029380562295107576,0.0982032142436853,-0.050751331728278996
1.501573377408385,0.035207008956161204,0.04569108252760654,0.02275340008029923,0.09159587175576461,-0.050538162704943136
1.5016448945633116,0.029854908046904056,0.03718396419418614,0.01716592382272006,0.08308567624327903,-0.04822416107631296
1.5017164117182382,0.02460404968418353,0.02998441050065842,0.01272729457488559,0.07391980101549833,-0.04464485032623686
1.5017879288731648,0.020274028275387688,0.025530817645591532,0.010756457121333964,0.06495850816990985,-0.039513155503270406
1.5018594460280914,0.01756978332877583,0.02326795415688412,0.009814843547662735,0.05836934292483629,-0.03539261293844572
1.501930963183018,0.016887968997375314,0.022081677093361854,0.009773529530205848,0.04876851715850524,-0.028473150000004745
1.5020024803379446,0.018154766828972088,0.01986735531711977,0.009545857603491862,0.03693818118358012,-0.02007599505927675
1.5020739974928712,0.020807783027131654,0.019004773387137925,0.00997328939183271,0.025957690826915174,-0.011845359745552918
1.5021455146477978,0.023992628107040868,0.020635261934437533,0.01144212206274167,0.019794851694105296,-0.006377103033155518
1.5022170318027244,0.026898257150269028,0.02527178619004673,0.014028974316248104,0.022127261609063593,-0.006271346167464207
1.502288548957651,0.029041972437567,0.03103247166964454,0.016679671046279716,0.03098670928140816,-0.01083686614670848
1.5023600661125776,0.03036170293294545,0.037981476526051654,0.019990738498687276,0.04620112395292867,-0.01954297232163995
1.5024315832675041,0.031115659296329378,0.040855181040980626,0.02077896981185265,0.0634789081657188,-0.03150337060979258
1.5025031004224307,0.031680428730509906,0.03991680139481828,0.019519808615351825,0.07691241174513562,-0.04211414792049248
1.5025746175773573,0.032340192227813126,0.03731432287084901,0.018649627815208736,0.0840466581478592,-0.04789490329148741
1.502646134732284,0.033131945974426154,0.034610546124814456,0.017871043624403338,0.08325278402641369,-0.04785742799084121
1.5027176518872105,0.033797027787609374,0.033332328739871867,0.01799769758677829,0.0783066024676462,-0.04417959233904836
1.502789169042137,0.033871437590867574,0.031176373303561364,0.017486670760106647,0.07197312243231051,-0.039939426828858676
1.5028606861970637,0.03289397904446062,0.027334169150548333,0.015274482970942199,0.06528238278178984,-0.03662136705925274
1.5029322033519903,0.030638444170610023,0.0233597848111306,0.012011118949132128,0.05986894726401002,-0.03495879968869967
1.5030037205069169,0.02725242384486997,0.02128857613279171,0.009441040885373031,0.05614522597813525,-0.034041151561452467
1.5030752376618435,0.023245599290448483,0.022816717277718127,0.008606550278537486,0.05497841261849422,-0.03377391995773594
1.50314675481677,0.019358366958489085,0.02635281206249502,0.008953985446160287,0.05475320944182752,-0.03337057192761134
1.5032182719716967,0.01638051368297583,0.03089207273327272,0.010426555451109277,0.055375432066840286,-0.03280211009108884
1.5032897891266233,0.01497089818834955,0.035209723523240866,0.012350463029946239,0.055443738700625696,-0.031520258717760354
1.5033613062815498,0.015499460648454992,0.03802968125639697,0.013981854206916533,0.051844450297516234,-0.027786261084030726
1.5034328234364764,0.01793079665045714,0.037083731407980144,0.01416864675154985,0.04277489288932721,-0.021096353661858202
1.503504340591403,0.021792554285279486,0.03445644121346346,0.013806564009865633,0.029874535515926687,-0.012022210254925555
1.5035758577463296,0.026283745634476982,0.0353005368124264,0.015751292513310384,0.02002622541151756,-0.0035616078507354036
1.5036473749012562,0.03053094650102892,0.03971920095364242,0.019003856556851165,0.01905125981461826,-0.0006057540937543872
1.5037188920561828,0.03389868374654469,0.047012023811583176,0.02304438568669538,0.02761413455477989,-0.003992597267770077
1.5037904092111094,0.03619247413189749,0.057386588215778044,0.02836367437687625,0.04660960962111482,-0.014036710170672996
1.503861926366036,0.03764566473947448,0.06629200338021903,0.03246316988130233,0.07026491142248065,-0.028321451517033656
1.5039334435209626,0.038716510453014726,0.07189816080008057,0.03408384953452373,0.09313412651632484,-0.0438006823318337
1.5040049606758892,0.0398171228344044,0.07524558747197606,0.03557140334761458,0.11062572881847625,-0.05550635045434837
1.5040764778308158,0.041095739566223526,0.07948121068716488,0.037525773851031737,0.12096369844195774,-0.06169659422012809
1.5041479949857424,0.04234364882306056,0.0826137726474052,0.038887791087543686,0.12334161219979643,-0.0624887421469029
1.504219512140669,0.043051695709888996,0.08314975497720839,0.03921573232033744,0.11999394346957208,-0.0598141266562069
1.5042910292955955,0.04260283060723393,0.0776447441516275,0.036347749549566495,0.1128606449301351,-0.05659770971726573
1.5043625464505221,0.04053910287302065,0.06610826658600756,0.030363706364527798,0.10209104224844355,-0.052899880074940835
1.5044340636054487,0.03679439695722014,0.05197078851686334,0.02344001313236871,0.08929612898409382,-0.04839096588563897
1.5045055807603753,0.03178229372791513,0.039814379989604805,0.01698689592080203,0.07904995887283221,-0.045418714179649315
1.504577097915302,0.026296542555493532,0.03160292917110084,0.012446934359831944,0.0705768164506441,-0.042415043060676914
1.5046486150702285,0.021278189004975218,0.02891275722910335,0.011187449324425095,0.06582739037213749,-0.03984447788859919
1.504720132225155,0.017555651134353225,0.028513950038273506,0.011283372248322305,0.06311258193515631,-0.037811445787785815
1.5047916493800817,0.01564621916050789,0.027785596504403386,0.010644076718018416,0.060350724215578536,-0.036253544929077515
1.5048631665350083,0.015656872938766518,0.025136139982188093,0.009217644422453899,0.052768331185719615,-0.03175172245053351
1.5049346836899349,0.017286051262519187,0.02214864346680502,0.008230188330603324,0.04091345371271164,-0.023860195052641295
1.5050062008448615,0.019918755698584013,0.02056625133977585,0.007905738300784866,0.029185647491678516,-0.015608273931777931
1.505077717999788,0.022804926807040774,0.021439698396578923,0.009361654152707073,0.019575125604223934,-0.007658178309347073
1.5051492351547147,0.025289013466251117,0.02591287413420013,0.011726326065843064,0.019758572982791295,-0.0061542074933739616
1.5052207523096413,0.027015644551186973,0.03167825416862016,0.014241445734319206,0.028981778085412205,-0.01107611629892931
1.5052922694645678,0.028012475009877,0.035760597526946325,0.015961322224474977,0.04209598280545192,-0.019364388258148593
1.5053637866194944,0.028596359216805502,0.03458216694082307,0.014919408532213189,0.05592834180893286,-0.030092993150072793
1.505435303774421,0.02915112616185344,0.029756885860973165,0.013309044659559194,0.06659244648282449,-0.03893084813745195
1.5055068209293476,0.029900153036102176,0.026151209558144248,0.012321918805932341,0.07229029192420267,-0.04374374462569897
1.5055783380842742,0.030782681811496897,0.025437249922247492,0.01250866989698158,0.07235647890895242,-0.04366253090737282
1.5056498552392008,0.03146961942071043,0.027042571297874556,0.013496870470295333,0.06986286078848529,-0.04117104170457248
1.5057213723941274,0.03149161794629547,0.027451750241569012,0.013134126432083434,0.06664185200254072,-0.03908768902372081
1.505792889549054,0.030427310908792447,0.026305342844972757,0.011855838401314541,0.06154225284975745,-0.036278001210397356
1.5058644067039806,0.02809465201809536,0.023407211372325407,0.009674998552531539,0.05418692919950957,-0.03246190682364984
1.5059359238589072,0.024683284499830333,0.01914308584330446,0.006168765257997816,0.04783292335904095,-0.030290243188010907
1.5060074410138338,0.020766913938386953,0.01643417965536588,0.003987129865862614,0.04252244286487022,-0.027958854602147507
1.5060789581687604,0.017165658691511196,0.01743621495229596,0.004506773893992003,0.03918192619196239,-0.025184326001391498
1.506150475323687,0.014695536880755058,0.020183484150951576,0.005603202541494299,0.03800908793267985,-0.023578025900371873
1.5062219924786135,0.013907828977730352,0.02261688129332438,0.006474304461408025,0.03656604204277244,-0.021932290020274737
1.5062935096335401,0.014929925183180436,0.022660645192971954,0.007024475314287043,0.031057612707628825,-0.017570680226376367
1.5063650267884667,0.01746107614733839,0.0203167437368497,0.006681651925523114,0.021209559322767114,-0.010693197113619308
1.5064365439433933,0.020900617081537138,0.020442495800983885,0.008103902228742074,0.011568715272124554,-0.002746415717435914
1.50650806109832,0.024545654709518663,0.023411772949279028,0.01119024144466396,0.0049895296994565365,0.0041398052389437804
1.5065795782532465,0.027795889555703463,0.0302301054840574,0.015188716512202768,0.007940626344686555,0.004776136655273922
1.506651095408173,0.030315638754338018,0.04014234387713188,0.02020329875354711,0.018154693318604875,0.0008721695858783274
1.5067226125630997,0.03210575674634778,0.050958120663291286,0.02516307524326057,0.03474847849961017,-0.007679724173827443
1.5067941297180263,0.03344435853615213,0.058371965405968854,0.02809340030703321,0.05303617927792335,-0.018873509304922872
1.5068656468729529,0.03469846610783441,0.06056305023879168,0.028836225363534616,0.0675484837341271,-0.028868180457502415
1.5069371640278795,0.03608805388876267,0.06064124662726712,0.029158238083419115,0.07617611868235276,-0.034900901796528334
1.507008681182806,0.03753193323000867,0.06070538242537884,0.029645090979329304,0.07907463926858278,-0.03666651364888503
1.5070801983377327,0.038657419159163646,0.06027216498470905,0.03000532215028713,0.07482300220651324,-0.03333183008450569
1.5071517154926592,0.038950459296790155,0.05828023486417001,0.029635790998015537,0.06839025380478143,-0.028923802301404213
1.5072232326475858,0.03795818995272562,0.05209273853906505,0.026170643808596194,0.060597818791680975,-0.025680593249119137
1.5072947498025124,0.035465807062779846,0.04443443735597341,0.02167628316777021,0.05103192513531153,-0.0218702443108777
1.507366266957439,0.03160750390290827,0.038123992567623756,0.01779655130545853,0.042932479406048385,-0.01869856679815704
1.5074377841123656,0.02689036393457737,0.03284173515382546,0.014369878001425985,0.03720652628552002,-0.016931173746347537
1.5075093012672922,0.022110982309926926,0.02860542673801088,0.012274203971852665,0.033881463044595446,-0.015978451322114593
1.5075808184222188,0.018158898886019043,0.02635535657858683,0.010838451012952628,0.03398894768176319,-0.017049822165958746
1.5076523355771454,0.015750547010193554,0.0252915911876978,0.009985828883372298,0.034818928316429146,-0.018239737917665772
1.507723852732072,0.015198153002695225,0.02233621757451073,0.008495434228764531,0.03207200778181017,-0.017285889120168176
1.5077953698869986,0.01632710132796861,0.01734587046232512,0.006411917338543193,0.02366756032272003,-0.012655343005416307
1.5078668870419252,0.01858159605132472,0.013057788627987978,0.00521914285473996,0.013631693178244022,-0.006232210186446871
1.5079384041968518,0.02125563485920751,0.010190668388079922,0.005152249488431391,0.0044521991647724695,0.00034995256545926074
1.5080099213517784,0.023737553869918368,0.009632109742719714,0.0057615299185219465,0.0010717737211380317,0.003212293479306821
1.508081438506705,0.025680396681245936,0.011785889615113091,0.007453924502377228,0.004039210266584519,0.002240664481947211
1.5081529556616315,0.027059576075294776,0.014529316999629002,0.008842952470356694,0.012583978915567829,-0.0029681613672390907
1.5082244728165581,0.028112039179855254,0.014961839736803454,0.008942296206187028,0.022423233706930844,-0.010005573820414325
1.5082959899714847,0.029172386947160022,0.013759074370330757,0.008780907310022895,0.031305813517269895,-0.01653467214248985
1.5083675071264113,0.03045818310099522,0.014340813072102545,0.010026451111954632,0.03843767733856369,-0.02082736837753416
1.508439024281338,0.03190386747651281,0.018672024554577876,0.012747040105629182,0.043716137003560744,-0.022761026501366816
1.5085105414362645,0.03314377564440417,0.02454905581465991,0.01600259242207933,0.04606695045089408,-0.02220759881666827
1.508582058591191,0.03366149064758627,0.029091718828879554,0.0186299276568245,0.046531337937088996,-0.02072426438645593
1.5086535757461177,0.03301661123576188,0.028524698246138784,0.017302793300784304,0.04513346427142257,-0.02063219756201476
1.5087250929010443,0.031031763736761156,0.023970169437981633,0.013978643770450466,0.040300842883187055,-0.01943898191052148
1.5087966100559709,0.02787943173947238,0.018052083364113753,0.009773118861112214,0.0328287681482746,-0.016948617825856223
1.5088681272108975,0.024071143965329337,0.01264329080081563,0.005405399448016361,0.026509567305812682,-0.015404841822954289
1.508939644365824,0.020368522042175177,0.008516053956558146,0.002619426200917792,0.021680951643678115,-0.013844239109707675
1.5090111615207507,0.017622660517009992,0.006655993884203043,0.001280243020763253,0.01935032674421895,-0.013087349219404529
1.5090826786756772,0.016549556574789192,0.006305300444222422,0.001094148915450876,0.01880934423811943,-0.012825370725053919
1.5091541958306038,0.01749078347259404,0.006331485204883224,0.001728275756159572,0.01625148309996351,-0.010539357802285633
1.5092257129855304,0.02026609634215111,0.006287205504711347,0.002622344403247119,0.010787649303293293,-0.005975108152787798
1.509297230140457,0.024225306810832306,0.008699235785619118,0.005090188490138515,0.004397161485403524,0.0003467534624388265
1.5093687472953836,0.028505184243561566,0.016050232566415457,0.010396256019729185,0.0012947166568770157,0.006258069313939116
1.5094402644503102,0.032363241212534366,0.02713963241890722,0.017181792517199104,0.00433482983095844,0.008758774670254845
1.5095117816052368,0.035420479974014,0.040178559497875535,0.023785576506019895,0.013938472279759319,0.006397005132303157
1.5095832987601634,0.03772295943106026,0.05070642088664984,0.028541189697550762,0.026494808529105403,0.0006240834887737994
1.50965481591509,0.039632532833370364,0.05489137678688796,0.030196375009199177,0.038282516632364594,-0.006745529412570867
1.5097263330700166,0.041605230836871475,0.05113849822239343,0.028415936049993602,0.0456687736519974,-0.01332002906415788
1.5097978502249432,0.04392716574129624,0.04396727053475589,0.026087173799228647,0.04543308313869675,-0.014763720226600193
1.5098693673798698,0.04649881119729661,0.03934766840686049,0.025125670272120693,0.04017268230850126,-0.01162632064697665
1.5099408845347964,0.048782229516577,0.038831398020779805,0.025898717163670308,0.034094140862667065,-0.006697145512302087
1.510012401689723,0.04998265464348263,0.041043510382272996,0.027970420605425636,0.028735431947926948,-0.0013898923908058649
1.5100839188446495,0.04939582665258717,0.041199655512445525,0.02744804663090382,0.024684599670534133,0.001174089043264664
1.5101554359995761,0.046726633743720845,0.03869094832253655,0.024915387052692306,0.021220155291105387,0.0019216143976162226
1.5102269531545027,0.04221494386441091,0.03590019818814636,0.022036546886626967,0.01754370730366332,0.0025827531110766905
1.5102984703094293,0.0365554045951188,0.03468820961365758,0.019143160662124768,0.018070743191915012,0.00019879270263126626
1.510369987464356,0.030705701566729478,0.03534971088741597,0.01712115674686206,0.02109784664146123,-0.003387283149584582
1.5104415046192825,0.025671938650474672,0.037416603505567844,0.016152578444133103,0.02643985134845746,-0.007916609938174163
1.510513021774209,0.02230380117340663,0.03997359374864927,0.01595046449902194,0.032144617308424266,-0.012178449925499577
1.5105845389291357,0.02110478427342222,0.03873917950266082,0.014310671393420193,0.03301782928102474,-0.01394468221371362
1.5106560560840623,0.022087028251984653,0.03288813227086498,0.011927341615445858,0.02709882755594061,-0.011317427148918889
1.5107275732389889,0.02474352062355467,0.023071250117452754,0.008315005741078718,0.01616842359972911,-0.005922030176322505
1.5107990903939155,0.028206425428266402,0.015221692051516408,0.006455089330600415,0.005944770103032392,0.00017366681350913874
1.510870607548842,0.03156791810921427,0.011263667197026076,0.006924877381908108,0.0007238739959943899,0.004268378128873767
1.5109421247037687,0.034217944840168574,0.011514992393175239,0.0085255112555674,0.004161360809800047,0.002893914104339849
1.5110136418586952,0.036025983655989566,0.015882929756817012,0.01161661354179527,0.015060710249237929,-0.002837297235167754
1.5110851590136218,0.03729532439305516,0.019100801980103204,0.013294021431409462,0.02922368011403154,-0.011906708945550763
1.5111566761685484,0.03854470610167679,0.01921417012984226,0.013163190298163863,0.04353468166384033,-0.022341764366173158
1.511228193323475,0.04022460916569971,0.018648084064502038,0.013651672900344249,0.052283691677683215,-0.028332651751004457
1.5112997104784016,0.04246467581659284,0.01962635890143461,0.01442102957265151,0.05519268278489273,-0.02990546520818117
1.5113712276333282,0.04493429586497486,0.024066865361878312,0.016921655013448497,0.054142299384279016,-0.02741404542668166
1.5114427447882548,0.04689231770787431,0.028898118171302584,0.019784155718843215,0.0495982815697424,-0.022143562107528224
1.5115142619431814,0.047454803887083834,0.030560456514686,0.02007376929597759,0.04415991251768245,-0.01800916225025408
1.511585779098108,0.04599085839647899,0.026969642194358507,0.017243949592298295,0.0382084897344631,-0.015665683476680962
