freq,gls,usurper,pdc_unbiased,shape_periodogram,shift_periodogram
1.5,0.031605246424144244,0.03169059233229311,0.022003088454338578,0.04499691604343105,-0.017485924148042686
1.5000715171549266,0.028595336453250155,0.024938112318663212,0.01679692217781675,0.03700400546086837,-0.015271218063473419
1.5001430343098532,0.024797888546036324,0.019096475207921935,0.011419584810450916,0.03029172486588857,-0.014104799545237684
1.5002145514647798,0.020789812632417533,0.01705928457315806,0.008796510756732951,0.024099481304652785,-0.01141900312726695
1.5002860686197064,0.017345459787468324,0.01936820893207299,0.009479677332466734,0.02044262398974587,-0.0082957929828218
1.500357585774633,0.015271945925960987,0.023576803804845933,0.011714688134418397,0.018937559627320615,-0.005664556199156549
1.5004291029295596,0.015165201318802408,0.02870513794937055,0.01415548030345099,0.022631436213196,-0.006662321613411439
1.5005006200844861,0.01716595655706576,0.03347557898627194,0.016954003693511403,0.024960828390501098,-0.006423754697152332
1.5005721372394127,0.02086274426290797,0.03712245750470207,0.019187221778694714,0.026239805251175273,-0.005812506599511632
1.5006436543943393,0.02544081002802935,0.040362419881963645,0.02137618975240262,0.027612457228962238,-0.005299486446448776
1.500715171549266,0.03000884122307953,0.04398596630847858,0.02421994995090846,0.028927242428528028,-0.004292753971894753
1.5007866887041925,0.03391266896856934,0.04832567828211387,0.02666061786266369,0.03515207710267951,-0.0071264087722092044
1.500858205859119,0.0368882624749449,0.053365596334585985,0.029368029530911475,0.044781623574332546,-0.012249221614618095
1.5009297230140457,0.0390355018056212,0.05899682097918378,0.03287087235373193,0.05800992504651092,-0.019442937004845888
1.5010012401689723,0.04067274274449097,0.06139587159545476,0.0349635290275476,0.07013870282280484,-0.026821192080830898
1.5010727573238989,0.04213722341942038,0.062092155006902815,0.036798409825528795,0.07898614017958314,-0.0319975809011087
1.5011442744788255,0.043587855733941964,0.06247612897145817,0.03793328428010061,0.08717211134057523,-0.037182290133301654
1.501215791633752,0.044880915226329254,0.06233500136842264,0.03824814004694497,0.09286987508840418,-0.04112355210117964
1.5012873087886787,0.045592465454410994,0.06335647795852031,0.03896037083855539,0.09684901853026108,-0.04353770804677728
1.5013588259436053,0.04519857422015515,0.06271023703691829,0.038338310339186395,0.09760779443583541,-0.04452231074754127
1.5014303430985318,0.04331902735671992,0.05904443643621451,0.03525172960142179,0.09622121406412534,-0.045642583378845955
1.5015018602534584,0.03989064242203222,0.05118100877971314,0.029380562295107576,0.09101827639286436,-0.045897409737754864
1.501573377408385,0.035207008956161204,0.04194806467807883,0.02275340008029923,0.08440035936926456,-0.04564039329995849
1.5016448945633116,0.029854908046904056,0.033450826840037286,0.01716592382272006,0.07533924759819545,-0.042887464596372535
1.5017164117182382,0.02460404968418353,0.026238794748194783,0.01272729457488559,0.06533360038014145,-0.03866136011688911
1.5017879288731648,0.020274028275387688,0.021774509865662706,0.010756457121333964,0.05584731100755552,-0.033120210883897924
1.5018594460280914,0.01756978332877583,0.019444611882268693,0.009814843547662735,0.04990802651010318,-0.029452616651968327
1.501930963183018,0.016887968997375314,0.018518032591099683,0.009773529530205848,0.042623280070850256,-0.02418992025022699
1.5020024803379446,0.018154766828972088,0.017195518719655214,0.009545857603491862,0.03483326941226016,-0.018691410070768674
1.5020739974928712,0.020807783027131654,0.017247794776831776,0.00997328939183271,0.02795313791105988,-0.013404231424590586
1.5021455146477978,0.023992628107040868,0.019424146321401253,0.01144212206274167,0.024429496860316254,-0.009836000937146042
1.5022170318027244,0.026898257150269028,0.023878393834250423,0.014028974316248104,0.02647570558862149,-0.009538272971302402
1.502288548957651,0.029041972437567,0.028815071087903658,0.016679671046279716,0.03213962198493312,-0.01182146509011301
1.5023600661125776,0.03036170293294545,0.03435615920264411,0.019990738498687276,0.04113968682118066,-0.016072286287725678
1.5024315832675041,0.031115659296329378,0.03567226905142304,0.02077896981185265,0.0504717983943439,-0.022307141541134792
1.5025031004224307,0.031680428730509906,0.03340829333461441,0.019519808615351825,0.05642984310691582,-0.027505481233637656
1.5025746175773573,0.032340192227813126,0.030126153470179114,0.018649627815208736,0.058771723574093014,-0.029808004028648347
1.502646134732284,0.033131945974426154,0.02762577656930596,0.017871043624403338,0.05761554556369506,-0.02950399297421288
1.5027176518872105,0.033797027787609374,0.027173223548699922,0.01799769758677829,0.05608028788797346,-0.02830055798483979
1.502789169042137,0.033871437590867574,0.025914566440956008,0.017486670760106647,0.05317112678750272,-0.026538216630898125
1.5028606861970637,0.03289397904446062,0.022670778746535742,0.015274482970942199,0.04890110902100723,-0.02495997948490819
1.5029322033519903,0.030638444170610023,0.018837575856656567,0.012011118949132128,0.044743111481261505,-0.02418804786640293
1.5030037205069169,0.02725242384486997,0.016650626855965987,0.009441040885373031,0.04131606007483322,-0.023469732988006253
1.5030752376618435,0.023245599290448483,0.017808969544144203,0.008606550278537486,0.03955470335748381,-0.022765666550275846
1.50314675481677,0.019358366958489085,0.02090124642172681,0.008953985446160287,0.038626076478083485,-0.021852209037313153
1.5032182719716967,0.01638051368297583,0.024982927076494833,0.010426555451109277,0.03806726029757817,-0.020432240560998554
1.5032897891266233,0.01497089818834955,0.028970686050356506,0.012350463029946239,0.03800176427221366,-0.019059352596126393
1.5033613062815498,0.015499460648454992,0.03205750379847664,0.013981854206916533,0.03663170534523668,-0.016940814426794047
1.5034328234364764,0.01793079665045714,0.03218458994410268,0.01416864675154985,0.031729550386666534,-0.013254189003978071
1.503504340591403,0.021792554285279486,0.03114689954029986,0.013806564009865633,0.02463832057896559,-0.008358539627770554
1.5035758577463296,0.026283745634476982,0.03335683139715933,0.015751292513310384,0.02058519271183105,-0.0040785496017610445
1.5036473749012562,0.03053094650102892,0.03843169113585957,0.019003856556851165,0.023200935507947704,-0.003734460640514793
1.5037188920561828,0.03389868374654469,0.04556083497291035,0.02304438568669538,0.03243985378288772,-0.007652004397619313
1.5037904092111094,0.03619247413189749,0.05473461782350781,0.02836367437687625,0.046982351646629075,-0.014540621542685102
1.503861926366036,0.03764566473947448,0.06198224523992309,0.03246316988130233,0.0632112398071436,-0.02350704601142823
1.5039334435209626,0.038716510453014726,0.06578895078212178,0.03408384953452373,0.07814726002062655,-0.03326195998927852
1.5040049606758892,0.0398171228344044,0.06788844085922081,0.03557140334761458,0.08981469619026494,-0.04074325376912679
1.5040764778308158,0.041095739566223526,0.07152469820883105,0.037525773851031737,0.09845222183893676,-0.045701206865632796
1.5041479949857424,0.04234364882306056,0.07488338536875822,0.038887791087543686,0.10387156019293925,-0.048722198702026265
1.504219512140669,0.043051695709888996,0.07627251357775383,0.03921573232033744,0.10618950931150987,-0.050191446916909896
1.5042910292955955,0.04260283060723393,0.07181816773733123,0.036347749549566495,0.10449079688742524,-0.05093117256882742
1.5043625464505221,0.04053910287302065,0.06118486727503458,0.030363706364527798,0.097630933484759,-0.05004856253405711
1.5044340636054487,0.03679439695722014,0.04781991817798654,0.02344001313236871,0.08642925268885264,-0.04664681809361267
1.5045055807603753,0.03178229372791513,0.036070626463855664,0.01698689592080203,0.07631415672482868,-0.04372097653984786
1.504577097915302,0.026296542555493532,0.027869731242872495,0.012446934359831944,0.06681161112200802,-0.03992985595594812
1.5046486150702285,0.021278189004975218,0.024678067580884814,0.011187449324425095,0.05930671251442558,-0.03533836229243896
1.504720132225155,0.017555651134353225,0.02355909879309101,0.011283372248322305,0.05392042162667307,-0.03135678328961474
1.5047916493800817,0.01564621916050789,0.022190071201921752,0.010644076718018416,0.04986873666502977,-0.028852947006930557
1.5048631665350083,0.015656872938766518,0.019638861506281538,0.009217644422453899,0.0432760219359249,-0.025046784296635278
1.5049346836899349,0.017286051262519187,0.017647387837554762,0.008230188330603324,0.03491206159732282,-0.01965479263259685
1.5050062008448615,0.019918755698584013,0.01702312643775507,0.007905738300784866,0.026964240650523476,-0.014110871146360261
1.505077717999788,0.022804926807040774,0.018774435069128712,0.009361654152707073,0.020590393196513686,-0.008484272230675096
1.5051492351547147,0.025289013466251117,0.023457052625593965,0.011726326065843064,0.0223449227708404,-0.008128033871517925
1.5052207523096413,0.027015644551186973,0.028557515958093856,0.014241445734319206,0.028915203798110904,-0.011161837822443614
1.5052922694645678,0.028012475009877,0.03146221766987778,0.015961322224474977,0.035864115533904666,-0.015019648665796165
1.5053637866194944,0.028596359216805502,0.02889466682390295,0.014919408532213189,0.04088811662270613,-0.019384893001106275
1.505435303774421,0.02915112616185344,0.02317057851877375,0.013309044659559194,0.0430697781319754,-0.02207864972243148
1.5055068209293476,0.029900153036102176,0.019106656865369265,0.012321918805932341,0.04396337699838083,-0.023407658075127288
1.5055783380842742,0.030782681811496897,0.01854755275138974,0.01250866989698158,0.044012432873161464,-0.023314628836950308
1.5056498552392008,0.03146961942071043,0.020758857348818,0.013496870470295333,0.045002836607316014,-0.023353103829810987
1.5057213723941274,0.03149161794629547,0.02184716604318093,0.013134126432083434,0.04580495990652044,-0.024185608686711265
1.505792889549054,0.030427310908792447,0.021265688045716272,0.011855838401314541,0.04478768594667045,-0.02432739054700509
1.5058644067039806,0.02809465201809536,0.019047851572865124,0.009674998552531539,0.04116633957790722,-0.023199881065048854
1.5059359238589072,0.024683284499830333,0.015343190903460157,0.006168765257997816,0.037365413545020675,-0.02285521970028175
1.5060074410138338,0.020766913938386953,0.012999156331703298,0.003987129865862614,0.033301223910564746,-0.021407719774751567
1.5060789581687604,0.017165658691511196,0.014029591542150026,0.004506773893992003,0.029754925663715185,-0.018476517020591204
1.506150475323687,0.014695536880755058,0.016403215210893017,0.005603202541494299,0.02795170006142917,-0.01641309945948518
1.5062219924786135,0.013907828977730352,0.01839124038096178,0.006474304461408025,0.02647281644366074,-0.014740215076225352
1.5062935096335401,0.014929925183180436,0.018574773975377074,0.007024475314287043,0.022226583860351094,-0.011280901375026959
1.5063650267884667,0.01746107614733839,0.017152052729205378,0.006681651925523114,0.016364454830936265,-0.007265122116248028
1.5064365439433933,0.020900617081537138,0.018236423817220158,0.008103902228742074,0.01130491065224433,-0.0026163418257214555
1.50650806109832,0.024545654709518663,0.022031055881458556,0.01119024144466396,0.008040086387220525,0.0018768847305956748
1.5065795782532465,0.027795889555703463,0.029111656267844167,0.015188716512202768,0.012407667966255854,0.0014643069469389989
1.506651095408173,0.030315638754338018,0.03859746365357031,0.02020329875354711,0.021616285516110965,-0.0017583971824732317
1.5067226125630997,0.03210575674634778,0.04834283666336424,0.02516307524326057,0.034255462573732125,-0.00750857362847511
1.5067941297180263,0.03344435853615213,0.0542786992734856,0.02809340030703321,0.04659520194325458,-0.014445911914036314
1.5068656468729529,0.03469846610783441,0.05531798450624037,0.028836225363534616,0.05500830827598882,-0.020046178588866117
1.5069371640278795,0.03608805388876267,0.054735694376158606,0.029158238083419115,0.06014788964439687,-0.023560620724517287
1.507008681182806,0.03753193323000867,0.05476418801890792,0.029645090979329304,0.06376917940991358,-0.02585856044062634
1.5070801983377327,0.038657419159163646,0.05491308595055303,0.03000532215028713,0.06379371053050158,-0.025627742750861344
1.5071517154926592,0.038950459296790155,0.053692002576863324,0.029635790998015537,0.061752972013074954,-0.024398349238399012
1.5072232326475858,0.03795818995272562,0.04816976173533988,0.026170643808596194,0.05762404217835404,-0.023787045761197112
1.5072947498025124,0.035465807062779846,0.041081135276763305,0.02167628316777021,0.05129042338816028,-0.02228328544213502
1.507366266957439,0.03160750390290827,0.035184572211900716,0.01779655130545853,0.04528709079169003,-0.020596614760536824
1.5074377841123656,0.02689036393457737,0.030145905185602635,0.014369878001425985,0.04056525990385539,-0.019529129368539264
1.5075093012672922,0.022110982309926926,0.025799270685292804,0.012274203971852665,0.036157426946440904,-0.01777307169421107
1.5075808184222188,0.018158898886019043,0.023027214159042207,0.010838451012952628,0.0342041043282188,-0.017344384547315708
1.5076523355771454,0.015750547010193554,0.021298605772421802,0.009985828883372298,0.03278462588026236,-0.0169015149306359
1.507723852732072,0.015198153002695225,0.01797302565929446,0.008495434228764531,0.028550023943247446,-0.0148552681876808
1.5077953698869986,0.01632710132796861,0.013474469448714915,0.006411917338543193,0.02102126955709407,-0.010828491059250255
1.5078668870419252,0.01858159605132472,0.010051165289078696,0.00521914285473996,0.013009915475670585,-0.0058395908963690445
1.5079384041968518,0.02125563485920751,0.007959781022443616,0.005152249488431391,0.005258845449367494,-0.0002650152813210744
1.5080099213517784,0.023737553869918368,0.0077323454580912054,0.0057615299185219465,0.0019279251586830344,0.0025698140380715356
1.508081438506705,0.025680396681245936,0.009843746601162346,0.007453924502377228,0.002871672906396205,0.0030510550412505243
1.5081529556616315,0.027059576075294776,0.012038375776041112,0.008842952470356694,0.007035809591971028,0.0009883408881192085
1.5082244728165581,0.028112039179855254,0.01170225519260525,0.008942296206187028,0.011077239056009098,-0.0018737889058552122
1.5082959899714847,0.029172386947160022,0.009909190096830445,0.008780907310022895,0.014253675822100438,-0.004288441551131932
1.5083675071264113,0.03045818310099522,0.010097486964951583,0.010026451111954632,0.01761837442242472,-0.005870719519770998
1.508439024281338,0.03190386747651281,0.014189598632563211,0.012747040105629182,0.0221680811192954,-0.007296572137029905
1.5085105414362645,0.03314377564440417,0.020161537308239726,0.01600259242207933,0.02682128660935925,-0.008429082007792505
1.508582058591191,0.03366149064758627,0.02511590456748384,0.0186299276568245,0.030293533757389156,-0.009137735737766474
1.5086535757461177,0.03301661123576188,0.024894622575731634,0.017302793300784304,0.030770443242458104,-0.010398463472567152
1.5087250929010443,0.031031763736761156,0.020755320212336618,0.013978643770450466,0.027877518921894644,-0.010590001814795974
1.5087966100559709,0.02787943173947238,0.015307872018539226,0.009773118861112214,0.022278292160388666,-0.009425190409665543
1.5088681272108975,0.024071143965329337,0.01024558416486581,0.005405399448016361,0.017705390172266397,-0.009116634871549022
1.508939644365824,0.020368522042175177,0.006274770804193281,0.002619426200917792,0.013375444766896864,-0.007895037474447952
1.5090111615207507,0.017622660517009992,0.004405306713489668,0.001280243020763253,0.011223981342827849,-0.007257064732912966
1.5090826786756772,0.016549556574789192,0.0038170787073110433,0.001094148915450876,0.010912150322857018,-0.00715908876027148
1.5091541958306038,0.01749078347259404,0.0037753826105800404,0.001728275756159572,0.009139136511070093,-0.005436698536305739
1.5092257129855304,0.02026609634215111,0.0041673754898263965,0.002622344403247119,0.005371873645677328,-0.0020892536422785204
1.509297230140457,0.024225306810832306,0.007382836223093577,0.005090188490138515,0.0018448036069359602,0.0021677474475272594
1.5093687472953836,0.028505184243561566,0.01523237573603292,0.010396256019729185,0.0012815275758133336,0.006230426674546473
1.5094402644503102,0.032363241212534366,0.026316564665107667,0.017181792517199104,0.005657691057500533,0.007731526931855452
1.5095117816052368,0.035420479974014,0.038706169334048815,0.023785576506019895,0.014245781541916042,0.006055552204027342
1.5095832987601634,0.03772295943106026,0.04805047383575244,0.028541189697550762,0.023012753624728634,0.002977275724291943
1.50965481591509,0.039632532833370364,0.05107218298133365,0.030196375009199177,0.029788655123239673,-0.0007956960792261485
1.5097263330700166,0.041605230836871475,0.04671787952615801,0.028415936049993602,0.03243383108897388,-0.003943068993712397
1.5097978502249432,0.04392716574129624,0.03968662609657867,0.026087173799228647,0.029507716199094054,-0.003426280998185555
1.5098693673798698,0.04649881119729661,0.03553286448853329,0.025125670272120693,0.024733893636565012,-0.0006263230089526054
1.5099408845347964,0.048782229516577,0.03558306805997647,0.025898717163670308,0.022149079058858226,0.0017814146853503865
1.510012401689723,0.04998265464348263,0.03835706774594532,0.027970420605425636,0.021060667841119735,0.003999269327904004
1.5100839188446495,0.04939582665258717,0.03868972197859414,0.02744804663090382,0.019776859745748606,0.004569993980052354
1.5101554359995761,0.046726633743720845,0.03604762699264079,0.024915387052692306,0.017499511806301982,0.004475166490618333
1.5102269531545027,0.04221494386441091,0.033013286432957215,0.022036546886626967,0.014368585431651908,0.004761022978488614
1.5102984703094293,0.0365554045951188,0.03125508177597511,0.019143160662124768,0.014427321271048156,0.002724469211390062
1.510369987464356,0.030705701566729478,0.03121829961656779,0.01712115674686206,0.016303910998006824,-2.9652694537536793e-05
1.5104415046192825,0.025671938650474672,0.0324590789509962,0.016152578444133103,0.019618348624680815,-0.003100797393584245
1.510513021774209,0.02230380117340663,0.03421117321031082,0.01595046449902194,0.023870982102228426,-0.006324688946724996
1.5105845389291357,0.02110478427342222,0.03271805723241328,0.014310671393420193,0.024726431150085604,-0.008075131707103646
1.5106560560840623,0.022087028251984653,0.02740560148356922,0.011927341615445858,0.019796728925126007,-0.006141222720041125
1.5107275732389889,0.02474352062355467,0.01888009825405017,0.008315005741078718,0.011238993353533771,-0.0024231421342454243
1.5107990903939155,0.028206425428266402,0.012322652676976353,0.006455089330600415,0.0029983156371456037,0.0022713351805347566
1.510870607548842,0.03156791810921427,0.009295476324850562,0.006924877381908108,-0.0016635012119101736,0.005975028136596812
1.5109421247037687,0.034217944840168574,0.009750557640768367,0.0085255112555674,-3.9986510544165964e-05,0.005900199217700682
1.5110136418586952,0.036025983655989566,0.013469161923819587,0.01161661354179527,0.006029167053107818,0.00362865301473552
1.5110851590136218,0.03729532439305516,0.015599226473588142,0.013294021431409462,0.013647021493276481,-0.0007397000850429804
1.5111566761685484,0.03854470610167679,0.014700157843854736,0.013163190298163863,0.020978646055928005,-0.006147103953595915
1.511228193323475,0.04022460916569971,0.013646894442930798,0.013651672900344249,0.024659670011073127,-0.008480744488430416
1.5112997104784016,0.04246467581659284,0.014605065093078443,0.01442102957265151,0.02641372445359307,-0.009223175959769925
1.5113712276333282,0.04493429586497486,0.01949469969639222,0.016921655013448497,0.028113720862875446,-0.008733434058417382
1.5114427447882548,0.04689231770787431,0.02518656571583576,0.019784155718843215,0.028727638597586057,-0.007205990004724059
1.5115142619431814,0.047454803887083834,0.027479045358050208,0.02007376929597759,0.028017668064390103,-0.006491257995814548
