freq,gls,usurper,pdc_unbiased,shape_periodogram,shift_periodogram
1.5,0.031605246424144244,0.03241277011868138,0.022003088454338578,0.04892670443224729,-0.020798750671028706
1.5000715171549266,0.028595336453250155,0.025530481842963727,0.01679692217781675,0.04026617396854865,-0.01800768207145008
1.5001430343098532,0.024797888546036324,0.01970328059126215,0.011419584810450916,0.03386518275507255,-0.016989453156666372
1.5002145514647798,0.020789812632417533,0.01800220710273495,0.008796510756732951,0.029404155941786272,-0.01551308734218091
1.5002860686197064,0.017345459787468324,0.020819150153024508,0.009479677332466734,0.02846042704660186,-0.014356390173160299
1.500357585774633,0.015271945925960987,0.02562966012512382,0.011714688134418397,0.029272282639597125,-0.013426054720325896
1.5004291029295596,0.015165201318802408,0.031164303634197976,0.01415548030345099,0.03353298655590944,-0.014879782879509284
1.5005006200844861,0.01716595655706576,0.03628560434143062,0.016954003693511403,0.037013951541603175,-0.01551883627538906
1.5005721372394127,0.02086274426290797,0.04011069552969094,0.019187221778694714,0.04063617284613197,-0.016647282488842993
1.5006436543943393,0.02544081002802935,0.04340675732493612,0.02137618975240262,0.04486249972678388,-0.018248800913685737
1.500715171549266,0.03000884122307953,0.04700162356819755,0.02421994995090846,0.048666250352135385,-0.019094045511425153
1.5007866887041925,0.03391266896856934,0.051277661972529545,0.02666061786266369,0.05645287419357342,-0.02313499733434041
1.500858205859119,0.0368882624749449,0.05614302464708559,0.029368029530911475,0.06620483974434466,-0.028439634907130404
1.5009297230140457,0.0390355018056212,0.06136471894140563,0.03287087235373193,0.07794560177253344,-0.034668782993159696
1.5010012401689723,0.04067274274449097,0.06307020883605635,0.0349635290275476,0.086799665699136,-0.03974940931480655
1.5010727573238989,0.04213722341942038,0.06299176241575774,0.036798409825528795,0.09243292657187263,-0.042641261483257635
1.5011442744788255,0.043587855733941964,0.06267659651658926,0.03793328428010061,0.09696860202076664,-0.0452063548984141
1.501215791633752,0.044880915226329254,0.0620706659012356,0.03824814004694497,0.09978395737585524,-0.04706635908163469
1.5012873087886787,0.045592465454410994,0.06294632061579057,0.03896037083855539,0.10338137350259623,-0.04923223316224716
1.5013588259436053,0.04519857422015515,0.06217101513738478,0.038338310339186395,0.10346493877285023,-0.049719761530837236
1.5014303430985318,0.04331902735671992,0.05836883013415982,0.03525172960142179,0.10099154421078778,-0.050007485322837344
1.5015018602534584,0.03989064242203222,0.0503369023860556,0.029380562295107576,0.09484947146401919,-0.04949429967642681
1.501573377408385,0.035207008956161204,0.04086435853372184,0.02275340008029923,0.08707545496496938,-0.048296556330289224
1.5016448945633116,0.029854908046904056,0.032263966409169564,0.01716592382272006,0.07782378715606257,-0.045305886799522556
1.5017164117182382,0.02460404968418353,0.02512757008849169,0.01272729457488559,0.06811565715671354,-0.04120269012397852
1.5017879288731648,0.020274028275387688,0.02083828120954029,0.010756457121333964,0.059474887849838995,-0.03620645107715137
1.5018594460280914,0.01756978332877583,0.0187706373748375,0.009814843547662735,0.053446251373313665,-0.03242808018844227
1.501930963183018,0.016887968997375314,0.018392108965489647,0.009773529530205848,0.04730312314654851,-0.027954074408095695
1.5020024803379446,0.018154766828972088,0.017625696854539852,0.009545857603491862,0.04221452820497334,-0.024381529257821267
1.5020739974928712,0.020807783027131654,0.018390266926903143,0.00997328939183271,0.0390736960854415,-0.021789702780230038
1.5021455146477978,0.023992628107040868,0.021268556007555475,0.01144212206274167,0.038993715477595774,-0.020729248514942015
1.5022170318027244,0.026898257150269028,0.02619307364926631,0.014028974316248104,0.04286988347738943,-0.021803477124235568
1.502288548957651,0.029041972437567,0.03134412594873937,0.016679671046279716,0.04890190542110928,-0.024414330950051955
1.5023600661125776,0.03036170293294545,0.036753565246051716,0.019990738498687276,0.05600363802733856,-0.027360476068866272
1.5024315832675041,0.031115659296329378,0.03751611154232476,0.02077896981185265,0.061155296865240724,-0.03060094867013659
1.5025031004224307,0.031680428730509906,0.03453006541911679,0.019519808615351825,0.06293717060557166,-0.032767854742544435
1.5025746175773573,0.032340192227813126,0.03048218399776048,0.018649627815208736,0.061027874735688305,-0.03196093788716773
1.502646134732284,0.033131945974426154,0.02754564737665826,0.017871043624403338,0.05708759907960965,-0.029602163248870862
1.5027176518872105,0.033797027787609374,0.027009479651932282,0.01799769758677829,0.055349616155702296,-0.028241268744702203
1.502789169042137,0.033871437590867574,0.02565987644045587,0.017486670760106647,0.05285954176675059,-0.0267644038102702
1.5028606861970637,0.03289397904446062,0.022258885854313758,0.015274482970942199,0.04903775507532119,-0.02547273635568805
1.5029322033519903,0.030638444170610023,0.0184185941276109,0.012011118949132128,0.045103945648839724,-0.024816649872627845
1.5030037205069169,0.02725242384486997,0.016367404563274325,0.009441040885373031,0.042463543366359546,-0.02463540956557691
1.5030752376618435,0.023245599290448483,0.01790267675246976,0.008606550278537486,0.04192469316929351,-0.0248098378936247
1.50314675481677,0.019358366958489085,0.021469715826500233,0.008953985446160287,0.04200085170723852,-0.024628677530623866
1.5032182719716967,0.01638051368297583,0.025983489970022196,0.010426555451109277,0.04251763828602094,-0.02400288038045747
1.5032897891266233,0.01497089818834955,0.030255905490510014,0.012350463029946239,0.04215965369463044,-0.022428343237684074
1.5033613062815498,0.015499460648454992,0.03361633481235207,0.013981854206916533,0.041297901286411504,-0.02068418728648023
1.5034328234364764,0.01793079665045714,0.03392573260990357,0.01416864675154985,0.038411065533083474,-0.01844251387554964
1.503504340591403,0.021792554285279486,0.03323378964312098,0.013806564009865633,0.035509286467445236,-0.016564757987968835
1.5035758577463296,0.026283745634476982,0.035973878652818675,0.015751292513310384,0.03592449678794769,-0.015541850933420066
1.5036473749012562,0.03053094650102892,0.04157096708417727,0.019003856556851165,0.04154846122756369,-0.017440627772522643
1.5037188920561828,0.03389868374654469,0.049030831329033304,0.02304438568669538,0.052108764452026016,-0.02241998895057392
1.5037904092111094,0.03619247413189749,0.058065916369176775,0.02836367437687625,0.06451984007083886,-0.027889294610286396
1.503861926366036,0.03764566473947448,0.06478916904858881,0.03246316988130233,0.0763665178823329,-0.03378699781555076
1.5039334435209626,0.038716510453014726,0.06792024292414602,0.03408384953452373,0.08602485672975903,-0.03978100698563984
1.5040049606758892,0.0398171228344044,0.06932512490471358,0.03557140334761458,0.09308462878530244,-0.04396091679241509
1.5040764778308158,0.041095739566223526,0.07264994982130801,0.037525773851031737,0.09834473403142228,-0.04649968896779528
1.5041479949857424,0.04234364882306056,0.07606544926007405,0.038887791087543686,0.10289272251707415,-0.048921400012616925
1.504219512140669,0.043051695709888996,0.07759550238447552,0.03921573232033744,0.10605141261010816,-0.05102786770398786
1.5042910292955955,0.04260283060723393,0.07292807909115198,0.036347749549566495,0.10494075089695774,-0.05217116728283551
1.5043625464505221,0.04053910287302065,0.061799536467196665,0.030363706364527798,0.098220595517797,-0.051306777891982035
1.5044340636054487,0.03679439695722014,0.04769085608389529,0.02344001313236871,0.08697904476664682,-0.04775686232310879
1.5045055807603753,0.03178229372791513,0.03535014921486876,0.01698689592080203,0.07642062899810975,-0.04439687634134468
1.504577097915302,0.026296542555493532,0.026967541006630437,0.012446934359831944,0.06695609464025765,-0.04054271920509435
1.5046486150702285,0.021278189004975218,0.02388941070112228,0.011187449324425095,0.05948797901884317,-0.03592215046440838
1.504720132225155,0.017555651134353225,0.022958707579041226,0.011283372248322305,0.05296068706401559,-0.031070647238815655
1.5047916493800817,0.01564621916050789,0.02190285352259878,0.010644076718018416,0.04738909702936929,-0.027423349744057364
1.5048631665350083,0.015656872938766518,0.019707826476149423,0.009217644422453899,0.04090400455055062,-0.023645512691138133
1.5049346836899349,0.017286051262519187,0.018180046306277346,0.008230188330603324,0.03575370442017836,-0.020547506427125606
1.5050062008448615,0.019918755698584013,0.01824614670074529,0.007905738300784866,0.03211401519556876,-0.01810418063706108
1.505077717999788,0.022804926807040774,0.020717895820868134,0.009361654152707073,0.030109177032081304,-0.01564366595323175
1.5051492351547147,0.025289013466251117,0.02605941634397813,0.011726326065843064,0.034808364801733715,-0.01747073496641959
1.5052207523096413,0.027015644551186973,0.03147027453224898,0.014241445734319206,0.0410868405074341,-0.02035248754218485
1.5052922694645678,0.028012475009877,0.03417092279164969,0.015961322224474977,0.045027011135548516,-0.022065253185716466
1.5053637866194944,0.028596359216805502,0.030768369243862153,0.014919408532213189,0.04493034969464271,-0.022705377609620443
1.505435303774421,0.02915112616185344,0.023789807075023692,0.013309044659559194,0.041679668366147636,-0.02142283119510589
1.5055068209293476,0.029900153036102176,0.01886708912847479,0.012321918805932341,0.03778523939769142,-0.019244125533686644
1.5055783380842742,0.030782681811496897,0.018026870611271974,0.01250866989698158,0.03584769214850452,-0.01769799637692135
1.5056498552392008,0.03146961942071043,0.020415593264285842,0.013496870470295333,0.03769284012944145,-0.018374895352687527
1.5057213723941274,0.03149161794629547,0.02173097987457131,0.013134126432083434,0.040432883372027585,-0.02062898992492953
1.505792889549054,0.030427310908792447,0.021343899600875533,0.011855838401314541,0.04170662377249844,-0.02243392748679591
1.5058644067039806,0.02809465201809536,0.019200435333078022,0.009674998552531539,0.04098025178170609,-0.02338943257951109
1.5059359238589072,0.024683284499830333,0.015418058632496748,0.006168765257997816,0.039509611487384716,-0.02470346547678214
1.5060074410138338,0.020766913938386953,0.013032367191265647,0.003987129865862614,0.03771775257041266,-0.02487886237388553
1.5060789581687604,0.017165658691511196,0.014133529215122386,0.004506773893992003,0.03572743476171678,-0.02306731093297425
1.506150475323687,0.014695536880755058,0.01672266844646725,0.005603202541494299,0.03420892546487876,-0.02120798058888358
1.5062219924786135,0.013907828977730352,0.018980007043821356,0.006474304461408025,0.03174662384162938,-0.018811442220402794
1.5062935096335401,0.014929925183180436,0.019357459025823306,0.007024475314287043,0.027015691123642403,-0.014973545042691222
1.5063650267884667,0.01746107614733839,0.018177537011871525,0.006681651925523114,0.02277287297596255,-0.01210249343125022
1.5064365439433933,0.020900617081537138,0.019722204132723603,0.008103902228742074,0.020496631623340172,-0.009466960964346386
1.50650806109832,0.024545654709518663,0.0240574397206488,0.01119024144466396,0.020288698075827036,-0.007209672677036953
1.5065795782532465,0.027795889555703463,0.0316416071321302,0.015188716512202768,0.02687278000682642,-0.00929975117473616
1.506651095408173,0.030315638754338018,0.04158726204030424,0.02020329875354711,0.03648268222527288,-0.01291209582406801
1.5067226125630997,0.03210575674634778,0.05154920928364939,0.02516307524326057,0.04773623658474307,-0.01776839083440741
1.5067941297180263,0.03344435853615213,0.057329018800501966,0.02809340030703321,0.05635495772887009,-0.02208424338918073
1.5068656468729529,0.03469846610783441,0.05780935495344304,0.028836225363534616,0.06026162413132893,-0.02444193304096708
1.5069371640278795,0.03608805388876267,0.05661799889678492,0.029158238083419115,0.060785411977450146,-0.02460611364280834
1.507008681182806,0.03753193323000867,0.05626016535650975,0.029645090979329304,0.06144278189352254,-0.024755642871737572
1.5070801983377327,0.038657419159163646,0.056467586549125356,0.03000532215028713,0.061396430367989245,-0.02447541833243031
1.5071517154926592,0.038950459296790155,0.05521463050271208,0.029635790998015537,0.0597058691976755,-0.023487801933848324
1.5072232326475858,0.03795818995272562,0.04950778966411532,0.026170643808596194,0.05612275754633886,-0.02322765489104878
1.5072947498025124,0.035465807062779846,0.04225453246052778,0.02167628316777021,0.05083777544429252,-0.022422522121225662
1.507366266957439,0.03160750390290827,0.03623251343956871,0.01779655130545853,0.04618035887384777,-0.02165784760462988
1.5074377841123656,0.02689036393457737,0.03114132557971498,0.014369878001425985,0.04306882411459531,-0.02171661605006087
1.5075093012672922,0.022110982309926926,0.026631545179686585,0.012274203971852665,0.039407551318193144,-0.020464705765828907
1.5075808184222188,0.018158898886019043,0.023769335561900487,0.010838451012952628,0.0374592776166863,-0.02001737769068404
1.5076523355771454,0.015750547010193554,0.021972857557918883,0.009985828883372298,0.03465037346511871,-0.018542291942556074
1.507723852732072,0.015198153002695225,0.018641500367587844,0.008495434228764531,0.02901978841163532,-0.01543710464466131
1.5077953698869986,0.01632710132796861,0.014149760129353999,0.006411917338543193,0.02203853667762395,-0.011749119611087858
1.5078668870419252,0.01858159605132472,0.010839246617693392,0.00521914285473996,0.015720113599535904,-0.00793976060358036
1.5079384041968518,0.02125563485920751,0.008956014384282063,0.005152249488431391,0.009912832613630575,-0.0037372031036044346
1.5080099213517784,0.023737553869918368,0.008911913546446675,0.0057615299185219465,0.007402356888850045,-0.0014853560365522022
1.508081438506705,0.025680396681245936,0.011089417041904623,0.007453924502377228,0.008254876791015992,-0.0009547517667925987
1.5081529556616315,0.027059576075294776,0.013151411106612635,0.008842952470356694,0.010811486900033064,-0.0018774994411739612
1.5082244728165581,0.028112039179855254,0.012419650766120664,0.008942296206187028,0.011850339242955274,-0.0025696570915449534
1.5082959899714847,0.029172386947160022,0.010077478592670688,0.008780907310022895,0.012455809817906878,-0.0031226369118760562
1.5083675071264113,0.03045818310099522,0.00993415329152362,0.010026451111954632,0.01352170707827725,-0.003052826960636287
1.508439024281338,0.03190386747651281,0.014116484792613368,0.012747040105629182,0.016616412906873775,-0.003460984430587789
1.5085105414362645,0.03314377564440417,0.0204634705171448,0.01600259242207933,0.021797329924859474,-0.005030404515601071
1.508582058591191,0.03366149064758627,0.025635132996641205,0.0186299276568245,0.026686254218372066,-0.006814993360536487
1.5086535757461177,0.03301661123576188,0.02540429556126026,0.017302793300784304,0.028359271842285604,-0.008945092423657484
1.5087250929010443,0.031031763736761156,0.021059283363230093,0.013978643770450466,0.026619161836498057,-0.009939758852669432
1.5087966100559709,0.02787943173947238,0.015383703921619323,0.009773118861112214,0.022720676869614546,-0.009955791084010545
1.5088681272108975,0.024071143965329337,0.010178228607698594,0.005405399448016361,0.01976604705403724,-0.010772796748656914
1.508939644365824,0.020368522042175177,0.006072985015236086,0.002619426200917792,0.016863542738053003,-0.01054911835584094
1.5090111615207507,0.017622660517009992,0.004156463674969478,0.001280243020763253,0.016182685968849933,-0.01096420587865572
1.5090826786756772,0.016549556574789192,0.0034732653111420684,0.001094148915450876,0.015853910195463596,-0.010850580177807849
1.5091541958306038,0.01749078347259404,0.0034492049387410853,0.001728275756159572,0.013902915754250945,-0.008990925880166464
1.5092257129855304,0.02026609634215111,0.003971421383257404,0.002622344403247119,0.011080318229105086,-0.006316470615906822
1.509297230140457,0.024225306810832306,0.00756181270711083,0.005090188490138515,0.010193446433479126,-0.003984791774770342
1.5093687472953836,0.028505184243561566,0.016083236003941126,0.010396256019729185,0.012310043718510995,-0.0019142436364214237
1.5094402644503102,0.032363241212534366,0.027953661535053152,0.017181792517199104,0.018269549037866765,-0.0016447790052345904
1.5095117816052368,0.035420479974014,0.041082815172975795,0.023785576506019895,0.02689567474230833,-0.0034490035518054685
1.5095832987601634,0.03772295943106026,0.0508276725061725,0.028541189697550762,0.03329226788142057,-0.004882777027442573
1.50965481591509,0.039632532833370364,0.053651962901614725,0.030196375009199177,0.036102570092371486,-0.005809182522953701
1.5097263330700166,0.041605230836871475,0.04859710759967555,0.028415936049993602,0.03520264157439756,-0.006366761452915817
1.5097978502249432,0.04392716574129624,0.04076340280982994,0.026087173799228647,0.02951599305748634,-0.003795003131196659
1.5098693673798698,0.04649881119729661,0.036276437581341935,0.025125670272120693,0.02315216578753667,0.00020503907464599038
1.5099408845347964,0.048782229516577,0.036523611754629294,0.025898717163670308,0.020680962305416446,0.00254069526900499
1.510012401689723,0.04998265464348263,0.03969893581083682,0.027970420605425636,0.020464460340567172,0.004113617197695731
1.5100839188446495,0.04939582665258717,0.040336739534427256,0.02744804663090382,0.019665406317531227,0.004341411023005028
1.5101554359995761,0.046726633743720845,0.03776123067986931,0.024915387052692306,0.017662334637610435,0.004077465767955698
1.5102269531545027,0.04221494386441091,0.03476145321044088,0.022036546886626967,0.015249530727327897,0.003877311048284512
1.5102984703094293,0.0365554045951188,0.033088471043760316,0.019143160662124768,0.015570864858479179,0.0016677420080775096
1.510369987464356,0.030705701566729478,0.033245339548660185,0.01712115674686206,0.018073881915412617,-0.001543007694139437
1.5104415046192825,0.025671938650474672,0.03466750231317927,0.016152578444133103,0.021805822012816,-0.004934279405937397
1.510513021774209,0.02230380117340663,0.036517605637122134,0.01595046449902194,0.025435709419606975,-0.00772831221389917
1.5105845389291357,0.02110478427342222,0.03501403493707316,0.014310671393420193,0.025769909933467866,-0.009091721333380699
1.5106560560840623,0.022087028251984653,0.02937084376283706,0.011927341615445858,0.02089906533987902,-0.007153450492913125
1.5107275732389889,0.02474352062355467,0.02032305701500031,0.008315005741078718,0.013460764912255,-0.0041755453850375115
1.5107990903939155,0.028206425428266402,0.013340840995041065,0.006455089330600415,0.0066967817637053825,-0.0004962729888846093
1.510870607548842,0.03156791810921427,0.009966745416840807,0.006924877381908108,0.0026873352652117873,0.002756734127961217
1.5109421247037687,0.034217944840168574,0.010183266402465642,0.0085255112555674,0.003432709200754392,0.0033031514681222712
1.5110136418586952,0.036025983655989566,0.013705242665906787,0.01161661354179527,0.007091627299835638,0.0027351842721315273
1.5110851590136218,0.03729532439305516,0.01547557241935611,0.013294021431409462,0.011150393830472536,0.0009106149310471264
1.5111566761685484,0.03854470610167679,0.013919149820701552,0.013163190298163863,0.015113273509469715,-0.002077470913055795
1.511228193323475,0.04022460916569971,0.012273044034410397,0.013651672900344249,0.01671184259921542,-0.0029136733982793083
1.5112997104784016,0.04246467581659284,0.013149195175149406,0.01442102957265151,0.017833968845450066,-0.003209731535090315
1.5113712276333282,0.04493429586497486,0.0184617346456647,0.016921655013448497,0.021331496872833016,-0.004062459101189142
1.5114427447882548,0.04689231770787431,0.024810490256507386,0.019784155718843215,0.025514511684177305,-0.005169767490069693
1.5115142619431814,0.047454803887083834,0.02766902696788687,0.02007376929597759,0.027223994510254226,-0.006223090514563214
1.511585779098108,0.04599085839647899,0.02454256475768836,0.017243949592298295,0.02487458012122604,-0.006435057508550225
