freq,gls,usurper,pdc_unbiased,shape_periodogram,shift_periodogram
1.5,0.031605246424144244,0.03432406859214065,0.022003088454338578,0.04658344545452327,-0.021893740213450506
1.5000715171549266,0.028595336453250155,0.027602703427980352,0.01679692217781675,0.040142206870741624,-0.02024287734707935
1.5001430343098532,0.024797888546036324,0.021721074792689123,0.011419584810450916,0.0347343042877097,-0.019498837265787706
1.5002145514647798,0.020789812632417533,0.0194810147086939,0.008796510756732951,0.029404344578072696,-0.017059886779097134
1.5002860686197064,0.017345459787468324,0.021530200056834176,0.009479677332466734,0.02603348906811847,-0.014025182672197314
1.500357585774633,0.015271945925960987,0.025452745043838623,0.011714688134418397,0.024182001867399973,-0.01117301749862573
1.5004291029295596,0.015165201318802408,0.03031383973054461,0.01415548030345099,0.026833847846893074,-0.011661748036523149
1.5005006200844861,0.01716595655706576,0.03456598786761533,0.016954003693511403,0.027040436917321303,-0.010036717794359835
1.5005721372394127,0.02086274426290797,0.03741116124076775,0.019187221778694714,0.024819004517618006,-0.006899736531887856
1.5006436543943393,0.02544081002802935,0.03999916065788887,0.02137618975240262,0.022924790370785396,-0.004043235608853293
1.500715171549266,0.03000884122307953,0.04319326675273579,0.02421994995090846,0.022445709964987626,-0.001859871565848011
1.5007866887041925,0.03391266896856934,0.04745194238032855,0.02666061786266369,0.02745832421898982,-0.0041671436458326485
1.500858205859119,0.0368882624749449,0.052801211766645706,0.029368029530911475,0.03702156433694223,-0.00981454859889363
1.5009297230140457,0.0390355018056212,0.05926121604048047,0.03287087235373193,0.0516133280371964,-0.018839929312692984
1.5010012401689723,0.04067274274449097,0.0628621471243856,0.0349635290275476,0.0670020892546628,-0.02939519530757561
1.5010727573238989,0.04213722341942038,0.06476295962015023,0.036798409825528795,0.07938326673848928,-0.037804310707724144
1.5011442744788255,0.043587855733941964,0.0660501778747587,0.03793328428010061,0.08981440604617591,-0.04516269666596191
1.501215791633752,0.044880915226329254,0.0663386245111651,0.03824814004694497,0.09616071030113373,-0.04988515875841573
1.5012873087886787,0.045592465454410994,0.06739676253073379,0.03896037083855539,0.09912201208138427,-0.05172889639012035
1.5013588259436053,0.04519857422015515,0.06679880161577557,0.038338310339186395,0.10014319251283094,-0.05291957493079441
1.5014303430985318,0.04331902735671992,0.0632403969841048,0.03525172960142179,0.09886696540658509,-0.05390080478767474
1.5015018602534584,0.03989064242203222,0.05555356915877467,0.029380562295107576,0.09435865413744658,-0.054150094592574895
1.501573377408385,0.035207008956161204,0.04650723381747004,0.02275340008029923,0.08846742763451794,-0.053808254356798015
1.5016448945633116,0.029854908046904056,0.03809939764348324,0.01716592382272006,0.08070887431185614,-0.05135846970246993
1.5017164117182382,0.02460404968418353,0.030902327447215355,0.01272729457488559,0.07231432212222243,-0.04768935641278539
1.5017879288731648,0.020274028275387688,0.0263666481858643,0.010756457121333964,0.06392139783296627,-0.04245534675981986
1.5018594460280914,0.01756978332877583,0.02387605395783475,0.009814843547662735,0.05774558201235933,-0.03828328274289397
1.501930963183018,0.016887968997375314,0.022288350304265195,0.009773529530205848,0.048120916236289876,-0.030877482163149117
1.5020024803379446,0.018154766828972088,0.019952463068553392,0.009545857603491862,0.03638748975065351,-0.021968293284361794
1.5020739974928712,0.020807783027131654,0.018900350222588656,0.00997328939183271,0.025067561980466422,-0.01296579439230005
1.5021455146477978,0.023992628107040868,0.020243545973740392,0.01144212206274167,0.01837638736439968,-0.006871016937688876
1.5022170318027244,0.026898257150269028,0.024450269362768916,0.014028974316248104,0.019305544003472886,-0.00593821984952349
1.502288548957651,0.029041972437567,0.029705636682402153,0.016679671046279716,0.026102365429893106,-0.00948831652349718
1.5023600661125776,0.03036170293294545,0.0360853069773924,0.019990738498687276,0.03841307508929267,-0.016871901909716932
1.5024315832675041,0.031115659296329378,0.03868240687901134,0.02077896981185265,0.05316646429929945,-0.027757660902950097
1.5025031004224307,0.031680428730509906,0.03769430773846216,0.019519808615351825,0.06428371477458057,-0.03715082233932306
1.5025746175773573,0.032340192227813126,0.035325945322513846,0.018649627815208736,0.07028582570515271,-0.04234680472307018
1.502646134732284,0.033131945974426154,0.03297570233886833,0.017871043624403338,0.0700944649110681,-0.04269507049078039
1.5027176518872105,0.033797027787609374,0.03212515095828869,0.01799769758677829,0.06687738370876942,-0.04012646625991923
1.502789169042137,0.033871437590867574,0.03044490674774634,0.017486670760106647,0.06258389538247718,-0.0371331008698054
1.5028606861970637,0.03289397904446062,0.026955030087735303,0.015274482970942199,0.05721719315918598,-0.034396277984966424
1.5029322033519903,0.030638444170610023,0.023067171603736936,0.012011118949132128,0.052808208214682614,-0.033070652969435524
1.5030037205069169,0.02725242384486997,0.02085692126906771,0.009441040885373031,0.04956666611438596,-0.032205404796672756
1.5030752376618435,0.023245599290448483,0.02200219649904025,0.008606550278537486,0.04860617819003811,-0.0319955916295015
1.50314675481677,0.019358366958489085,0.0250458261839576,0.008953985446160287,0.04872480084548341,-0.03186581130281409
1.5032182719716967,0.01638051368297583,0.029073788485958818,0.010426555451109277,0.049576872471923314,-0.03158536181340255
1.5032897891266233,0.01497089818834955,0.032956676675322025,0.012350463029946239,0.050175729464366214,-0.030821733049994717
1.5033613062815498,0.015499460648454992,0.03550006067484419,0.013981854206916533,0.047193679082306,-0.027479775297463805
1.5034328234364764,0.01793079665045714,0.034726551201971684,0.01416864675154985,0.03922569293810921,-0.021211404045150165
1.503504340591403,0.021792554285279486,0.0324065078269915,0.013806564009865633,0.027281842971084564,-0.012229642123336295
1.5035758577463296,0.026283745634476982,0.033412150813786984,0.015751292513310384,0.018031366820569595,-0.0038579521623629516
1.5036473749012562,0.03053094650102892,0.03776942726341966,0.019003856556851165,0.016801705092402495,-0.0008361933026556266
1.5037188920561828,0.03389868374654469,0.04493536461017039,0.02304438568669538,0.0245339506216258,-0.004219714787385091
1.5037904092111094,0.03619247413189749,0.05502493758782366,0.02836367437687625,0.04174821610608417,-0.01410265104235697
1.503861926366036,0.03764566473947448,0.06384920006911693,0.03246316988130233,0.06379756859199272,-0.02851480207177194
1.5039334435209626,0.038716510453014726,0.06941960531103561,0.03408384953452373,0.08490045857443534,-0.04381318384103471
1.5040049606758892,0.0398171228344044,0.07297417792742504,0.03557140334761458,0.10138164818726016,-0.05564948565930984
1.5040764778308158,0.041095739566223526,0.07728173870075636,0.037525773851031737,0.11179861866892304,-0.06249886781922379
1.5041479949857424,0.04234364882306056,0.08049903340194597,0.038887791087543686,0.11521421640498736,-0.06428686940823616
1.504219512140669,0.043051695709888996,0.08128021836535315,0.03921573232033744,0.11328115010726526,-0.06257265001150374
1.5042910292955955,0.04260283060723393,0.07626659081001791,0.036347749549566495,0.10731485576521832,-0.05976421660381039
1.5043625464505221,0.04053910287302065,0.06541842351965396,0.030363706364527798,0.09762437738792973,-0.056057022469541924
1.5044340636054487,0.03679439695722014,0.05209608743708883,0.02344001313236871,0.08599634329847983,-0.051455395673015825
1.5045055807603753,0.03178229372791513,0.0405195838094483,0.01698689592080203,0.07682433437096858,-0.048465426146541195
1.504577097915302,0.026296542555493532,0.03247537630206453,0.012446934359831944,0.06900399025049629,-0.04530777263058222
1.5046486150702285,0.021278189004975218,0.02959658748120389,0.011187449324425095,0.06455455256113891,-0.042670192073348566
1.504720132225155,0.017555651134353225,0.028771784336414773,0.011283372248322305,0.061829478330802976,-0.040503056967127755
1.5047916493800817,0.01564621916050789,0.02745638491706053,0.010644076718018416,0.05876991203380261,-0.03854634653261755
1.5048631665350083,0.015656872938766518,0.024432475483867594,0.009217644422453899,0.05096443474203998,-0.03342686716245163
1.5049346836899349,0.017286051262519187,0.0213335289192448,0.008230188330603324,0.038838094026139636,-0.024697236141857308
1.5050062008448615,0.019918755698584013,0.01952507262869682,0.007905738300784866,0.02679853551917814,-0.015618204803287308
1.505077717999788,0.022804926807040774,0.02011251188936182,0.009361654152707073,0.016621376437878685,-0.006844273962469587
1.5051492351547147,0.025289013466251117,0.02404658447750931,0.011726326065843064,0.015268828093169907,-0.004294463589581387
1.5052207523096413,0.027015644551186973,0.02916057883367923,0.014241445734319206,0.02247815573854232,-0.008248589346876454
1.5052922694645678,0.028012475009877,0.03280466523042003,0.015961322224474977,0.033585677807478585,-0.015717475359682213
1.5053637866194944,0.028596359216805502,0.0316569950065432,0.014919408532213189,0.045812502538305475,-0.025815975286036366
1.505435303774421,0.02915112616185344,0.02751573815385468,0.013309044659559194,0.05593475684334728,-0.03465824917037563
1.5055068209293476,0.029900153036102176,0.024436274252580426,0.012321918805932341,0.0620499844238915,-0.0400118461238595
1.5055783380842742,0.030782681811496897,0.024052387716074538,0.01250866989698158,0.06339068965016573,-0.040929005195457634
1.5056498552392008,0.03146961942071043,0.025844161369250884,0.013496870470295333,0.062366398391220663,-0.03950777641565699
1.5057213723941274,0.03149161794629547,0.026368911932486055,0.013134126432083434,0.05997395690239257,-0.03789016177766674
1.505792889549054,0.030427310908792447,0.025271043414388107,0.011855838401314541,0.0548626248431951,-0.03475617821573929
1.5058644067039806,0.02809465201809536,0.0225110133453426,0.009674998552531539,0.04758638838519739,-0.030527647578492315
1.5059359238589072,0.024683284499830333,0.018417559476426523,0.006168765257997816,0.041464275829123175,-0.028036858825830582
1.5060074410138338,0.020766913938386953,0.01584200681503343,0.003987129865862614,0.03654648222192284,-0.025632814507958655
1.5060789581687604,0.017165658691511196,0.016812404701750702,0.004506773893992003,0.03387809801159202,-0.02324360726024737
1.506150475323687,0.014695536880755058,0.019203663526241324,0.005603202541494299,0.03324104856093033,-0.022053697451864616
1.5062219924786135,0.013907828977730352,0.021154193439216516,0.006474304461408025,0.03248865263536219,-0.020918360235592365
1.5062935096335401,0.014929925183180436,0.02098724004740602,0.007024475314287043,0.027882414124143353,-0.017015583461725946
1.5063650267884667,0.01746107614733839,0.018705761724468705,0.006681651925523114,0.018812315611663865,-0.010241221769370057
1.5064365439433933,0.020900617081537138,0.01883622617649896,0.008103902228742074,0.009992814330219018,-0.0025368289139883235
1.50650806109832,0.024545654709518663,0.021753677326103033,0.01119024144466396,0.0039647584660364,0.004075905411011367
1.5065795782532465,0.027795889555703463,0.028319914495322653,0.015188716512202768,0.006402361736516471,0.004746071757893021
1.506651095408173,0.030315638754338018,0.03774876856942529,0.02020329875354711,0.015346462041699763,0.0010503265165706602
1.5067226125630997,0.03210575674634778,0.047963972025367424,0.02516307524326057,0.029781495096168023,-0.006914151240396811
1.5067941297180263,0.03344435853615213,0.05496346640875289,0.02809340030703321,0.046054766026600254,-0.01759903142507902
1.5068656468729529,0.03469846610783441,0.05725716170684929,0.028836225363534616,0.05931878307006036,-0.027369146510308202
1.5069371640278795,0.03608805388876267,0.05763596460952353,0.029158238083419115,0.06787157653735186,-0.03377567307303564
1.507008681182806,0.03753193323000867,0.058076542920315506,0.029645090979329304,0.07199673946594772,-0.036656016226707125
1.5070801983377327,0.038657419159163646,0.05791738917603969,0.03000532215028713,0.06940254472865919,-0.03441900838885131
1.5071517154926592,0.038950459296790155,0.0563491793754816,0.029635790998015537,0.06474152573675383,-0.03105030113632814
1.5072232326475858,0.03795818995272562,0.05056943832948898,0.026170643808596194,0.057774068844353585,-0.02787704711151405
1.5072947498025124,0.035465807062779846,0.043221156702739655,0.02167628316777021,0.04853606824517942,-0.02360967928926453
1.507366266957439,0.03160750390290827,0.037129527835481256,0.01779655130545853,0.04044329766849481,-0.019837778189740946
1.5074377841123656,0.02689036393457737,0.032006686073764175,0.014369878001425985,0.0345812376748718,-0.01750006786500554
1.5075093012672922,0.022110982309926926,0.02794191137318109,0.012274203971852665,0.031193718381359273,-0.016223231569535788
1.5075808184222188,0.018158898886019043,0.02561139214032709,0.010838451012952628,0.03099109024212903,-0.016982134653488554
1.5076523355771454,0.015750547010193554,0.024238852348028483,0.009985828883372298,0.0314596320994629,-0.017886923890730114
1.507723852732072,0.015198153002695225,0.02102393994074403,0.008495434228764531,0.028577976209105932,-0.016614517684258076
1.5077953698869986,0.01632710132796861,0.01604681682666153,0.006411917338543193,0.02041150993109946,-0.011645916694771039
1.5078668870419252,0.01858159605132472,0.01184321080719647,0.00521914285473996,0.01096356100505837,-0.0051234937911157335
1.5079384041968518,0.02125563485920751,0.00899797590836756,0.005152249488431391,0.0021216340640685086,0.0016482391432184143
1.5080099213517784,0.023737553869918368,0.008316349272490347,0.0057615299185219465,-0.0015396859201716783,0.004858098385170452
1.508081438506705,0.025680396681245936,0.010279898546178896,0.007453924502377228,0.0004737952015274083,0.004384942266716773
1.5081529556616315,0.027059576075294776,0.012800310126493736,0.008842952470356694,0.0075787815021873236,-0.00020530968249624123
1.5082244728165581,0.028112039179855254,0.013257622336891643,0.008942296206187028,0.01622967278729928,-0.006809625366379055
1.5082959899714847,0.029172386947160022,0.012358894277949284,0.008780907310022895,0.02404472032665649,-0.012937145933835275
1.5083675071264113,0.03045818310099522,0.013187905154130881,0.010026451111954632,0.03075192257838293,-0.017315231427551203
1.508439024281338,0.03190386747651281,0.01745707670893746,0.012747040105629182,0.03641084720808623,-0.019945979771897503
1.5085105414362645,0.03314377564440417,0.023160677652154675,0.01600259242207933,0.039409984817557656,-0.020184371425751642
1.508582058591191,0.03366149064758627,0.027778834669687634,0.0186299276568245,0.04082430114705239,-0.019600319751468254
1.5086535757461177,0.03301661123576188,0.027322792043219593,0.017302793300784304,0.0397514100712239,-0.01961876282007373
1.5087250929010443,0.031031763736761156,0.023018108384924275,0.013978643770450466,0.03516180372497644,-0.01819732728711432
1.5087966100559709,0.02787943173947238,0.017343991068938,0.009773118861112214,0.02788367533609096,-0.015264809662302039
1.5088681272108975,0.024071143965329337,0.012080292295667703,0.005405399448016361,0.021700177540027045,-0.013280794608559415
1.508939644365824,0.020368522042175177,0.008145551034926661,0.002619426200917792,0.017234352053399054,-0.01161354292318107
1.5090111615207507,0.017622660517009992,0.006370795635047057,0.001280243020763253,0.015257049232594607,-0.010942786203688715
1.5090826786756772,0.016549556574789192,0.005960090560242345,0.001094148915450876,0.014941396968749745,-0.010818069730645294
1.5091541958306038,0.01749078347259404,0.005877888140841774,0.001728275756159572,0.012551675132803915,-0.008572095948092363
1.5092257129855304,0.02026609634215111,0.005885950858432421,0.002622344403247119,0.007771657256362958,-0.004318310656276602
1.509297230140457,0.024225306810832306,0.008333162598433246,0.005090188490138515,0.0021185557212717422,0.0016110618455557472
1.5093687472953836,0.028505184243561566,0.015436077974481608,0.010396256019729185,-0.0004063644785484384,0.006938337848752353
1.5094402644503102,0.032363241212534366,0.02598156078774873,0.017181792517199104,0.002482395086083738,0.009037229000185101
1.5095117816052368,0.035420479974014,0.038160305559687024,0.023785576506019895,0.010851955155669363,0.006798638592040019
1.5095832987601634,0.03772295943106026,0.04778469793972303,0.028541189697550762,0.02148559175561534,0.0016374726476999968
1.50965481591509,0.039632532833370364,0.05152619407803423,0.030196375009199177,0.031571345464973484,-0.0050819311302164796
1.5097263330700166,0.041605230836871475,0.04804969070667731,0.028415936049993602,0.037804558843039716,-0.011026406473914731
1.5097978502249432,0.04392716574129624,0.04159087816187031,0.026087173799228647,0.03759586529263086,-0.012351804278962023
1.5098693673798698,0.04649881119729661,0.03745139118164171,0.025125670272120693,0.03329063027821512,-0.009644356159643874
1.5099408845347964,0.048782229516577,0.03708426161399721,0.025898717163670308,0.028412167369726873,-0.005388816668571062
1.510012401689723,0.04998265464348263,0.03932843773991697,0.027970420605425636,0.024275336561504483,-0.0008772628927792145
1.5100839188446495,0.04939582665258717,0.03941838834215612,0.02744804663090382,0.020823174982824714,0.001450486633398931
1.5101554359995761,0.046726633743720845,0.0368947097851876,0.024915387052692306,0.017496345159779776,0.0023987983015851307
1.5102269531545027,0.04221494386441091,0.034026866833276145,0.022036546886626967,0.01367503199384185,0.003507627671300092
1.5102984703094293,0.0365554045951188,0.032592017293915726,0.019143160662124768,0.013894785096291173,0.0014931336071140168
1.510369987464356,0.030705701566729478,0.03289976105749879,0.01712115674686206,0.016222428806241036,-0.0015901893971177665
1.5104415046192825,0.025671938650474672,0.03457313877448481,0.016152578444133103,0.02080584452709164,-0.005740865269511748
1.510513021774209,0.02230380117340663,0.0366575244042297,0.01595046449902194,0.025786662162901854,-0.009709851848242577
1.5105845389291357,0.02110478427342222,0.03513695796389929,0.014310671393420193,0.026275259182123634,-0.011132088299659068
1.5106560560840623,0.022087028251984653,0.029547363648930756,0.011927341615445858,0.02067480851538248,-0.008333544432615315
1.5107275732389889,0.02474352062355467,0.020498777439690558,0.008315005741078718,0.010855601669079302,-0.0030672539061109266
1.5107990903939155,0.028206425428266402,0.013445589559502522,0.006455089330600415,0.0020299630088106216,0.0025491540679930948
1.510870607548842,0.03156791810921427,0.010145551267794107,0.006924877381908108,-0.0020195362578384916,0.00596924119998749
1.5109421247037687,0.034217944840168574,0.010737143100944636,0.0085255112555674,0.001872827146674548,0.003989711470528438
1.5110136418586952,0.036025983655989566,0.015008678178846638,0.01161661354179527,0.011923104874575619,-0.0017856395465678996
1.5110851590136218,0.03729532439305516,0.01805222136349841,0.013294021431409462,0.02459398200363536,-0.010483878260273987
1.5111566761685484,0.03854470610167679,0.018311974205422923,0.013163190298163863,0.037447297652627415,-0.020480285186317112
1.511228193323475,0.04022460916569971,0.018070204574679512,0.013651672900344249,0.04530372284960047,-0.026231392044296063
1.5112997104784016,0.04246467581659284,0.01910883156035313,0.01442102957265151,0.048146629716040064,-0.027935482695054827
1.5113712276333282,0.04493429586497486,0.023405705668995937,0.016921655013448497,0.047669234883599386,-0.025972738627197293
1.5114427447882548,0.04689231770787431,0.028117802574344833,0.019784155718843215,0.0441497209126628,-0.021430554120314513
1.5115142619431814,0.047454803887083834,0.02961625453810794,0.02007376929597759,0.03939386110470215,-0.017575689141358316
1.511585779098108,0.04599085839647899,0.026016474595872262,0.017243949592298295,0.033842543553091894,-0.015097745408307233
