freq,gls,usurper,pdc_unbiased,shape_periodogram,shift_periodogram
1.5,0.031605246424144244,0.04536662977552708,0.022003088454338578,0.054853913805677626,-0.014398206876358233
1.5000715171549266,0.028595336453250155,0.035066496304480804,0.01679692217781675,0.04587977998034263,-0.013340934589739187
1.5001430343098532,0.024797888546036324,0.02599539409587325,0.011419584810450916,0.039108070590638186,-0.013717548806504826
1.5002145514647798,0.020789812632417533,0.02162771584117714,0.008796510756732951,0.03511754878520281,-0.013497229827304476
1.5002860686197064,0.017345459787468324,0.023297418857138104,0.009479677332466734,0.03561737654346109,-0.013237571045294619
1.500357585774633,0.015271945925960987,0.028234294586142853,0.011714688134418397,0.038911031463543466,-0.013362649496215831
1.5004291029295596,0.015165201318802408,0.03524319584180652,0.01415548030345099,0.04500167449005376,-0.014965496642925178
1.5005006200844861,0.01716595655706576,0.041451057449930315,0.016954003693511403,0.04901191854598829,-0.015055640990262267
1.5005721372394127,0.02086274426290797,0.04609103213081658,0.019187221778694714,0.050760090328023505,-0.014273338455685187
1.5006436543943393,0.02544081002802935,0.05024568872306062,0.02137618975240262,0.05244947226121088,-0.013491984979617457
1.500715171549266,0.03000884122307953,0.055104499056376315,0.02421994995090846,0.05441156693168668,-0.012339463427625654
1.5007866887041925,0.03391266896856934,0.06226269895883424,0.02666061786266369,0.06061088104144909,-0.014007251824311194
1.500858205859119,0.0368882624749449,0.070885388628815,0.029368029530911475,0.06903255862272577,-0.016769063562337694
1.5009297230140457,0.0390355018056212,0.08066391361424502,0.03287087235373193,0.07906985555255584,-0.019840924752019536
1.5010012401689723,0.04067274274449097,0.08654471360583559,0.0349635290275476,0.0873227870464853,-0.023011400289052304
1.5010727573238989,0.04213722341942038,0.08954006995699478,0.036798409825528795,0.0929431746335994,-0.024839912119565665
1.5011442744788255,0.043587855733941964,0.09160181945875064,0.03793328428010061,0.09731194686222562,-0.026500034867804032
1.501215791633752,0.044880915226329254,0.092634933212711,0.03824814004694497,0.10012786696942332,-0.027910303581104693
1.5012873087886787,0.045592465454410994,0.09484231996331981,0.03896037083855539,0.10367057887933274,-0.029428218122919514
1.5013588259436053,0.04519857422015515,0.0946305949869421,0.038338310339186395,0.10391419979563864,-0.03007938925147205
1.5014303430985318,0.04331902735671992,0.09084154812998224,0.03525172960142179,0.10149285459889927,-0.031158770267393127
1.5015018602534584,0.03989064242203222,0.08168382548945877,0.029380562295107576,0.09542762818165125,-0.032344606363420014
1.501573377408385,0.035207008956161204,0.0700184001576558,0.02275340008029923,0.08715154312819251,-0.03283449109392439
1.5016448945633116,0.029854908046904056,0.058264778637642435,0.01716592382272006,0.0780428846838114,-0.031988578806265766
1.5017164117182382,0.02460404968418353,0.04762220680991212,0.01272729457488559,0.06909429558439811,-0.030308328350297394
1.5017879288731648,0.020274028275387688,0.04023754881140199,0.010756457121333964,0.06153231837569906,-0.027448937753777092
1.5018594460280914,0.01756978332877583,0.03648127039848888,0.009814843547662735,0.05715062930806465,-0.0256313723645062
1.501930963183018,0.016887968997375314,0.034189342783878356,0.009773529530205848,0.052487760926707906,-0.02292004929715755
1.5020024803379446,0.018154766828972088,0.03171181552809603,0.009545857603491862,0.0480659053954478,-0.0205028056836508
1.5020739974928712,0.020807783027131654,0.031226307511707498,0.00997328939183271,0.04512819926870442,-0.018428665479691533
1.5021455146477978,0.023992628107040868,0.03407423718544184,0.01144212206274167,0.04582031274859914,-0.01764563682962024
1.5022170318027244,0.026898257150269028,0.0405413472835991,0.014028974316248104,0.05023575560179574,-0.01814653644528431
1.502288548957651,0.029041972437567,0.04789157097314351,0.016679671046279716,0.05656418399608939,-0.019722003311425554
1.5023600661125776,0.03036170293294545,0.0551444243684376,0.019990738498687276,0.06209744477765316,-0.02029493147986639
1.5024315832675041,0.031115659296329378,0.05757354940767691,0.02077896981185265,0.06629631974285197,-0.022129177072167563
1.5025031004224307,0.031680428730509906,0.05539486228762784,0.019519808615351825,0.0676080314232899,-0.023923782616824936
1.5025746175773573,0.032340192227813126,0.05076067023751919,0.018649627815208736,0.06550366663252614,-0.023389469149806594
1.502646134732284,0.033131945974426154,0.04592924644732519,0.017871043624403338,0.061518709733084306,-0.02167329352630817
1.5027176518872105,0.033797027787609374,0.04368694584228774,0.01799769758677829,0.059897392311585085,-0.020615740977147436
1.502789169042137,0.033871437590867574,0.040758120283470096,0.017486670760106647,0.05794300188925856,-0.01987938143359164
1.5028606861970637,0.03289397904446062,0.03573415689388881,0.015274482970942199,0.05432869233567551,-0.019545380960276172
1.5029322033519903,0.030638444170610023,0.030361376533638573,0.012011118949132128,0.05076478439620944,-0.020093096103660703
1.5030037205069169,0.02725242384486997,0.02652735935993549,0.009441040885373031,0.04790321563307908,-0.02049202245219038
1.5030752376618435,0.023245599290448483,0.026797874615557077,0.008606550278537486,0.04783427141989259,-0.02112750796068523
1.50314675481677,0.019358366958489085,0.029624206615391887,0.008953985446160287,0.04910230609585677,-0.021592000551455583
1.5032182719716967,0.01638051368297583,0.03405184301909504,0.010426555451109277,0.05138642379047188,-0.021742845024496252
1.5032897891266233,0.01497089818834955,0.03843307950531185,0.012350463029946239,0.05223214283921912,-0.020681518418778418
1.5033613062815498,0.015499460648454992,0.041719352447858585,0.013981854206916533,0.051618135837976184,-0.018998060334877023
1.5034328234364764,0.01793079665045714,0.04160642915240181,0.01416864675154985,0.04873096684377541,-0.017148111008602734
1.503504340591403,0.021792554285279486,0.04051866928861713,0.013806564009865633,0.04517889575427044,-0.015352471756876084
1.5035758577463296,0.026283745634476982,0.044344417381242805,0.015751292513310384,0.04582360600034575,-0.014155455787897791
1.5036473749012562,0.03053094650102892,0.05299404385400149,0.019003856556851165,0.051767510143826787,-0.015014675899324682
1.5037188920561828,0.03389868374654469,0.06544713501547515,0.02304438568669538,0.06310582859897546,-0.018411366780974367
1.5037904092111094,0.03619247413189749,0.07952481252676077,0.02836367437687625,0.07520949965375533,-0.0212264858492996
1.503861926366036,0.03764566473947448,0.0912061614093497,0.03246316988130233,0.08629531456059342,-0.02443819061504277
1.5039334435209626,0.038716510453014726,0.09928290490714821,0.03408384953452373,0.09563465090255346,-0.02864128325327405
1.5040049606758892,0.0398171228344044,0.10463551584771656,0.03557140334761458,0.10273193216177434,-0.03163251874162282
1.5040764778308158,0.041095739566223526,0.11046940196030113,0.037525773851031737,0.1080582399169613,-0.033197893963946096
1.5041479949857424,0.04234364882306056,0.11583223018278051,0.038887791087543686,0.11267134342433686,-0.03482498425051717
1.504219512140669,0.043051695709888996,0.11846497533600604,0.03921573232033744,0.11556945679781039,-0.036278514388849666
1.5042910292955955,0.04260283060723393,0.11365273588683844,0.036347749549566495,0.11296797044348766,-0.037071157419120086
1.5043625464505221,0.04053910287302065,0.10072678400901164,0.030363706364527798,0.105079602362999,-0.03726258103377608
1.5044340636054487,0.03679439695722014,0.08225865521717142,0.02344001313236871,0.09094381546050084,-0.034519285726190105
1.5045055807603753,0.03178229372791513,0.06525912862086693,0.01698689592080203,0.0775543038593642,-0.031845381418571496
1.504577097915302,0.026296542555493532,0.05262881273788108,0.012446934359831944,0.06680717909222504,-0.029187202676477446
1.5046486150702285,0.021278189004975218,0.04643169814808797,0.011187449324425095,0.06039778816838038,-0.026431366893027396
1.504720132225155,0.017555651134353225,0.04303750095001149,0.011283372248322305,0.055674023148264515,-0.023572060480592225
1.5047916493800817,0.01564621916050789,0.040034861809114315,0.010644076718018416,0.05125564785097628,-0.02148964488373207
1.5048631665350083,0.015656872938766518,0.035692725831963854,0.009217644422453899,0.045716959152023326,-0.019387092107330448
1.5049346836899349,0.017286051262519187,0.03208326414550651,0.008230188330603324,0.04042523269689833,-0.017075509025253705
1.5050062008448615,0.019918755698584013,0.030885887274739534,0.007905738300784866,0.03701266976007532,-0.01533244547666437
1.505077717999788,0.022804926807040774,0.03271642247746533,0.009361654152707073,0.03554059816448486,-0.013288055303412738
1.5051492351547147,0.025289013466251117,0.039442754105724266,0.011726326065843064,0.040360170360939106,-0.014205012638244488
1.5052207523096413,0.027015644551186973,0.04672985614721455,0.014241445734319206,0.04684498068928887,-0.01597982339280315
1.5052922694645678,0.028012475009877,0.05050981262544668,0.015961322224474977,0.05002534388680742,-0.01645648480986153
1.5053637866194944,0.028596359216805502,0.047332851447145545,0.014919408532213189,0.048991671503212986,-0.01669297245798853
1.505435303774421,0.02915112616185344,0.03974423577818582,0.013309044659559194,0.04545039648536089,-0.0159153078716867
1.5055068209293476,0.029900153036102176,0.03344683273045977,0.012321918805932341,0.04170798539245198,-0.014514763488198955
1.5055783380842742,0.030782681811496897,0.031698195819031216,0.01250866989698158,0.040631792032438864,-0.01373080165052698
1.5056498552392008,0.03146961942071043,0.033998429468622346,0.013496870470295333,0.04320501494161867,-0.014442819050664038
1.5057213723941274,0.03149161794629547,0.03556076376089798,0.013134126432083434,0.04666238446907051,-0.01676981790479757
1.505792889549054,0.030427310908792447,0.03547415834855448,0.011855838401314541,0.04832536115220143,-0.018783800991926183
1.5058644067039806,0.02809465201809536,0.03237498969539747,0.009674998552531539,0.046441274371010206,-0.019442571801875808
1.5059359238589072,0.024683284499830333,0.027315924295966246,0.006168765257997816,0.04339712961994793,-0.02049250692098085
1.5060074410138338,0.020766913938386953,0.023382266772087264,0.003987129865862614,0.0400658847953459,-0.020300715776297034
1.5060789581687604,0.017165658691511196,0.023381245209601623,0.004506773893992003,0.03820293348452555,-0.018784809005321472
1.506150475323687,0.014695536880755058,0.02565782115478232,0.005603202541494299,0.03767090556227628,-0.01758417102642392
1.5062219924786135,0.013907828977730352,0.0277497708620249,0.006474304461408025,0.036271701698614704,-0.01605633780912933
1.5062935096335401,0.014929925183180436,0.0271577166988039,0.007024475314287043,0.03215408811553995,-0.013191217686790949
1.5063650267884667,0.01746107614733839,0.02537268733937044,0.006681651925523114,0.02725817247459204,-0.010592802755997536
1.5064365439433933,0.020900617081537138,0.027087783838756565,0.008103902228742074,0.025212421109380753,-0.00823946463008112
1.50650806109832,0.024545654709518663,0.03266860115547787,0.01119024144466396,0.026518114068984886,-0.006506530301254906
1.5065795782532465,0.027795889555703463,0.04383718718448255,0.015188716512202768,0.03469857237869146,-0.00807239456069937
1.506651095408173,0.030315638754338018,0.059003085495211306,0.02020329875354711,0.04710054082677319,-0.011297115882606165
1.5067226125630997,0.03210575674634778,0.07423620465091328,0.02516307524326057,0.06006182639415551,-0.01489951765871342
1.5067941297180263,0.03344435853615213,0.08480085757398763,0.02809340030703321,0.07038369951144512,-0.018600632168682536
1.5068656468729529,0.03469846610783441,0.08859814831637779,0.028836225363534616,0.0753070736041741,-0.020900145341157077
1.5069371640278795,0.03608805388876267,0.08913104134863349,0.029158238083419115,0.0763547392521926,-0.021256504217567924
1.507008681182806,0.03753193323000867,0.08949935783823848,0.029645090979329304,0.07652254632055652,-0.02095992143676247
1.5070801983377327,0.038657419159163646,0.0895275949498539,0.03000532215028713,0.0756767491621589,-0.020168317090020444
1.5071517154926592,0.038950459296790155,0.08723083547677164,0.029635790998015537,0.07285508150047118,-0.01880463056844842
1.5072232326475858,0.03795818995272562,0.08008608767206873,0.026170643808596194,0.06702252749103177,-0.01818118216984013
1.5072947498025124,0.035465807062779846,0.07023968016735684,0.02167628316777021,0.058875944210278475,-0.01703060742749955
1.507366266957439,0.03160750390290827,0.061040978290680274,0.01779655130545853,0.05161437462243806,-0.015903498872488226
1.5074377841123656,0.02689036393457737,0.05283496571416441,0.014369878001425985,0.04651518096342242,-0.01568177668253769
1.5075093012672922,0.022110982309926926,0.04533765323174083,0.012274203971852665,0.042101600822040244,-0.01478482827845354
1.5075808184222188,0.018158898886019043,0.040673247665952816,0.010838451012952628,0.04056756496786792,-0.01504626622484407
1.5076523355771454,0.015750547010193554,0.037152131287352716,0.009985828883372298,0.03837587241133819,-0.014448717607034933
1.507723852732072,0.015198153002695225,0.03124701292500639,0.008495434228764531,0.03226026850488937,-0.012062238168001062
1.5077953698869986,0.01632710132796861,0.023657943749929796,0.006411917338543193,0.02398281388222798,-0.008887590066984419
1.5078668870419252,0.01858159605132472,0.017044135988100194,0.00521914285473996,0.015751869445587957,-0.005020533506243955
1.5079384041968518,0.02125563485920751,0.012591843872362275,0.005152249488431391,0.0093280486523202,-0.001303724938115636
1.5080099213517784,0.023737553869918368,0.0116339085358382,0.0057615299185219465,0.006893604849796559,0.0006185527550177359
1.508081438506705,0.025680396681245936,0.014108978001558293,0.007453924502377228,0.008369112093616113,0.0011228184556691908
1.5081529556616315,0.027059576075294776,0.01711744517390814,0.008842952470356694,0.01163816106505586,0.00032873297662721474
1.5082244728165581,0.028112039179855254,0.017509080054901444,0.008942296206187028,0.014272210374864718,-0.0011370205365160908
1.5082959899714847,0.029172386947160022,0.016472183806499383,0.008780907310022895,0.01701458096714683,-0.002877625553629698
1.5083675071264113,0.03045818310099522,0.017427214141674842,0.010026451111954632,0.020418314152349366,-0.0038672666694111123
1.508439024281338,0.03190386747651281,0.022437076393568258,0.012747040105629182,0.025826113665712202,-0.004839076340800961
1.5085105414362645,0.03314377564440417,0.030066584175243345,0.01600259242207933,0.03253271946070916,-0.006140509491899939
1.508582058591191,0.03366149064758627,0.036245439454184784,0.0186299276568245,0.03760520131724866,-0.006991335843867992
1.5086535757461177,0.03301661123576188,0.03648973197762596,0.017302793300784304,0.038551991617773895,-0.00862336967766639
1.5087250929010443,0.031031763736761156,0.03147680387666165,0.013978643770450466,0.034831406840561824,-0.009130939152885717
1.5087966100559709,0.02787943173947238,0.023950369511326758,0.009773118861112214,0.028264939478383277,-0.008680345282915298
1.5088681272108975,0.024071143965329337,0.0168411567457204,0.005405399448016361,0.022634514008366916,-0.008910871115700651
1.508939644365824,0.020368522042175177,0.011189548848500428,0.002619426200917792,0.018839241215804086,-0.008938177848321044
1.5090111615207507,0.017622660517009992,0.008728592887191609,0.001280243020763253,0.018605679624471252,-0.00988532729705302
1.5090826786756772,0.016549556574789192,0.008124397182516492,0.001094148915450876,0.018833730128673953,-0.010169897774910721
1.5091541958306038,0.01749078347259404,0.008198168390742125,0.001728275756159572,0.017711351612510102,-0.008997481190183544
1.5092257129855304,0.02026609634215111,0.008579584686005549,0.002622344403247119,0.015473136802185589,-0.006959513690105165
1.509297230140457,0.024225306810832306,0.012761180071944284,0.005090188490138515,0.015160763594792044,-0.004777927133811039
1.5093687472953836,0.028505184243561566,0.023261510417294046,0.010396256019729185,0.019209931379489682,-0.0028582948627144194
1.5094402644503102,0.032363241212534366,0.03872295692280827,0.017181792517199104,0.027975572438991438,-0.0025084269848279586
1.5095117816052368,0.035420479974014,0.05662417850605387,0.023785576506019895,0.039648179762891735,-0.004011848639947287
1.5095832987601634,0.03772295943106026,0.07047661489395413,0.028541189697550762,0.04834686943672169,-0.005266291989539264
1.50965481591509,0.039632532833370364,0.07604598965489462,0.030196375009199177,0.052299865058943205,-0.006247035463509715
1.5097263330700166,0.041605230836871475,0.07245615345972975,0.028415936049993602,0.05230477045520893,-0.007695136248611141
1.5097978502249432,0.04392716574129624,0.06425829595019474,0.026087173799228647,0.04757211205248434,-0.006802060575102169
1.5098693673798698,0.04649881119729661,0.058450476150282135,0.025125670272120693,0.04244272901057336,-0.004567111668123614
1.5099408845347964,0.048782229516577,0.057651487395951585,0.025898717163670308,0.04115537693457689,-0.0031836250416441268
1.510012401689723,0.04998265464348263,0.059805081421579885,0.027970420605425636,0.04120557954550702,-0.0015325840359604083
1.5100839188446495,0.04939582665258717,0.059675019425279856,0.02744804663090382,0.040373604993886106,-0.0014675647089279174
1.5101554359995761,0.046726633743720845,0.055940085385308626,0.024915387052692306,0.0371380434085074,-0.0016209819148095654
1.5102269531545027,0.04221494386441091,0.05092539844407888,0.022036546886626967,0.03213614460275119,-0.0010172285792667901
1.5102984703094293,0.0365554045951188,0.0475228885905743,0.019143160662124768,0.029819764840573616,-0.002002033967239505
1.510369987464356,0.030705701566729478,0.04670609013717525,0.01712115674686206,0.0305154160901627,-0.004049182027613698
1.5104415046192825,0.025671938650474672,0.04757376153324068,0.016152578444133103,0.03327935528171186,-0.006457576307997007
1.510513021774209,0.02230380117340663,0.048918882689021864,0.01595046449902194,0.036304898165148175,-0.008398918173643008
1.5105845389291357,0.02110478427342222,0.04606277668413554,0.014310671393420193,0.03532946815813722,-0.009154550113299697
1.5106560560840623,0.022087028251984653,0.036939670564196204,0.011927341615445858,0.02823923485834098,-0.00692029410271379
1.5107275732389889,0.02474352062355467,0.02379681695965438,0.008315005741078718,0.017660793765889603,-0.003634304567035432
1.5107990903939155,0.028206425428266402,0.013368521994581856,0.006455089330600415,0.008481479001273447,0.00024809645266057927
1.510870607548842,0.03156791810921427,0.008226521963730145,0.006924877381908108,0.003723040822296342,0.0034214357779848515
1.5109421247037687,0.034217944840168574,0.008948533110345849,0.0085255112555674,0.005724353045520511,0.00354282268293412
1.5110136418586952,0.036025983655989566,0.014206096929941061,0.01161661354179527,0.011489722897290066,0.002661976787502804
1.5110851590136218,0.03729532439305516,0.017909071269212398,0.013294021431409462,0.01686135186705469,0.0008674371378367164
1.5111566761685484,0.03854470610167679,0.018408668994022808,0.013163190298163863,0.02183724603359115,-0.002159751320303237
1.511228193323475,0.04022460916569971,0.018153192122593788,0.013651672900344249,0.024742271464016842,-0.003469795640992211
1.5112997104784016,0.04246467581659284,0.020047196981164236,0.01442102957265151,0.027260497033078535,-0.004325322305363884
1.5113712276333282,0.04493429586497486,0.026497706291561778,0.016921655013448497,0.032369591896780854,-0.00529993330498936
1.5114427447882548,0.04689231770787431,0.033976583170485616,0.019784155718843215,0.03771893038506955,-0.006122550138345258
1.5115142619431814,0.047454803887083834,0.03782059481774498,0.02007376929597759,0.040037380284821754,-0.007250128736582584
1.511585779098108,0.04599085839647899,0.03458512473613063,0.017243949592298295,0.03747654712390618,-0.008039097039994388
