freq,gls,usurper,pdc_unbiased,shape_periodogram,shift_periodogram
1.5,0.031605246424144244,0.03237741781981212,0.022003088454338578,0.05445751821501452,-0.0249439596925929
1.5000715171549266,0.028595336453250155,0.0257108702257575,0.01679692217781675,0.04558404064680802,-0.02197728791186601
1.5001430343098532,0.024797888546036324,0.02002879369467197,0.011419584810450916,0.03867441960601066,-0.020570143801060127
1.5002145514647798,0.020789812632417533,0.01827688179332384,0.008796510756732951,0.03327027394799848,-0.01839286287833902
1.5002860686197064,0.017345459787468324,0.020947421048137176,0.009479677332466734,0.03116192769010585,-0.016381923771651347
1.500357585774633,0.015271945925960987,0.025535100257569172,0.011714688134418397,0.031015411970883058,-0.01475276353799734
1.5004291029295596,0.015165201318802408,0.03080803845558789,0.01415548030345099,0.034906542269669376,-0.01594378362961424
1.5005006200844861,0.01716595655706576,0.03561239321994162,0.016954003693511403,0.03746421540285442,-0.01591342132243585
1.5005721372394127,0.02086274426290797,0.03905108003282341,0.019187221778694714,0.0392995473085748,-0.015738196173109977
1.5006436543943393,0.02544081002802935,0.042014562842289924,0.02137618975240262,0.041783857441932866,-0.016069049593847893
1.500715171549266,0.03000884122307953,0.0452206970301427,0.02421994995090846,0.044065809057921734,-0.015805038811288436
1.5007866887041925,0.03391266896856934,0.04911012992580739,0.02666061786266369,0.05108170304546804,-0.01929014260316211
1.500858205859119,0.0368882624749449,0.05364617706266053,0.029368029530911475,0.06108219590736472,-0.024788481688020794
1.5009297230140457,0.0390355018056212,0.05868706740076755,0.03287087235373193,0.07437911403236606,-0.03217577086983832
1.5010012401689723,0.04067274274449097,0.06045857620913472,0.0349635290275476,0.08583903414714877,-0.03918646915047559
1.5010727573238989,0.04213722341942038,0.06066307865599549,0.036798409825528795,0.0940343346969254,-0.04397675653824061
1.5011442744788255,0.043587855733941964,0.060646285565934537,0.03793328428010061,0.10099007699087657,-0.04833676374081621
1.501215791633752,0.044880915226329254,0.06022671160579894,0.03824814004694497,0.10522742601406569,-0.05125285522245121
1.5012873087886787,0.045592465454410994,0.061115079368402346,0.03896037083855539,0.10868906467646275,-0.05332585471504007
1.5013588259436053,0.04519857422015515,0.06036363107087922,0.038338310339186395,0.10871440655251324,-0.05376966141177188
1.5014303430985318,0.04331902735671992,0.056728307438559174,0.03525172960142179,0.10642109059768405,-0.054181993374792146
1.5015018602534584,0.03989064242203222,0.04898348157065606,0.029380562295107576,0.10020679144215804,-0.053596627352102535
1.501573377408385,0.035207008956161204,0.03992299427726524,0.02275340008029923,0.09240623200230315,-0.052356927652906046
1.5016448945633116,0.029854908046904056,0.031631870331610246,0.01716592382272006,0.08270307799061437,-0.04901070275691716
1.5017164117182382,0.02460404968418353,0.024755916434642655,0.01272729457488559,0.07237052202221873,-0.04442698168979529
1.5017879288731648,0.020274028275387688,0.02069683737024474,0.010756457121333964,0.06297475104271366,-0.03886059628822882
1.5018594460280914,0.01756978332877583,0.018806454647536216,0.009814843547662735,0.05664948306559642,-0.034854784644142205
1.501930963183018,0.016887968997375314,0.018458105359709976,0.009773529530205848,0.049553969575704813,-0.029673378819823786
1.5020024803379446,0.018154766828972088,0.017577320622840065,0.009545857603491862,0.04252153751753709,-0.02466787793160789
1.5020739974928712,0.020807783027131654,0.018088479681228443,0.00997328939183271,0.03715252065149369,-0.02043863396523718
1.5021455146477978,0.023992628107040868,0.02064429277057252,0.01144212206274167,0.035304957477836074,-0.018083638926538238
1.5022170318027244,0.026898257150269028,0.025297042987906394,0.014028974316248104,0.038828804947390105,-0.018906524724414266
1.502288548957651,0.029041972437567,0.030228200081634043,0.016679671046279716,0.045665649070518115,-0.022117042125775453
1.5023600661125776,0.03036170293294545,0.03554532711337474,0.019990738498687276,0.055198953228663084,-0.026859787893079298
1.5024315832675041,0.031115659296329378,0.03644419609253107,0.02077896981185265,0.0638480838225196,-0.03267718815171348
1.5025031004224307,0.031680428730509906,0.03384908927786485,0.019519808615351825,0.06906001291261443,-0.037366909799660154
1.5025746175773573,0.032340192227813126,0.030322262361067033,0.018649627815208736,0.07022333742293124,-0.03881524187467594
1.502646134732284,0.033131945974426154,0.02767806915586345,0.017871043624403338,0.06780060596188546,-0.037563938332300255
1.5027176518872105,0.033797027787609374,0.0271353932068798,0.01799769758677829,0.0655031483150003,-0.03578858819628024
1.502789169042137,0.033871437590867574,0.025775906952020172,0.017486670760106647,0.061985792307531484,-0.033551491894536586
1.5028606861970637,0.03289397904446062,0.022504619404618904,0.015274482970942199,0.057286886161568636,-0.031605963509934505
1.5029322033519903,0.030638444170610023,0.018784519337359973,0.012011118949132128,0.05272071577282836,-0.03047482393384124
1.5030037205069169,0.02725242384486997,0.016804106997932777,0.009441040885373031,0.049477339287028826,-0.02984345554790088
1.5030752376618435,0.023245599290448483,0.01822672829069918,0.008606550278537486,0.04831929999859548,-0.029561517313954434
1.50314675481677,0.019358366958489085,0.02163020977663592,0.008953985446160287,0.04794591991934025,-0.029051005098544285
1.5032182719716967,0.01638051368297583,0.025973796834292826,0.010426555451109277,0.04809471916142374,-0.028157811475291894
1.5032897891266233,0.01497089818834955,0.030142134897992112,0.012350463029946239,0.04791079752399915,-0.02671299682463459
1.5033613062815498,0.015499460648454992,0.03332226727981682,0.013981854206916533,0.0465042404312916,-0.024569858545856145
1.5034328234364764,0.01793079665045714,0.03339051554026135,0.01416864675154985,0.04193428058899375,-0.021089454793374117
1.503504340591403,0.021792554285279486,0.032354130956015824,0.013806564009865633,0.03626540323547024,-0.017177915479918465
1.5035758577463296,0.026283745634476982,0.034633081291504296,0.015751292513310384,0.03369019603685589,-0.013964990489225533
1.5036473749012562,0.03053094650102892,0.03969398333890494,0.019003856556851165,0.03745428384163796,-0.014509694668937109
1.5037188920561828,0.03389868374654469,0.04664746281173581,0.02304438568669538,0.047584422602557554,-0.019188413019131042
1.5037904092111094,0.03619247413189749,0.05533976903548389,0.02836367437687625,0.062172928187543906,-0.026275124871150444
1.503861926366036,0.03764566473947448,0.061887060385100695,0.03246316988130233,0.0775587666598322,-0.03479440041818564
1.5039334435209626,0.038716510453014726,0.06509328807184016,0.03408384953452373,0.0912986552154264,-0.043812404280400404
1.5040049606758892,0.0398171228344044,0.06668764879776927,0.03557140334761458,0.10170245583567801,-0.05047635539097807
1.5040764778308158,0.041095739566223526,0.07006490831066718,0.037525773851031737,0.10911146158058935,-0.0546184838253317
1.5041479949857424,0.04234364882306056,0.07339519576634682,0.038887791087543686,0.11388341064559178,-0.05721929629758627
1.504219512140669,0.043051695709888996,0.07482920814353539,0.03921573232033744,0.11601228322100046,-0.05857162778902788
1.5042910292955955,0.04260283060723393,0.07027836292019526,0.036347749549566495,0.11367739159974534,-0.058801907656805194
1.5043625464505221,0.04053910287302065,0.05955601912623094,0.030363706364527798,0.10580674487391437,-0.05706370540871259
1.5044340636054487,0.03679439695722014,0.04607171714084053,0.02344001313236871,0.0936313336479719,-0.05279280700973662
1.5045055807603753,0.03178229372791513,0.034289946841004414,0.01698689592080203,0.08246145842447988,-0.048954634477144
1.504577097915302,0.026296542555493532,0.026311857103498447,0.012446934359831944,0.07243740813982016,-0.04466699170428926
1.5046486150702285,0.021278189004975218,0.023511941213936523,0.011187449324425095,0.06488690468777657,-0.039972524593947505
1.504720132225155,0.017555651134353225,0.02285311139007027,0.011283372248322305,0.05902324241804045,-0.03559874166365971
1.5047916493800817,0.01564621916050789,0.02199816568530241,0.010644076718018416,0.05420922110442281,-0.03249836802957361
1.5048631665350083,0.015656872938766518,0.019926020932523058,0.009217644422453899,0.04739668718915695,-0.02846846139711117
1.5049346836899349,0.017286051262519187,0.018309037373236386,0.008230188330603324,0.04032022121906679,-0.02394865321074132
1.5050062008448615,0.019918755698584013,0.018109985829513967,0.007905738300784866,0.03417152757263256,-0.019660109103890926
1.505077717999788,0.022804926807040774,0.020236693628609196,0.009361654152707073,0.02981922304113018,-0.015477885823889108
1.5051492351547147,0.025289013466251117,0.02514357312301107,0.011726326065843064,0.03315438516749956,-0.016313140330089137
1.5052207523096413,0.027015644551186973,0.030187544681148152,0.014241445734319206,0.04013236734140001,-0.019718011694571134
1.5052922694645678,0.028012475009877,0.03278741708824207,0.015961322224474977,0.0465760756249432,-0.023274457752826244
1.5053637866194944,0.028596359216805502,0.02966440807444112,0.014919408532213189,0.05022561420633567,-0.026662752653210317
1.505435303774421,0.02915112616185344,0.023243746616670818,0.013309044659559194,0.050455930759129075,-0.027928439757351802
1.5055068209293476,0.029900153036102176,0.018763277837239557,0.012321918805932341,0.049218465130474585,-0.0276922160330126
1.5055783380842742,0.030782681811496897,0.018073696805859914,0.01250866989698158,0.04811796435954419,-0.02675732412937433
1.5056498552392008,0.03146961942071043,0.020353025789524942,0.013496870470295333,0.04918912332160617,-0.026870650477389655
1.5057213723941274,0.03149161794629547,0.021531783399240136,0.013134126432083434,0.050635802140123864,-0.028179584680784502
1.505792889549054,0.030427310908792447,0.021095441246301805,0.011855838401314541,0.050452295143649975,-0.028915219041583378
1.5058644067039806,0.02809465201809536,0.018946326932434848,0.009674998552531539,0.047902325684416006,-0.028528222623659713
1.5059359238589072,0.024683284499830333,0.015208923168041559,0.006168765257997816,0.04484832169187543,-0.028673616092455556
1.5060074410138338,0.020766913938386953,0.012865398532067336,0.003987129865862614,0.0416530595366848,-0.02781413652356935
1.5060789581687604,0.017165658691511196,0.013974695218599582,0.004506773893992003,0.038798686889173276,-0.025366889463473763
1.506150475323687,0.014695536880755058,0.016551355704662738,0.005603202541494299,0.03713340667001796,-0.023399379231841568
1.5062219924786135,0.013907828977730352,0.018772632223514694,0.006474304461408025,0.03502616453884114,-0.02126117493004955
1.5062935096335401,0.014929925183180436,0.019115971741595534,0.007024475314287043,0.03006263924734651,-0.017247416747119493
1.5063650267884667,0.01746107614733839,0.01783158476161773,0.006681651925523114,0.024333501855780513,-0.013281194063016487
1.5064365439433933,0.020900617081537138,0.019125196531098905,0.008103902228742074,0.02003054244005208,-0.009159413229937784
1.50650806109832,0.024545654709518663,0.023012224290137252,0.01119024144466396,0.01793866546108,-0.00552520359452311
1.5065795782532465,0.027795889555703463,0.030008243232044263,0.015188716512202768,0.023574049920563334,-0.00693224401730046
1.506651095408173,0.030315638754338018,0.039341771890438464,0.02020329875354711,0.03367496134271754,-0.010920989630242597
1.5067226125630997,0.03210575674634778,0.04877564668657321,0.02516307524326057,0.0467256502765084,-0.017113881883761242
1.5067941297180263,0.03344435853615213,0.05433016528796751,0.02809340030703321,0.058219376288917594,-0.02355462459294983
1.5068656468729529,0.03469846610783441,0.054947970534407635,0.028836225363534616,0.06521641086204248,-0.02818976311351753
1.5069371640278795,0.03608805388876267,0.05404505314799889,0.029158238083419115,0.06839821030193459,-0.03030951680148421
1.507008681182806,0.03753193323000867,0.053874430904293,0.029645090979329304,0.07028980638065663,-0.031368566556032436
1.5070801983377327,0.038657419159163646,0.0540838180463626,0.03000532215028713,0.06972188760202312,-0.030705080575576357
1.5071517154926592,0.038950459296790155,0.052875143929754675,0.029635790998015537,0.06719396664359076,-0.029098203332026052
1.5072232326475858,0.03795818995272562,0.04734029177420061,0.026170643808596194,0.06261253857496991,-0.028093849538133202
1.5072947498025124,0.035465807062779846,0.0403355741216777,0.02167628316777021,0.05611856163486046,-0.02638657532797431
1.507366266957439,0.03160750390290827,0.034569566600236065,0.01779655130545853,0.05041418342632748,-0.024841477857729992
1.5074377841123656,0.02689036393457737,0.02970667185256096,0.014369878001425985,0.046357765205324385,-0.024198121323723606
1.5075093012672922,0.022110982309926926,0.025556652425449248,0.012274203971852665,0.042332093923561076,-0.022671351197833655
1.5075808184222188,0.018158898886019043,0.023105641539646924,0.010838451012952628,0.04073167466615553,-0.022474843292631625
1.5076523355771454,0.015750547010193554,0.021698739712865834,0.009985828883372298,0.0389553888643723,-0.021752387491910226
1.507723852732072,0.015198153002695225,0.018676155003617544,0.008495434228764531,0.03399594831021911,-0.019129928288772666
1.5077953698869986,0.01632710132796861,0.014359808095098448,0.006411917338543193,0.026420551243151732,-0.014994548347373711
1.5078668870419252,0.01858159605132472,0.011057975135042664,0.00521914285473996,0.01867476865339822,-0.010129674872357828
1.5079384041968518,0.02125563485920751,0.00906673995641921,0.005152249488431391,0.011331014710489432,-0.004794241180031766
1.5080099213517784,0.023737553869918368,0.008848577261238449,0.0057615299185219465,0.008097419746314645,-0.002010408929535812
1.508081438506705,0.025680396681245936,0.010761879085032304,0.007453924502377228,0.009175995057584093,-0.001648534425981522
1.5081529556616315,0.027059576075294776,0.012603995199368197,0.008842952470356694,0.013051453972369705,-0.0035423142880488274
1.5082244728165581,0.028112039179855254,0.011862575882743252,0.008942296206187028,0.016107268892168014,-0.00571371943545093
1.5082959899714847,0.029172386947160022,0.009678381331884228,0.008780907310022895,0.018467765440869973,-0.007553289723028671
1.5083675071264113,0.03045818310099522,0.00963429394960311,0.010026451111954632,0.020894564360364243,-0.008483701930598584
1.508439024281338,0.03190386747651281,0.01374791730341936,0.012747040105629182,0.024801746317637548,-0.009494836561489953
1.5085105414362645,0.03314377564440417,0.019873699938644716,0.01600259242207933,0.029740027298516547,-0.010897619957303895
1.508582058591191,0.03366149064758627,0.02484857715511109,0.0186299276568245,0.03395953802778418,-0.01220160512525204
1.5086535757461177,0.03301661123576188,0.02454010179887804,0.017302793300784304,0.0350646504136267,-0.013916058357194694
1.5087250929010443,0.031031763736761156,0.020290037621311232,0.013978643770450466,0.03254267588354789,-0.014330865916273378
1.5087966100559709,0.02787943173947238,0.014772428982406173,0.009773118861112214,0.027513017071045323,-0.01350712085215787
1.5088681272108975,0.024071143965329337,0.009692889880697548,0.005405399448016361,0.023473166426437334,-0.013519400038002683
1.508939644365824,0.020368522042175177,0.005737429198947953,0.002619426200917792,0.019652912733888667,-0.012616027965318896
1.5090111615207507,0.017622660517009992,0.003973749260673644,0.001280243020763253,0.0183215331269894,-0.012551900643220664
1.5090826786756772,0.016549556574789192,0.003507085466197205,0.001094148915450876,0.018035373261593962,-0.012468871589823308
1.5091541958306038,0.01749078347259404,0.0036231201616285925,0.001728275756159572,0.016087790057094396,-0.01061017396280025
1.5092257129855304,0.02026609634215111,0.004102580356236693,0.002622344403247119,0.012588078076968486,-0.007437352931409058
1.509297230140457,0.024225306810832306,0.007395276707289123,0.005090188490138515,0.010199924606452035,-0.004007782130846271
1.5093687472953836,0.028505184243561566,0.015388459181583138,0.010396256019729185,0.010817460923835322,-0.0008480476641526556
1.5094402644503102,0.032363241212534366,0.026608119193993217,0.017181792517199104,0.01605776642788866,-6.69678068935057e-05
1.5095117816052368,0.035420479974014,0.039053819272368374,0.023785576506019895,0.02516744408930109,-0.0022434974048832035
1.5095832987601634,0.03772295943106026,0.04836440144852899,0.028541189697550762,0.0335924424678346,-0.005177398576395054
1.50965481591509,0.039632532833370364,0.051148115777949865,0.030196375009199177,0.03910049821046248,-0.008087530703199414
1.5097263330700166,0.041605230836871475,0.0463623727239339,0.028415936049993602,0.04039442491651511,-0.010250810536993327
1.5097978502249432,0.04392716574129624,0.03891234946525726,0.026087173799228647,0.03599708861000677,-0.008613676150479605
1.5098693673798698,0.04649881119729661,0.034637725692629254,0.025125670272120693,0.029938436589769975,-0.004827111268803286
1.5099408845347964,0.048782229516577,0.034897802234542794,0.025898717163670308,0.02679292460694068,-0.0019946369812447575
1.510012401689723,0.04998265464348263,0.03796421902381481,0.027970420605425636,0.025732636426645982,0.00019457744670496127
1.5100839188446495,0.04939582665258717,0.0385912641154158,0.02744804663090382,0.024628868538196635,0.0006473471863401438
1.5101554359995761,0.046726633743720845,0.03617530128547823,0.024915387052692306,0.0225803757062147,0.0004222910041849276
1.5102269531545027,0.04221494386441091,0.03339129173279124,0.022036546886626967,0.019954461126216006,0.0003848250352149359
1.5102984703094293,0.0365554045951188,0.03188750274604246,0.019143160662124768,0.020434864937317512,-0.001938283914218696
1.510369987464356,0.030705701566729478,0.03216274919540099,0.01712115674686206,0.02305944979554698,-0.005238946899147288
1.5104415046192825,0.025671938650474672,0.03368098978178343,0.016152578444133103,0.027146388318702818,-0.008894163692475596
1.510513021774209,0.02230380117340663,0.03567979823315125,0.01595046449902194,0.03161659891791445,-0.012308924247125059
1.5105845389291357,0.02110478427342222,0.034324585488522234,0.014310671393420193,0.032381288432482745,-0.01398641407387956
1.5106560560840623,0.022087028251984653,0.028943722016427153,0.011927341615445858,0.027211371680437146,-0.011819236944698523
1.5107275732389889,0.02474352062355467,0.02020457642084171,0.008315005741078718,0.018505929356609743,-0.007898441020218059
1.5107990903939155,0.028206425428266402,0.013416191453153183,0.006455089330600415,0.010218946520332737,-0.0030925964348841066
1.510870607548842,0.03156791810921427,0.010098446824480474,0.006924877381908108,0.00517110144661071,0.0009253632034292031
1.5109421247037687,0.034217944840168574,0.010187357749615239,0.0085255112555674,0.005980979294011569,0.0014216640020812805
1.5110136418586952,0.036025983655989566,0.013548313893053582,0.01161661354179527,0.011202135489158936,-0.000299016720783742
1.5110851590136218,0.03729532439305516,0.015297698407016903,0.013294021431409462,0.017688334313518204,-0.003909290962413403
1.5111566761685484,0.03854470610167679,0.013895733578071333,0.013163190298163863,0.0240094942297552,-0.008630781426778759
1.511228193323475,0.04022460916569971,0.012387369854314169,0.013651672900344249,0.0270192645364348,-0.010504219020144078
1.5112997104784016,0.04246467581659284,0.013186981654462695,0.01442102957265151,0.02846017690326642,-0.011036531053751358
1.5113712276333282,0.04493429586497486,0.01820130266426857,0.016921655013448497,0.030933056650698263,-0.011146260508348391
1.5114427447882548,0.04689231770787431,0.02412998794111131,0.019784155718843215,0.03300630190737112,-0.010716284554047077
1.5115142619431814,0.047454803887083834,0.02672428040505104,0.02007376929597759,0.03311634707723839,-0.010599649361603266
1.511585779098108,0.04599085839647899,0.02363382420050269,0.017243949592298295,0.030001222040268657,-0.010243566363822823
