freq,gls,usurper,pdc_unbiased,shape_periodogram,shift_periodogram
1.5,0.031605246424144244,0.03113007763702075,0.022003088454338578,0.03385408012172292,-0.000336422101398735
1.5000715171549266,0.028595336453250155,0.024305827084909068,0.01679692217781675,0.027404071581321156,-0.0011197673969237667
1.5001430343098532,0.024797888546036324,0.018491491850731945,0.011419584810450916,0.02222432752944706,-0.002745947092504376
1.5002145514647798,0.020789812632417533,0.016652952840918618,0.008796510756732951,0.017594279759146333,-0.0023773780446430005
1.5002860686197064,0.017345459787468324,0.019264372006539843,0.009479677332466734,0.015569631566032114,-0.0006897567144329614
1.500357585774633,0.015271945925960987,0.02385520489301864,0.011714688134418397,0.015821254787890603,0.001035512425954971
1.5004291029295596,0.015165201318802408,0.029243271553535177,0.01415548030345099,0.01950699819806109,0.0010367622861434404
1.5005006200844861,0.01716595655706576,0.03430545909955519,0.016954003693511403,0.022340933606792727,0.001807027584923249
1.5005721372394127,0.02086274426290797,0.03823342119521041,0.019187221778694714,0.02525118934054747,0.002063808292716759
1.5006436543943393,0.02544081002802935,0.04168000277585401,0.02137618975240262,0.02823824264065861,0.0022415418931180037
1.500715171549266,0.03000884122307953,0.04537115365832099,0.02421994995090846,0.030039291348693747,0.003621162358167982
1.5007866887041925,0.03391266896856934,0.04959058659054035,0.02666061786266369,0.035463042414408584,0.0026643700621647136
1.500858205859119,0.0368882624749449,0.0543167811773407,0.029368029530911475,0.04266128387115979,0.0009502927032925456
1.5009297230140457,0.0390355018056212,0.05947190196441355,0.03287087235373193,0.0519103308062214,-0.0012327169866688083
1.5010012401689723,0.04067274274449097,0.061293394589759784,0.0349635290275476,0.0594732532963559,-0.003664352659768336
1.5010727573238989,0.04213722341942038,0.06147015463400596,0.036798409825528795,0.0646865953655926,-0.005013176256649013
1.5011442744788255,0.043587855733941964,0.06141910403699754,0.03793328428010061,0.0691698998873155,-0.006544805102249663
1.501215791633752,0.044880915226329254,0.06104512274369999,0.03824814004694497,0.07255062832225738,-0.008153562097759168
1.5012873087886787,0.045592465454410994,0.062022101833978986,0.03896037083855539,0.07594815528784797,-0.009439434056163383
1.5013588259436053,0.04519857422015515,0.06132842394804286,0.038338310339186395,0.07634629014317931,-0.010181416028930664
1.5014303430985318,0.04331902735671992,0.05756735372016562,0.03525172960142179,0.07612475440647319,-0.012644570105066257
1.5015018602534584,0.03989064242203222,0.04961391769143463,0.029380562295107576,0.07274237741279772,-0.015684726934320367
1.501573377408385,0.035207008956161204,0.040287224434021274,0.02275340008029923,0.06819638075001466,-0.018707615099123845
1.5016448945633116,0.029854908046904056,0.03179582153208269,0.01716592382272006,0.06070386402775969,-0.019225170640028474
1.5017164117182382,0.02460404968418353,0.024691362959932222,0.01272729457488559,0.05218098794540445,-0.018212718673905573
1.5017879288731648,0.020274028275387688,0.020422639769846415,0.010756457121333964,0.04479560881620162,-0.015771712832831533
1.5018594460280914,0.01756978332877583,0.018334181763613313,0.009814843547662735,0.040385986849595275,-0.014119087683943855
1.501930963183018,0.016887968997375314,0.017878871713552895,0.009773529530205848,0.03578818907582401,-0.011612066412018559
1.5020024803379446,0.018154766828972088,0.017094686353729415,0.009545857603491862,0.0313389932202274,-0.00934347050263061
1.5020739974928712,0.020807783027131654,0.017689470290737596,0.00997328939183271,0.027900696845815726,-0.007087444143104337
1.5021455146477978,0.023992628107040868,0.020225864243086908,0.01144212206274167,0.02625074398868013,-0.004950740804636078
1.5022170318027244,0.026898257150269028,0.02474024574372054,0.014028974316248104,0.027970343303873862,-0.0037422198421727952
1.502288548957651,0.029041972437567,0.029498061751751938,0.016679671046279716,0.0315372643196872,-0.003500430598918821
1.5023600661125776,0.03036170293294545,0.034577791037265736,0.019990738498687276,0.03661798578983748,-0.0035433674721141607
1.5024315832675041,0.031115659296329378,0.035264439021081624,0.02077896981185265,0.04061307698366982,-0.005092801591115049
1.5025031004224307,0.031680428730509906,0.0324020975444806,0.019519808615351825,0.04268693317189781,-0.007290479541731413
1.5025746175773573,0.032340192227813126,0.028681678453870832,0.018649627815208736,0.041820602816825404,-0.0075381752692223565
1.502646134732284,0.033131945974426154,0.026061614125658907,0.017871043624403338,0.039119230813905406,-0.006695130333384992
1.5027176518872105,0.033797027787609374,0.02561583040913329,0.01799769758677829,0.037667623893642185,-0.005787207709507001
1.502789169042137,0.033871437590867574,0.024406364779704613,0.017486670760106647,0.035315623812060416,-0.0049141972854539195
1.5028606861970637,0.03289397904446062,0.021127635337608173,0.015274482970942199,0.03282666002269016,-0.005385441229658553
1.5029322033519903,0.030638444170610023,0.017326115884710887,0.012011118949132128,0.03078962493889313,-0.00698318280141742
1.5030037205069169,0.02725242384486997,0.015245400713310603,0.009441040885373031,0.02934491381262551,-0.008329252203961045
1.5030752376618435,0.023245599290448483,0.01662029951927311,0.008606550278537486,0.02848516252252917,-0.008550437936762459
1.50314675481677,0.019358366958489085,0.019980188752592744,0.008953985446160287,0.028043303017845033,-0.00801652775429797
1.5032182719716967,0.01638051368297583,0.024344835054625404,0.010426555451109277,0.028009570667069075,-0.006769453058203612
1.5032897891266233,0.01497089818834955,0.028596962403265997,0.012350463029946239,0.028618375161083124,-0.005500644369937062
1.5033613062815498,0.015499460648454992,0.031991088558809264,0.013981854206916533,0.028607043220929985,-0.004133203505802561
1.5034328234364764,0.01793079665045714,0.03246918043399999,0.01416864675154985,0.02610507020253592,-0.0025955137945081167
1.503504340591403,0.021792554285279486,0.03193967061897264,0.013806564009865633,0.022956648848462914,-0.0011589976823626598
1.5035758577463296,0.026283745634476982,0.03464716872624019,0.015751292513310384,0.022483526555986167,0.0007247799563608482
1.5036473749012562,0.03053094650102892,0.039999329068825966,0.019003856556851165,0.026646926998313277,0.0011401202366783853
1.5037188920561828,0.03389868374654469,0.04719315048687076,0.02304438568669538,0.034998930041154314,-9.932029249896251e-05
1.5037904092111094,0.03619247413189749,0.05601045652805992,0.02836367437687625,0.04466823656426787,-0.000997939156669143
1.503861926366036,0.03764566473947448,0.06269877259458695,0.03246316988130233,0.05414028046727825,-0.0028066134461389746
1.5039334435209626,0.038716510453014726,0.06585897570816877,0.03408384953452373,0.06345326620824225,-0.006602875101785928
1.5040049606758892,0.0398171228344044,0.06740679996282452,0.03557140334761458,0.07027897567822246,-0.009137126934071179
1.5040764778308158,0.041095739566223526,0.07081976290764402,0.037525773851031737,0.07576495653025397,-0.010540026828049906
1.5041479949857424,0.04234364882306056,0.0741415421146305,0.038887791087543686,0.08061762154144593,-0.012089297170180481
1.504219512140669,0.043051695709888996,0.07555617134194445,0.03921573232033744,0.08443478092913277,-0.013932256675920603
1.5042910292955955,0.04260283060723393,0.07089091425828487,0.036347749549566495,0.08536198857513204,-0.016851369249649275
1.5043625464505221,0.04053910287302065,0.05996693404698708,0.030363706364527798,0.08194558321668674,-0.01996764209345733
1.5044340636054487,0.03679439695722014,0.04627028247488596,0.02344001313236871,0.07382092366446663,-0.021252334676406314
1.5045055807603753,0.03178229372791513,0.034314563574400866,0.01698689592080203,0.06568138405380947,-0.022132618703630792
1.504577097915302,0.026296542555493532,0.026112392832173252,0.012446934359831944,0.05769913809432094,-0.021501672780161712
1.5046486150702285,0.021278189004975218,0.02307199380054698,0.011187449324425095,0.050918730893126575,-0.018799475340655156
1.504720132225155,0.017555651134353225,0.022172111006743746,0.011283372248322305,0.04581703450809007,-0.015896920166750678
1.5047916493800817,0.01564621916050789,0.021094098705292802,0.010644076718018416,0.04199820206219105,-0.01431854107677081
1.5048631665350083,0.015656872938766518,0.018865561694171768,0.009217644422453899,0.036709916014046204,-0.012585278646890916
1.5049346836899349,0.017286051262519187,0.01732142456229082,0.008230188330603324,0.031255839610663326,-0.010395091566263953
1.5050062008448615,0.019918755698584013,0.017223925586695568,0.007905738300784866,0.026318676288693492,-0.007938287967241007
1.505077717999788,0.022804926807040774,0.019413549101670792,0.009361654152707073,0.022565045604498617,-0.0046507539902468295
1.5051492351547147,0.025289013466251117,0.02429350658257528,0.011726326065843064,0.02510289612541448,-0.0040796982502950664
1.5052207523096413,0.027015644551186973,0.029308215944876537,0.014241445734319206,0.0289641997959413,-0.004113869280471653
1.5052922694645678,0.028012475009877,0.03187782028346381,0.015961322224474977,0.031287582604894816,-0.003962020055133457
1.5053637866194944,0.028596359216805502,0.028652639414715617,0.014919408532213189,0.03099295011784867,-0.0046687633517600085
1.505435303774421,0.02915112616185344,0.022172255702201424,0.013309044659559194,0.02800266225893705,-0.004360764671982362
1.5055068209293476,0.029900153036102176,0.01769318747907815,0.012321918805932341,0.025052832845964466,-0.0035551683976516348
1.5055783380842742,0.030782681811496897,0.017056332036420065,0.01250866989698158,0.023646242430753053,-0.0026225943776095454
1.5056498552392008,0.03146961942071043,0.019400689612653996,0.013496870470295333,0.025251483969016893,-0.002684612500537935
1.5057213723941274,0.03149161794629547,0.02058871829469844,0.013134126432083434,0.02774101158699388,-0.0043621921331262374
1.505792889549054,0.030427310908792447,0.02006049509781045,0.011855838401314541,0.030134835232297076,-0.0067510122155549765
1.5058644067039806,0.02809465201809536,0.017871651943957022,0.009674998552531539,0.0304963899731043,-0.008770209811240244
1.5059359238589072,0.024683284499830333,0.014187541858662965,0.006168765257997816,0.029593057592277313,-0.011195937656388875
1.5060074410138338,0.020766913938386953,0.011919629227838157,0.003987129865862614,0.027674498309373494,-0.011955605710638428
1.5060789581687604,0.017165658691511196,0.013104980860914935,0.004506773893992003,0.025522314734682403,-0.010333362452115498
1.506150475323687,0.014695536880755058,0.015720778807197355,0.005603202541494299,0.024962819484053718,-0.009109882967097699
1.5062219924786135,0.013907828977730352,0.01803762421265205,0.006474304461408025,0.024301168965795084,-0.008017897495793232
1.5062935096335401,0.014929925183180436,0.018585781934819533,0.007024475314287043,0.021175205417900585,-0.005832655112681926
1.5063650267884667,0.01746107614733839,0.017622441722063467,0.006681651925523114,0.01832832549998158,-0.004546543726721627
1.5064365439433933,0.020900617081537138,0.01928458421469963,0.008103902228742074,0.016225927056884776,-0.0021995459667172425
1.50650806109832,0.024545654709518663,0.023553042202185126,0.01119024144466396,0.014305083051098089,0.001435076757346256
1.5065795782532465,0.027795889555703463,0.03085262559688937,0.015188716512202768,0.017939359319891258,0.002764179481017609
1.506651095408173,0.030315638754338018,0.040427669990867256,0.02020329875354711,0.024497788660235525,0.003327755816726605
1.5067226125630997,0.03210575674634778,0.0500108554346832,0.02516307524326057,0.03284267203226587,0.002860730762605785
1.5067941297180263,0.03344435853615213,0.055565882819660774,0.02809340030703321,0.04053437413777906,0.0010602157011705981
1.5068656468729529,0.03469846610783441,0.056126691153953905,0.028836225363534616,0.04513228753400322,-0.0008594632329064228
1.5069371640278795,0.03608805388876267,0.05516312786018873,0.029158238083419115,0.047504866569955506,-0.0019015669217736896
1.507008681182806,0.03753193323000867,0.0549485298242732,0.029645090979329304,0.05014095913955563,-0.0029517825886143916
1.5070801983377327,0.038657419159163646,0.05508288487530816,0.03000532215028713,0.051923376231635364,-0.003636094970419022
1.5071517154926592,0.038950459296790155,0.05379541714036375,0.029635790998015537,0.051974725329383145,-0.003973439410831254
1.5072232326475858,0.03795818995272562,0.04807988955515993,0.026170643808596194,0.051148598376233825,-0.0064130919632257545
1.5072947498025124,0.035465807062779846,0.040832728984945416,0.02167628316777021,0.048873832202808415,-0.008910238740547655
1.507366266957439,0.03160750390290827,0.03481029614236571,0.01779655130545853,0.045839720088497606,-0.010472495456186472
1.5074377841123656,0.02689036393457737,0.02966257663685224,0.014369878001425985,0.04277782278973607,-0.011640144901746923
1.5075093012672922,0.022110982309926926,0.02514968310072979,0.012274203971852665,0.03863614369111873,-0.011099564917880668
1.5075808184222188,0.018158898886019043,0.022227559479601967,0.010838451012952628,0.03650165349824683,-0.011117855400890882
1.5076523355771454,0.015750547010193554,0.020419843920548554,0.009985828883372298,0.03455145230589422,-0.010751471094570033
1.507723852732072,0.015198153002695225,0.017209016624603966,0.008495434228764531,0.030273504742493636,-0.009631090113279738
1.5077953698869986,0.01632710132796861,0.012918082900981603,0.006411917338543193,0.02414984517127947,-0.007986354108435331
1.5078668870419252,0.01858159605132472,0.009822235834976678,0.00521914285473996,0.017656715788301695,-0.0053954183026442195
1.5079384041968518,0.02125563485920751,0.00806321398352315,0.005152249488431391,0.0107844932215583,-0.0016570116174614356
1.5080099213517784,0.023737553869918368,0.008037164306423468,0.0057615299185219465,0.006756123445826955,0.0010748614834124861
1.508081438506705,0.025680396681245936,0.010161078953920828,0.007453924502377228,0.004998737188388055,0.003456228324178824
1.5081529556616315,0.027059576075294776,0.012164680345424351,0.008842952470356694,0.0046956297334329895,0.004781862925697564
1.5082244728165581,0.028112039179855254,0.011489674944901575,0.008942296206187028,0.00397304016263309,0.005263554926903457
1.5082959899714847,0.029172386947160022,0.009329223947760047,0.008780907310022895,0.0034573087749864327,0.005413638714483413
1.5083675071264113,0.03045818310099522,0.00933455911105523,0.010026451111954632,0.003788866632368202,0.006269306157869591
1.508439024281338,0.03190386747651281,0.01350558110215268,0.012747040105629182,0.006294647457886672,0.007155109906744253
1.5085105414362645,0.03314377564440417,0.019680852268210397,0.01600259242207933,0.010997919078892167,0.007274609413809482
1.508582058591191,0.03366149064758627,0.024739650409100353,0.0186299276568245,0.015599499567022956,0.006926693950897743
1.5086535757461177,0.03301661123576188,0.024451998082495357,0.017302793300784304,0.018097820744882042,0.0044404557952575675
1.5087250929010443,0.031031763736761156,0.020169819258264325,0.013978643770450466,0.018422581076949662,0.0014879258802893817
1.5087966100559709,0.02787943173947238,0.014630492076188497,0.009773118861112214,0.016615928520570065,-0.0010226606958737283
1.5088681272108975,0.024071143965329337,0.00953056807871224,0.005405399448016361,0.014980763485325602,-0.003762590836781265
1.508939644365824,0.020368522042175177,0.005505342364052955,0.002619426200917792,0.011973792350644238,-0.004425710210385487
1.5090111615207507,0.017622660517009992,0.003583057603112651,0.001280243020763253,0.010708887017243731,-0.0048440898525503725
1.5090826786756772,0.016549556574789192,0.002989039202675236,0.001094148915450876,0.011051481277983463,-0.0051884034275791946
1.5091541958306038,0.01749078347259404,0.003166271536024716,0.001728275756159572,0.010202561335897857,-0.00419096614590395
1.5092257129855304,0.02026609634215111,0.003950814923474165,0.002622344403247119,0.007651933602376159,-0.0020373596987217158
1.509297230140457,0.024225306810832306,0.007720602351120335,0.005090188490138515,0.005853529277303708,0.00101327771553031
1.5093687472953836,0.028505184243561566,0.016223512411460684,0.010396256019729185,0.00612278139405679,0.00528947698351559
1.5094402644503102,0.032363241212534366,0.027857396928845084,0.017181792517199104,0.00973905325054506,0.008953000666590235
1.5095117816052368,0.035420479974014,0.040575343054623826,0.023785576506019895,0.01586961036968296,0.011079527237052975
1.5095832987601634,0.03772295943106026,0.04998696132266796,0.028541189697550762,0.021087804356186828,0.012169637313483769
1.50965481591509,0.039632532833370364,0.052720491939383864,0.030196375009199177,0.024282441755327462,0.011788971562362154
1.5097263330700166,0.041605230836871475,0.04779895176398807,0.028415936049993602,0.024198084899210225,0.01034884151839682
1.5097978502249432,0.04392716574129624,0.04027675449169023,0.026087173799228647,0.019832245188733312,0.010813856880689619
1.5098693673798698,0.04649881119729661,0.03601363550076745,0.025125670272120693,0.015353632853259877,0.012482560435208486
1.5099408845347964,0.048782229516577,0.03625178098947043,0.025898717163670308,0.014632848772852251,0.013525377350744735
1.510012401689723,0.04998265464348263,0.039265354406047115,0.027970420605425636,0.016002798814516637,0.014498626157247767
1.5100839188446495,0.04939582665258717,0.03967709316214465,0.02744804663090382,0.017520525078421424,0.013225292580847708
1.5101554359995761,0.046726633743720845,0.03688981577765172,0.024915387052692306,0.01820909244104045,0.010731480513541263
1.5102269531545027,0.04221494386441091,0.03370328358815871,0.022036546886626967,0.0181623140177023,0.008354749894841598
1.5102984703094293,0.0365554045951188,0.031786082967456115,0.019143160662124768,0.019351267473640885,0.005284111610282655
1.510369987464356,0.030705701566729478,0.03155819925257457,0.01712115674686206,0.021241924347867713,0.0025532481740915586
1.5104415046192825,0.025671938650474672,0.032576770720557445,0.016152578444133103,0.023521021120124823,0.0004867623777624689
1.510513021774209,0.02230380117340663,0.03413063775414051,0.01595046449902194,0.026538334662788123,-0.0013480213105304347
1.5105845389291357,0.02110478427342222,0.03252944724865159,0.014310671393420193,0.026952457353158387,-0.0029449974729047093
1.5106560560840623,0.022087028251984653,0.02712985750748152,0.011927341615445858,0.022298000342736674,-0.0023630540471537014
1.5107275732389889,0.02474352062355467,0.01857223474122199,0.008315005741078718,0.014951148769043137,-0.001319676673079771
1.5107990903939155,0.028206425428266402,0.01208543267162085,0.006455089330600415,0.007255912843191243,0.0013773343700264346
1.510870607548842,0.03156791810921427,0.009094305855577552,0.006924877381908108,0.001448829937679781,0.004974550661518373
1.5109421247037687,0.034217944840168574,0.009519494504703263,0.0085255112555674,-0.0005636044493922152,0.007420073914433431
1.5110136418586952,0.036025983655989566,0.013108200042389488,0.01161661354179527,0.00010302393373935071,0.009629723890250306
1.5110851590136218,0.03729532439305516,0.014992037162528343,0.013294021431409462,0.0020721971308607654,0.009941716225886394
1.5111566761685484,0.03854470610167679,0.01364500248051501,0.013163190298163863,0.0042898373770480416,0.008608671511562709
1.511228193323475,0.04022460916569971,0.012275054491614406,0.013651672900344249,0.004230983990917543,0.009048535125123356
1.5112997104784016,0.04246467581659284,0.013303255487576172,0.01442102957265151,0.00449246479522995,0.009545855948897102
1.5113712276333282,0.04493429586497486,0.01856768577585099,0.016921655013448497,0.006860953182917742,0.010324353112338903
1.5114427447882548,0.04689231770787431,0.024727495302939547,0.019784155718843215,0.010013492989888408,0.010972398152031881
1.5115142619431814,0.047454803887083834,0.027377320307753323,0.02007376929597759,0.01289925194021079,0.00962153805968942
