freq,gls,usurper,pdc_unbiased,shape_periodogram,shift_periodogram
1.5,0.031605246424144244,0.030797574645459205,0.022003088454338578,0.04167367155095957,-0.012223302315860874
1.5000715171549266,0.028595336453250155,0.024228714160550693,0.01679692217781675,0.03404798552761069,-0.010850700140957181
1.5001430343098532,0.024797888546036324,0.018562763655425786,0.011419584810450916,0.02797233153839646,-0.010658890111471484
1.5002145514647798,0.020789812632417533,0.01665910089145304,0.008796510756732951,0.022721055146769996,-0.009008455898239837
1.5002860686197064,0.017345459787468324,0.019050172815476565,0.009479677332466734,0.020129009156937473,-0.0067437596440965445
1.500357585774633,0.015271945925960987,0.02327492689544573,0.011714688134418397,0.01973253039429874,-0.004835145141465833
1.5004291029295596,0.015165201318802408,0.028283083706771777,0.01415548030345099,0.023607248882712928,-0.005681711487962796
1.5005006200844861,0.01716595655706576,0.03295910469220171,0.016954003693511403,0.02625759162678393,-0.005432630241552153
1.5005721372394127,0.02086274426290797,0.0365569373546274,0.019187221778694714,0.028246749116266505,-0.005148031465042837
1.5006436543943393,0.02544081002802935,0.03974459129454003,0.02137618975240262,0.030444407145848045,-0.005037594965883191
1.500715171549266,0.03000884122307953,0.04322469165281703,0.02421994995090846,0.032111809279601694,-0.004085377725062826
1.5007866887041925,0.03391266896856934,0.0472902418725017,0.02666061786266369,0.038175042956043244,-0.0064212398982209686
1.500858205859119,0.0368882624749449,0.05197421172907731,0.029368029530911475,0.046965068635053196,-0.01041963982744792
1.5009297230140457,0.0390355018056212,0.05721786131941991,0.03287087235373193,0.05864188255915552,-0.015805069400082285
1.5010012401689723,0.04067274274449097,0.059310288713167535,0.0349635290275476,0.0686035031630007,-0.021064058727460276
1.5010727573238989,0.04213722341942038,0.05986171469357033,0.036798409825528795,0.07550442457202701,-0.02442793188645971
1.5011442744788255,0.043587855733941964,0.06011902417461297,0.03793328428010061,0.08174862290588945,-0.0278615971749744
1.501215791633752,0.044880915226329254,0.05988338692249182,0.03824814004694497,0.08607079173764551,-0.030587003006230913
1.5012873087886787,0.045592465454410994,0.06083989396022396,0.03896037083855539,0.0896230484479055,-0.03249441214175983
1.5013588259436053,0.04519857422015515,0.060181135312666854,0.038338310339186395,0.08999923066258865,-0.033210153916706904
1.5014303430985318,0.04331902735671992,0.05659228928224214,0.03525172960142179,0.0888934597255163,-0.03472524700150301
1.5015018602534584,0.03989064242203222,0.048903123229333906,0.029380562295107576,0.0841970240966403,-0.0358289224344374
1.501573377408385,0.035207008956161204,0.03994959374384233,0.02275340008029923,0.07833523266463005,-0.03668842913698977
1.5016448945633116,0.029854908046904056,0.031753093395950394,0.01716592382272006,0.06997869679923481,-0.03507891139191034
1.5017164117182382,0.02460404968418353,0.02485531146340772,0.01272729457488559,0.06066761775991803,-0.03197838834755257
1.5017879288731648,0.020274028275387688,0.020695473549313843,0.010756457121333964,0.05217035002157553,-0.027628053697303787
1.5018594460280914,0.01756978332877583,0.01857983664939152,0.009814843547662735,0.04691540952180673,-0.024736575748185566
1.501930963183018,0.016887968997375314,0.017888595352996094,0.009773529530205848,0.04094806661042919,-0.020701139782956793
1.5020024803379446,0.018154766828972088,0.01681730399948661,0.009545857603491862,0.034837169843294394,-0.016706310017384363
1.5020739974928712,0.020807783027131654,0.017060314333391523,0.00997328939183271,0.029878861174455953,-0.013017209832343862
1.5021455146477978,0.023992628107040868,0.019278108281792532,0.01144212206274167,0.02776892928821157,-0.010503918303620798
1.5022170318027244,0.026898257150269028,0.023590352118729986,0.014028974316248104,0.030260589258647795,-0.0103027448269798
1.502288548957651,0.029041972437567,0.0282295664442519,0.016679671046279716,0.03536494538123655,-0.011833400324777126
1.5023600661125776,0.03036170293294545,0.03338698193970037,0.019990738498687276,0.04282731868217297,-0.014486162975926538
1.5024315832675041,0.031115659296329378,0.03438196102038244,0.02077896981185265,0.04965567620068005,-0.01856057711110856
1.5025031004224307,0.031680428730509906,0.03197973528317835,0.019519808615351825,0.05355780078511639,-0.022145016804384864
1.5025746175773573,0.032340192227813126,0.028688117200579212,0.018649627815208736,0.0540517640204679,-0.023120491923193036
1.502646134732284,0.033131945974426154,0.026240677552794005,0.017871043624403338,0.05186203593325509,-0.022198834768328637
1.5027176518872105,0.033797027787609374,0.025862194214956103,0.01799769758677829,0.05018039314458699,-0.02095949421271288
1.502789169042137,0.033871437590867574,0.02471251037381632,0.017486670760106647,0.04731680677339824,-0.019382726468792723
1.5028606861970637,0.03289397904446062,0.021656015377337908,0.015274482970942199,0.04367442448280187,-0.018523859011438513
1.5029322033519903,0.030638444170610023,0.01797363763749023,0.012011118949132128,0.04020221960920247,-0.018552185540989894
1.5030037205069169,0.02725242384486997,0.015887865020294673,0.009441040885373031,0.037559230219789665,-0.01863680057405511
1.5030752376618435,0.023245599290448483,0.017024493664221072,0.008606550278537486,0.03627672048793156,-0.01837529772516263
1.50314675481677,0.019358366958489085,0.02004422507516111,0.008953985446160287,0.03572240073547609,-0.017743079809646563
1.5032182719716967,0.01638051368297583,0.024005411681406946,0.010426555451109277,0.03540407073706724,-0.016446519681354792
1.5032897891266233,0.01497089818834955,0.027884344452994193,0.012350463029946239,0.03545262366395163,-0.015068668027395062
1.5033613062815498,0.015499460648454992,0.03093420822745662,0.013981854206916533,0.034625423645517836,-0.01330888078747619
1.5034328234364764,0.01793079665045714,0.031129699630789025,0.01416864675154985,0.030735195255007654,-0.010523374458983036
1.503504340591403,0.021792554285279486,0.03022920417388035,0.013806564009865633,0.025445599218515993,-0.007188645521904068
1.5035758577463296,0.026283745634476982,0.032515068936578684,0.015751292513310384,0.02333394624935286,-0.004325289332560276
1.5036473749012562,0.03053094650102892,0.037452512102713595,0.019003856556851165,0.02715816161940157,-0.004541703440684114
1.5037188920561828,0.03389868374654469,0.04424817488477186,0.02304438568669538,0.03635910620570778,-0.007839697456279554
1.5037904092111094,0.03619247413189749,0.0528536045175269,0.02836367437687625,0.04897012597086948,-0.012523730331194442
1.503861926366036,0.03764566473947448,0.05948739631262625,0.03246316988130233,0.062167843562352845,-0.018510169911736006
1.5039334435209626,0.038716510453014726,0.0627970430138151,0.03408384953452373,0.07427585970663536,-0.02558572814864558
1.5040049606758892,0.0398171228344044,0.06454813741311169,0.03557140334761458,0.0833737806367662,-0.03071188183867842
1.5040764778308158,0.041095739566223526,0.06789569232111207,0.037525773851031737,0.09040364046312264,-0.03408545127238511
1.5041479949857424,0.04234364882306056,0.07112126477730171,0.038887791087543686,0.09562581702065054,-0.03666060081235135
1.504219512140669,0.043051695709888996,0.07254195921802456,0.03921573232033744,0.09877967259662886,-0.0385815364934338
1.5042910292955955,0.04260283060723393,0.06834273103761544,0.036347749549566495,0.09833966447929485,-0.040391936232696275
1.5043625464505221,0.04053910287302065,0.05816266150806725,0.030363706364527798,0.09279418168354056,-0.04099330858607848
1.5044340636054487,0.03679439695722014,0.04536769692524686,0.02344001313236871,0.08260365486642698,-0.03910380420529799
1.5045055807603753,0.03178229372791513,0.03409639608456042,0.01698689592080203,0.07306069465642623,-0.03731591400257383
1.504577097915302,0.026296542555493532,0.026261855209689346,0.012446934359831944,0.06411800441757967,-0.03453881982021501
1.5046486150702285,0.021278189004975218,0.023292075476702888,0.011187449324425095,0.05682044833265335,-0.030483068700612907
1.504720132225155,0.017555651134353225,0.022315651175232404,0.011283372248322305,0.05136486966916199,-0.02669249911202782
1.5047916493800817,0.01564621916050789,0.021064442330710205,0.010644076718018416,0.04725379453259911,-0.02435911245162844
1.5048631665350083,0.015656872938766518,0.018687523531660276,0.009217644422453899,0.0412756673094533,-0.021331906545072696
1.5049346836899349,0.017286051262519187,0.01690741953768052,0.008230188330603324,0.034399203297213146,-0.017372793103060256
1.5050062008448615,0.019918755698584013,0.01642829136950041,0.007905738300784866,0.02818842916265904,-0.013382545589647351
1.505077717999788,0.022804926807040774,0.018238636661824813,0.009361654152707073,0.023487836296433886,-0.009115878427620487
1.5051492351547147,0.025289013466251117,0.02280062210563407,0.011726326065843064,0.02619301452276041,-0.009222912602040082
1.5052207523096413,0.027015644551186973,0.027590533651562187,0.014241445734319206,0.03202034673267368,-0.011344851479532157
1.5052922694645678,0.028012475009877,0.03015633734837811,0.015961322224474977,0.036962709663003815,-0.013448378055508112
1.5053637866194944,0.028596359216805502,0.027367662889983435,0.014919408532213189,0.03921278367590155,-0.01574508519910912
1.505435303774421,0.02915112616185344,0.021618929709756103,0.013309044659559194,0.0383885368322896,-0.01636494156157159
1.5055068209293476,0.029900153036102176,0.01756239638910998,0.012321918805932341,0.03699015425350888,-0.01613660354544453
1.5055783380842742,0.030782681811496897,0.017012853607700173,0.01250866989698158,0.03615240976255747,-0.015429152483377792
1.5056498552392008,0.03146961942071043,0.019235326325805484,0.013496870470295333,0.03750642515008252,-0.015626427182359418
1.5057213723941274,0.03149161794629547,0.020373068867018555,0.013134126432083434,0.03930507162440712,-0.017117469290814542
1.505792889549054,0.030427310908792447,0.019929489485488495,0.011855838401314541,0.04003945042846635,-0.01855519902064796
1.5058644067039806,0.02809465201809536,0.01792051786692392,0.009674998552531539,0.03835093218440442,-0.01900442993597805
1.5059359238589072,0.024683284499830333,0.014391040494112382,0.006168765257997816,0.03595172530078425,-0.019941282240725954
1.5060074410138338,0.020766913938386953,0.012168854595039472,0.003987129865862614,0.0329310636703538,-0.01948383658283647
1.5060789581687604,0.017165658691511196,0.013232566380742534,0.004506773893992003,0.029943942613282887,-0.01706937477423744
1.506150475323687,0.014695536880755058,0.015546414701131576,0.005603202541494299,0.02844495582938615,-0.015245251805537622
1.5062219924786135,0.013907828977730352,0.017435742713532147,0.006474304461408025,0.026867257872358597,-0.013532775507676809
1.5062935096335401,0.014929925183180436,0.01763351178834574,0.007024475314287043,0.022613806026603164,-0.010234700037297897
1.5063650267884667,0.01746107614733839,0.01633726633549945,0.006681651925523114,0.01773709235962867,-0.0071677447052173
1.5064365439433933,0.020900617081537138,0.01749768363750754,0.008103902228742074,0.013925585694445122,-0.003531905077965673
1.50650806109832,0.024545654709518663,0.021229390408094403,0.01119024144466396,0.011562606895392194,0.0003384240280524186
1.5065795782532465,0.027795889555703463,0.02800634352839735,0.015188716512202768,0.016141546925097786,0.0001555968444367867
1.506651095408173,0.030315638754338018,0.03701416640533582,0.02020329875354711,0.024704463413514652,-0.0019919450414505936
1.5067226125630997,0.03210575674634778,0.04618356791203628,0.02516307524326057,0.03587939820730107,-0.005957774515453929
1.5067941297180263,0.03344435853615213,0.051628826370318494,0.02809340030703321,0.046270984599944276,-0.01088310173808716
1.5068656468729529,0.03469846610783441,0.0524192005678768,0.028836225363534616,0.05266047805334896,-0.014691841829804413
1.5069371640278795,0.03608805388876267,0.05173248062265685,0.029158238083419115,0.05611178898500917,-0.016808385697934233
1.507008681182806,0.03753193323000867,0.05173152304338322,0.029645090979329304,0.05897645467219711,-0.018404399806174383
1.5070801983377327,0.038657419159163646,0.051969127183937126,0.03000532215028713,0.05965482636696635,-0.018602408230890953
1.5071517154926592,0.038950459296790155,0.050924447595308904,0.029635790998015537,0.058470951197341185,-0.018066425898498252
1.5072232326475858,0.03795818995272562,0.045703372385741944,0.026170643808596194,0.055715309891214065,-0.018732914338254483
1.5072947498025124,0.035465807062779846,0.038979166029072164,0.02167628316777021,0.051120790405058,-0.018900583344513743
1.507366266957439,0.03160750390290827,0.03341718858595658,0.01779655130545853,0.046589816589991145,-0.01865991626420494
1.5074377841123656,0.02689036393457737,0.028668889224410396,0.014369878001425985,0.04291884657147809,-0.018672688423560114
1.5075093012672922,0.022110982309926926,0.02461517500433514,0.012274203971852665,0.03885620917212631,-0.0174424527569975
1.5075808184222188,0.018158898886019043,0.02205552542245428,0.010838451012952628,0.03694800391179698,-0.017195831887655774
1.5076523355771454,0.015750547010193554,0.020436960428167537,0.009985828883372298,0.03511178079658912,-0.016570675954616206
1.507723852732072,0.015198153002695225,0.017272234077172547,0.008495434228764531,0.030499008983881366,-0.014522997059167951
1.5077953698869986,0.01632710132796861,0.012976518160616502,0.006411917338543193,0.023236391711651556,-0.011107467079652584
1.5078668870419252,0.01858159605132472,0.009747298178653503,0.00521914285473996,0.015664689103364614,-0.006829950981219971
1.5079384041968518,0.02125563485920751,0.0077979747324413715,0.005152249488431391,0.008301299657690765,-0.001869802184893461
1.5080099213517784,0.023737553869918368,0.007551762430129402,0.0057615299185219465,0.004788712717938881,0.0009661661076520415
1.508081438506705,0.025680396681245936,0.00947947415771689,0.007453924502377228,0.004711099578336006,0.0022596210968859544
1.5081529556616315,0.027059576075294776,0.01137983460871463,0.008842952470356694,0.007038245097680771,0.0016950177518247032
1.5082244728165581,0.028112039179855254,0.010823779658164353,0.008942296206187028,0.008959914050051497,0.00046071029197764077
1.5082959899714847,0.029172386947160022,0.008969800766523843,0.008780907310022895,0.010358126505680678,-0.0006087194651232814
1.5083675071264113,0.03045818310099522,0.00913615366889341,0.010026451111954632,0.012237441541030639,-0.0009739275097910807
1.508439024281338,0.03190386747651281,0.013110560090407208,0.012747040105629182,0.015857936759990886,-0.001442033899517538
1.5085105414362645,0.03314377564440417,0.018945795610655878,0.01600259242207933,0.020622081695412575,-0.0022957480569719426
1.508582058591191,0.03366149064758627,0.023827744066347144,0.0186299276568245,0.024738996669654054,-0.003169762338644453
1.5086535757461177,0.03301661123576188,0.02363027932615651,0.017302793300784304,0.026198613134770926,-0.005136630507520477
1.5087250929010443,0.031031763736761156,0.019634028245952936,0.013978643770450466,0.02468913763381276,-0.0065476391886790065
1.5087966100559709,0.02787943173947238,0.0143897058065912,0.009773118861112214,0.02070418797613637,-0.006919969474518361
1.5088681272108975,0.024071143965329337,0.009494997408977529,0.005405399448016361,0.017574542728289583,-0.00799279430688416
1.508939644365824,0.020368522042175177,0.005667916803175579,0.002619426200917792,0.014035990211277355,-0.007627672961079618
1.5090111615207507,0.017622660517009992,0.0038933025085851895,0.001280243020763253,0.012391272412695028,-0.007490437798467848
1.5090826786756772,0.016549556574789192,0.003349351041391711,0.001094148915450876,0.01223071217820582,-0.007517622305210448
1.5091541958306038,0.01749078347259404,0.0033672890964558874,0.001728275756159572,0.01061110174613579,-0.00595101117998867
1.5092257129855304,0.02026609634215111,0.003778712876846054,0.002622344403247119,0.007048672768627203,-0.002872299601577936
1.509297230140457,0.024225306810832306,0.0069333229531956,0.005090188490138515,0.0040761788457370236,0.0009586939331725419
1.5093687472953836,0.028505184243561566,0.01455302335800046,0.010396256019729185,0.0038886246295913537,0.00497609501915718
1.5094402644503102,0.032363241212534366,0.025233204417362577,0.017181792517199104,0.008108806070166476,0.007081046785999879
1.5095117816052368,0.035420479974014,0.03706347123883208,0.023785576506019895,0.015896077166453283,0.006628623657518245
1.5095832987601634,0.03772295943106026,0.045877389120347514,0.028541189697550762,0.023190028869942862,0.005157502660350526
1.50965481591509,0.039632532833370364,0.048570666245258826,0.030196375009199177,0.028277947092334894,0.0029114095503710176
1.5097263330700166,0.041605230836871475,0.04420601274340215,0.028415936049993602,0.029478996678120612,0.0007868520704807776
1.5097978502249432,0.04392716574129624,0.03739350257746342,0.026087173799228647,0.0255744049690912,0.0017340211184331943
1.5098693673798698,0.04649881119729661,0.03346990428596634,0.025125670272120693,0.020652995394065208,0.00437638184048586
1.5099408845347964,0.048782229516577,0.03371117776118697,0.025898717163670308,0.018838218554362095,0.0061780961457651405
1.510012401689723,0.04998265464348263,0.03661220620636441,0.027970420605425636,0.018884880002503022,0.007666791682093783
1.5100839188446495,0.04939582665258717,0.03705672972253041,0.02744804663090382,0.018849785510467253,0.007307268108473343
1.5101554359995761,0.046726633743720845,0.03457958570990137,0.024915387052692306,0.017852891262430382,0.006126690622810025
1.5102269531545027,0.04221494386441091,0.031735352166007716,0.022036546886626967,0.016079561232154687,0.005220631979282976
1.5102984703094293,0.0365554045951188,0.030069926374578827,0.019143160662124768,0.016925121844896016,0.0025229481330845153
1.510369987464356,0.030705701566729478,0.030046094986945875,0.01712115674686206,0.01931138855142617,-0.0005835665229460901
1.5104415046192825,0.025671938650474672,0.031251961197701385,0.016152578444133103,0.022612600759679642,-0.0035401108219509816
1.510513021774209,0.02230380117340663,0.03292849588704152,0.01595046449902194,0.026550637953000878,-0.006368203875054499
1.5105845389291357,0.02110478427342222,0.0314580755145942,0.014310671393420193,0.027213274255537864,-0.008021952428574735
1.5106560560840623,0.022087028251984653,0.026373841727206318,0.011927341615445858,0.022165967394263915,-0.006334996690762934
1.5107275732389889,0.02474352062355467,0.01823725035231683,0.008315005741078718,0.013753370054640869,-0.003259974406143353
1.5107990903939155,0.028206425428266402,0.012013595216880897,0.006455089330600415,0.0054542984807877575,0.0010218663859418466
1.510870607548842,0.03156791810921427,0.009144561166377274,0.006924877381908108,0.00012084220624229995,0.00499399030165821
1.5109421247037687,0.034217944840168574,0.009487721818998499,0.0085255112555674,1.7485937101495055e-05,0.0062376485111114936
1.5110136418586952,0.036025983655989566,0.01290580850091973,0.01161661354179527,0.0036704172579558486,0.006019193593606784
1.5110851590136218,0.03729532439305516,0.014728949278552566,0.013294021431409462,0.008633113099972112,0.0038736313574240164
1.5111566761685484,0.03854470610167679,0.013633547237508682,0.013163190298163863,0.013514151460075787,0.00045755384213891874
1.511228193323475,0.04022460916569971,0.012510748813393703,0.013651672900344249,0.015319974751971707,-0.00041268703424295706
1.5112997104784016,0.04246467581659284,0.013408124047893186,0.01442102957265151,0.01633737830779295,-0.000540620714981463
1.5113712276333282,0.04493429586497486,0.018220851207475804,0.016921655013448497,0.018576772020758494,-0.00023011618827471157
1.5114427447882548,0.04689231770787431,0.023862565038570357,0.019784155718843215,0.02062595410687617,0.0004755289494435471
1.5115142619431814,0.047454803887083834,0.026184834315824784,0.02007376929597759,0.02171340013530707,-5.184241344651576e-05
