freq,gls,usurper,pdc_unbiased,shape_periodogram,shift_periodogram
1.5,0.031605246424144244,0.03095415105020274,0.022003088454338578,0.031141043366798,0.004197287990723517
1.5000715171549266,0.028595336453250155,0.024735430789339836,0.01679692217781675,0.025192820669903693,0.00251490915683001
1.5001430343098532,0.024797888546036324,0.0194345729158315,0.011419584810450916,0.02058785951545584,3.4447984867469984e-05
1.5002145514647798,0.020789812632417533,0.017948598166729092,0.008796510756732951,0.01675775100804337,-0.00040862604963638294
1.5002860686197064,0.017345459787468324,0.02067135139454849,0.009479677332466734,0.015398981828001744,0.000846870924377272
1.500357585774633,0.015271945925960987,0.02508528059523469,0.011714688134418397,0.01638525112283626,0.0023262856860471045
1.5004291029295596,0.015165201318802408,0.030346063490037857,0.01415548030345099,0.02050662374959402,0.0024692421046219356
1.5005006200844861,0.01716595655706576,0.03535356209906996,0.016954003693511403,0.023888031635326646,0.003283827460154706
1.5005721372394127,0.02086274426290797,0.03942601967864228,0.019187221778694714,0.026757031154489856,0.0038516631274785767
1.5006436543943393,0.02544081002802935,0.04294280923269416,0.02137618975240262,0.029176422609104344,0.004598644532296208
1.500715171549266,0.03000884122307953,0.04673270174892091,0.02421994995090846,0.030421075997219823,0.0064881826672881435
1.5007866887041925,0.03391266896856934,0.051100071272132695,0.02666061786266369,0.03468258639544041,0.006565507329295995
1.500858205859119,0.0368882624749449,0.056068161420508696,0.029368029530911475,0.0405425371172369,0.006103827781339805
1.5009297230140457,0.0390355018056212,0.061415266162206425,0.03287087235373193,0.04785993726182334,0.0056352159920166674
1.5010012401689723,0.04067274274449097,0.0632958065721951,0.0349635290275476,0.053683913893141595,0.004652485699427015
1.5010727573238989,0.04213722341942038,0.06333262309081744,0.036798409825528795,0.05687038217921096,0.004720759581345015
1.5011442744788255,0.043587855733941964,0.06307972536021626,0.03793328428010061,0.05948804287567233,0.0044498883820345714
1.501215791633752,0.044880915226329254,0.062361444655295875,0.03824814004694497,0.061879164538096575,0.0035681999478460284
1.5012873087886787,0.045592465454410994,0.06319331025499525,0.03896037083855539,0.06480345315628364,0.0027771682189651923
1.5013588259436053,0.04519857422015515,0.0626394915729894,0.038338310339186395,0.06502002481683444,0.0021254204710003284
1.5014303430985318,0.04331902735671992,0.05927926287765256,0.03525172960142179,0.06476276505525105,-0.00046238976876931433
1.5015018602534584,0.03989064242203222,0.05188796172911788,0.029380562295107576,0.0621533917788859,-0.004353786840045892
1.501573377408385,0.035207008956161204,0.043073541946556756,0.02275340008029923,0.05878755448464972,-0.008537377045521616
1.5016448945633116,0.029854908046904056,0.03494669414842718,0.01716592382272006,0.053339021775080514,-0.010794649297890101
1.5017164117182382,0.02460404968418353,0.027947090052309335,0.01272729457488559,0.0470965389784657,-0.011657853632854678
1.5017879288731648,0.020274028275387688,0.02351426733554143,0.010756457121333964,0.04192097240124428,-0.010875884471982327
1.5018594460280914,0.01756978332877583,0.021071232833083115,0.009814843547662735,0.03914240919253294,-0.01035429135252225
1.501930963183018,0.016887968997375314,0.02009583100222151,0.009773529530205848,0.036336810466682336,-0.0090313228278713
1.5020024803379446,0.018154766828972088,0.01877914548562497,0.009545857603491862,0.03349665842228586,-0.00785511053760039
1.5020739974928712,0.020807783027131654,0.01884930771997295,0.00997328939183271,0.03150929654217164,-0.006518425913411903
1.5021455146477978,0.023992628107040868,0.02112180919439619,0.01144212206274167,0.03137924835012718,-0.0051691740292122085
1.5022170318027244,0.026898257150269028,0.0254771012159935,0.014028974316248104,0.033337764327800765,-0.0038518270973752653
1.502288548957651,0.029041972437567,0.03023758512445856,0.016679671046279716,0.036403935917096404,-0.0030144539025721033
1.5023600661125776,0.03036170293294545,0.03548186051383243,0.019990738498687276,0.04001311718739622,-0.0018608333057699318
1.5024315832675041,0.031115659296329378,0.0363999377923119,0.02077896981185265,0.042776619437967914,-0.0025083410434876877
1.5025031004224307,0.031680428730509906,0.033572916879101376,0.019519808615351825,0.04304709817811659,-0.0037430168679511012
1.5025746175773573,0.032340192227813126,0.029547229410620747,0.018649627815208736,0.04024354744242695,-0.0031477322954058663
1.502646134732284,0.033131945974426154,0.02648091675754942,0.017871043624403338,0.036391941911432316,-0.0019648331581335796
1.5027176518872105,0.033797027787609374,0.025892064322677343,0.01799769758677829,0.034626856800735004,-0.0009992888982677762
1.502789169042137,0.033871437590867574,0.024654309635793327,0.017486670760106647,0.03201867948828665,-0.00018440157922727053
1.5028606861970637,0.03289397904446062,0.02165230280326218,0.015274482970942199,0.029226009404035892,-0.0007703850531445277
1.5029322033519903,0.030638444170610023,0.018181062129809602,0.012011118949132128,0.02689649750585597,-0.0025007658840272475
1.5030037205069169,0.02725242384486997,0.016422562641428173,0.009441040885373031,0.02520357401995348,-0.00393172077597977
1.5030752376618435,0.023245599290448483,0.01802654046056114,0.008606550278537486,0.024711937419105726,-0.004424374540652866
1.50314675481677,0.019358366958489085,0.021491723991344223,0.008953985446160287,0.024600084286411777,-0.004066045991815247
1.5032182719716967,0.01638051368297583,0.025720978926339937,0.010426555451109277,0.02492874792225676,-0.0029358118223633974
1.5032897891266233,0.01497089818834955,0.02962502808930129,0.012350463029946239,0.025610845634802374,-0.0015813353287779351
1.5033613062815498,0.015499460648454992,0.03276595575114401,0.013981854206916533,0.02565798842463546,-0.00017555297288960144
1.5034328234364764,0.01793079665045714,0.033060800677362015,0.01416864675154985,0.023136186357242853,0.0012083989329758156
1.503504340591403,0.021792554285279486,0.03220162279407998,0.013806564009865633,0.019821229358469934,0.002495352407533907
1.5035758577463296,0.026283745634476982,0.03450494233635364,0.015751292513310384,0.019780438329531427,0.004217936430061145
1.5036473749012562,0.03053094650102892,0.03950071714197606,0.019003856556851165,0.024064407330439557,0.004993820842367923
1.5037188920561828,0.03389868374654469,0.046456734777000755,0.02304438568669538,0.03162611158805303,0.004875009845189002
1.5037904092111094,0.03619247413189749,0.055404242157741236,0.02836367437687625,0.03963003498130185,0.00566465961524391
1.503861926366036,0.03764566473947448,0.062284540753121356,0.03246316988130233,0.04707253793276253,0.005658588602134974
1.5039334435209626,0.038716510453014726,0.06567297023613713,0.03408384953452373,0.053920074431099266,0.0037657687304896
1.5040049606758892,0.0398171228344044,0.06727467001867872,0.03557140334761458,0.0586411350278937,0.002785302277877249
1.5040764778308158,0.041095739566223526,0.07058140821069779,0.037525773851031737,0.06289608832529762,0.002440659336576779
1.5041479949857424,0.04234364882306056,0.07394336110986449,0.038887791087543686,0.0674877045695924,0.0014122560054514214
1.504219512140669,0.043051695709888996,0.07551324085302008,0.03921573232033744,0.07120697386651843,-0.00010293842506367699
1.5042910292955955,0.04260283060723393,0.07146748148876352,0.036347749549566495,0.07231944473078171,-0.0031645450649774166
1.5043625464505221,0.04053910287302065,0.06127329601652135,0.030363706364527798,0.06942517670374852,-0.007018677137662443
1.5044340636054487,0.03679439695722014,0.04827116120581533,0.02344001313236871,0.06218262346036332,-0.009582168265025115
1.5045055807603753,0.03178229372791513,0.03678197772657833,0.01698689592080203,0.05522102441593498,-0.011864441753955615
1.504577097915302,0.026296542555493532,0.028771095908815592,0.012446934359831944,0.04901915671185583,-0.012835667885445552
1.5046486150702285,0.021278189004975218,0.025562508011294862,0.011187449324425095,0.04407162395125639,-0.011540632072294667
1.504720132225155,0.017555651134353225,0.02413392238466719,0.011283372248322305,0.04066939795013506,-0.009807869715388858
1.5047916493800817,0.01564621916050789,0.022449098083213527,0.010644076718018416,0.03839621044874008,-0.009266494671676197
1.5048631665350083,0.015656872938766518,0.019813427476869264,0.009217644422453899,0.03503894783673543,-0.008889493992902718
1.5049346836899349,0.017286051262519187,0.017957161558583134,0.008230188330603324,0.03072843787587126,-0.007666659592380055
1.5050062008448615,0.019918755698584013,0.017522707196624708,0.007905738300784866,0.02720164931334464,-0.006243174738122951
1.505077717999788,0.022804926807040774,0.01931454755092485,0.009361654152707073,0.024568443195813274,-0.0036938029598500423
1.5051492351547147,0.025289013466251117,0.02399286807432345,0.011726326065843064,0.027441998629032523,-0.0030142009270536234
1.5052207523096413,0.027015644551186973,0.028926117187510016,0.014241445734319206,0.03145506119786289,-0.0027542103312224037
1.5052922694645678,0.028012475009877,0.03148380970013715,0.015961322224474977,0.033034310400590856,-0.0020122763632252597
1.5053637866194944,0.028596359216805502,0.028584652849529393,0.014919408532213189,0.03166847790437249,-0.0022637102818299274
1.505435303774421,0.02915112616185344,0.02228949296626127,0.013309044659559194,0.027160035429844177,-0.0014917263912988836
1.5055068209293476,0.029900153036102176,0.01763382304312539,0.012321918805932341,0.02321708774846369,-0.000447827937628762
1.5055783380842742,0.030782681811496897,0.016770930985493666,0.01250866989698158,0.021306129770490772,0.0006404365056852486
1.5056498552392008,0.03146961942071043,0.01900661507042861,0.013496870470295333,0.0223758318643466,0.00098808891644114
1.5057213723941274,0.03149161794629547,0.020348953341854437,0.013134126432083434,0.02422919009538962,-0.00022642825303663216
1.505792889549054,0.030427310908792447,0.020288898074335548,0.011855838401314541,0.02596866912447015,-0.0021876461196910454
1.5058644067039806,0.02809465201809536,0.01869251253374957,0.009674998552531539,0.02567173059458665,-0.0039534851979445345
1.5059359238589072,0.024683284499830333,0.01557863519516811,0.006168765257997816,0.024349554164894986,-0.006383182975967486
1.5060074410138338,0.020766913938386953,0.013622353993267168,0.003987129865862614,0.022593623274482468,-0.007442992575166781
1.5060789581687604,0.017165658691511196,0.014751501877751545,0.004506773893992003,0.02044315421292059,-0.005947247208869689
1.506150475323687,0.014695536880755058,0.016972537623833557,0.005603202541494299,0.019687657387833693,-0.004621838887185387
1.5062219924786135,0.013907828977730352,0.01868528841423491,0.006474304461408025,0.019136580955895113,-0.0035926048846682533
1.5062935096335401,0.014929925183180436,0.0186513167180258,0.007024475314287043,0.016083587035672604,-0.0016336121518468196
1.5063650267884667,0.01746107614733839,0.01709089421391809,0.006681651925523114,0.013047760433503065,-0.0004647647723213059
1.5064365439433933,0.020900617081537138,0.018030862819651876,0.008103902228742074,0.010969791768558,0.0017855250188051302
1.50650806109832,0.024545654709518663,0.021753670560854834,0.01119024144466396,0.009281489802940647,0.00530385312072565
1.5065795782532465,0.027795889555703463,0.02870436651944306,0.015188716512202768,0.012312630172313918,0.00733789610495118
1.506651095408173,0.030315638754338018,0.03802104466437394,0.02020329875354711,0.017656896648295298,0.009143761461569923
1.5067226125630997,0.03210575674634778,0.04765743659041349,0.02516307524326057,0.024763412021140005,0.010051223679359535
1.5067941297180263,0.03344435853615213,0.05337218089134206,0.02809340030703321,0.03177873991652381,0.00922619750458884
1.5068656468729529,0.03469846610783441,0.054088881908756985,0.028836225363534616,0.03539004538792199,0.008130503526462655
1.5069371640278795,0.03608805388876267,0.053123951096492136,0.029158238083419115,0.0366363072662566,0.007809917987007678
1.507008681182806,0.03753193323000867,0.052917571961078734,0.029645090979329304,0.038241701977060547,0.007460110155848617
1.5070801983377327,0.038657419159163646,0.05307359471109712,0.03000532215028713,0.03957315715658354,0.007131796771471995
1.5071517154926592,0.038950459296790155,0.05200788470703806,0.029635790998015537,0.03952404054621347,0.006831495007398388
1.5072232326475858,0.03795818995272562,0.04700780000019041,0.026170643808596194,0.03900703885164216,0.0040433117679505555
1.5072947498025124,0.035465807062779846,0.04055978614017911,0.02167628316777021,0.037372441642733636,0.0008949502183546471
1.507366266957439,0.03160750390290827,0.03531015598803075,0.01779655130545853,0.035106875359590575,-0.00140791287522907
1.5074377841123656,0.02689036393457737,0.03074666773927621,0.014369878001425985,0.03335188342508595,-0.0035600614137633086
1.5075093012672922,0.022110982309926926,0.02654154542516872,0.012274203971852665,0.030796198438133086,-0.0041581804374456015
1.5075808184222188,0.018158898886019043,0.023688969500150276,0.010838451012952628,0.029996055231589252,-0.005028127304878307
1.5076523355771454,0.015750547010193554,0.021724415077499375,0.009985828883372298,0.029047712768032044,-0.00531560724161056
1.507723852732072,0.015198153002695225,0.01825073693927855,0.008495434228764531,0.025661455645797436,-0.004981278623329361
1.5077953698869986,0.01632710132796861,0.013771281583009373,0.006411917338543193,0.020568226023067564,-0.004340079608139074
1.5078668870419252,0.01858159605132472,0.010425647657401149,0.00521914285473996,0.015129341571260752,-0.0027521228210416514
1.5079384041968518,0.02125563485920751,0.00830561793187967,0.005152249488431391,0.009533711621554948,-0.00010320721170085658
1.5080099213517784,0.023737553869918368,0.007874025758104112,0.0057615299185219465,0.006206576842797379,0.0020397512130910568
1.508081438506705,0.025680396681245936,0.009825263775401341,0.007453924502377228,0.004409329692119802,0.004390469128595263
1.5081529556616315,0.027059576075294776,0.011858912738830149,0.008842952470356694,0.0037637698801728948,0.005918497860905884
1.5082244728165581,0.028112039179855254,0.011249652899324813,0.008942296206187028,0.002940277979726703,0.006403814626644552
1.5082959899714847,0.029172386947160022,0.009129619842137374,0.008780907310022895,0.0021476516675189745,0.006645998034990691
1.5083675071264113,0.03045818310099522,0.008922489929105762,0.010026451111954632,0.0022689333140744282,0.007677465575813546
1.508439024281338,0.03190386747651281,0.012678050914192244,0.012747040105629182,0.004712902676426015,0.008876497996420391
1.5085105414362645,0.03314377564440417,0.018564523121022705,0.01600259242207933,0.00907481839624276,0.009616486842701595
1.508582058591191,0.03366149064758627,0.023591399742452748,0.0186299276568245,0.012581077824455115,0.010220909965860302
1.5086535757461177,0.03301661123576188,0.023836379137141595,0.017302793300784304,0.01425738585533131,0.008248153132555967
1.5087250929010443,0.031031763736761156,0.02022837824709778,0.013978643770450466,0.013953149029829939,0.00548493865219583
1.5087966100559709,0.02787943173947238,0.015316376624740563,0.009773118861112214,0.011561871933032989,0.0029601962842783643
1.5088681272108975,0.024071143965329337,0.010733177904475233,0.005405399448016361,0.009927452871386168,-7.21370235270414e-05
1.508939644365824,0.020368522042175177,0.007032280143298005,0.002619426200917792,0.007393708390197023,-0.0012846302441129713
1.5090111615207507,0.017622660517009992,0.005094342996150968,0.001280243020763253,0.0061658613531058145,-0.0018626287717428203
1.5090826786756772,0.016549556574789192,0.0041636192836248965,0.001094148915450876,0.006650984445052145,-0.0022602090131637696
1.5091541958306038,0.01749078347259404,0.00378230672562227,0.001728275756159572,0.006030237777577975,-0.0014048959898859007
1.5092257129855304,0.02026609634215111,0.0040054267300852564,0.002622344403247119,0.0034275562758221433,0.0006367829451323026
1.509297230140457,0.024225306810832306,0.007213600176719029,0.005090188490138515,0.0013244980180552133,0.0038140681167164792
1.5093687472953836,0.028505184243561566,0.01494637400825514,0.010396256019729185,0.0016234678768189857,0.008313367587234482
1.5094402644503102,0.032363241212534366,0.025850671294517766,0.017181792517199104,0.0051105352054347615,0.012566062396577553
1.5095117816052368,0.035420479974014,0.038057669835771316,0.023785576506019895,0.010378318662386265,0.01580038298463789
1.5095832987601634,0.03772295943106026,0.047090983238457715,0.028541189697550762,0.014581972492861046,0.01793310428151956
1.50965481591509,0.039632532833370364,0.04975661540295282,0.030196375009199177,0.017063550103295886,0.01818359715317205
1.5097263330700166,0.041605230836871475,0.04512564184544984,0.028415936049993602,0.01629179596432354,0.016996917826668206
1.5097978502249432,0.04392716574129624,0.03779445611783074,0.026087173799228647,0.011192132445393623,0.017422419861939865
1.5098693673798698,0.04649881119729661,0.033305466772538095,0.025125670272120693,0.006447774669640543,0.018874003856070003
1.5099408845347964,0.048782229516577,0.03312147434811121,0.025898717163670308,0.006190637581741924,0.019675160060341562
1.510012401689723,0.04998265464348263,0.035874635622130106,0.027970420605425636,0.008036139260333051,0.020597121813341855
1.5100839188446495,0.04939582665258717,0.03646505599152489,0.02744804663090382,0.009731303454702491,0.019320318150294467
1.5101554359995761,0.046726633743720845,0.034349166795002835,0.024915387052692306,0.010130744795168333,0.016909397278161348
1.5102269531545027,0.04221494386441091,0.03186302639821669,0.022036546886626967,0.010062684799700593,0.014421517754594925
1.5102984703094293,0.0365554045951188,0.03071752967812199,0.019143160662124768,0.011731902058895417,0.011080959010677368
1.510369987464356,0.030705701566729478,0.03129611795032139,0.01712115674686206,0.014763109830006607,0.007844504826938896
1.5104415046192825,0.025671938650474672,0.03301807403632708,0.016152578444133103,0.01794949790556054,0.005455085161432894
1.510513021774209,0.02230380117340663,0.03498738183732526,0.01595046449902194,0.021740132031519376,0.003444220738662229
1.5105845389291357,0.02110478427342222,0.03370816076919402,0.014310671393420193,0.02309925534230923,0.0013506374993855627
1.5106560560840623,0.022087028251984653,0.028504448401378776,0.011927341615445858,0.01927914316417724,0.0011122717019582456
1.5107275732389889,0.02474352062355467,0.020100001786977642,0.008315005741078718,0.012537081794013428,0.0012120330432013068
1.5107990903939155,0.028206425428266402,0.013555895756609426,0.006455089330600415,0.005471608092777555,0.003002347565533183
1.510870607548842,0.03156791810921427,0.010380215462211899,0.006924877381908108,0.00042034481204409387,0.0058571899950009484
1.5109421247037687,0.034217944840168574,0.010563494822496187,0.0085255112555674,-0.0011925536746556463,0.008038322074398328
1.5110136418586952,0.036025983655989566,0.013909691833718084,0.01161661354179527,-0.000711920888816492,0.010511150849408029
1.5110851590136218,0.03729532439305516,0.01563203969984839,0.013294021431409462,0.0008667764869784987,0.011215629302399237
1.5111566761685484,0.03854470610167679,0.014393047288603997,0.013163190298163863,0.002571028558955207,0.010276775162176595
1.511228193323475,0.04022460916569971,0.013091416554257333,0.013651672900344249,0.001920042106068286,0.011019206971567896
1.5112997104784016,0.04246467581659284,0.013803473702534095,0.01442102957265151,0.0015694184714682515,0.011862190999255139
1.5113712276333282,0.04493429586497486,0.018621958040784998,0.016921655013448497,0.0034272671501714602,0.013152427708202767
1.5114427447882548,0.04689231770787431,0.024334823277466833,0.019784155718843215,0.006373328759291914,0.014233502096455762
1.5115142619431814,0.047454803887083834,0.026738110354181475,0.02007376929597759,0.009471311394636158,0.012988954836432623
