freq,gls,usurper,pdc_unbiased,shape_periodogram,shift_periodogram
1.5,0.031605246424144244,0.0320849607358399,0.022003088454338578,0.038747996486210134,-0.004346084649619682
1.5000715171549266,0.028595336453250155,0.025544197015916984,0.01679692217781675,0.031354138643367536,-0.00434127440516509
1.5001430343098532,0.024797888546036324,0.019896189787638355,0.011419584810450916,0.02556403975208373,-0.005400189918367302
1.5002145514647798,0.020789812632417533,0.018003820277178097,0.008796510756732951,0.02045943384838457,-0.004601831575937268
1.5002860686197064,0.017345459787468324,0.02042634365239658,0.009479677332466734,0.018000850713150725,-0.0026261264884702693
1.500357585774633,0.015271945925960987,0.024732978486971348,0.011714688134418397,0.01786613132481389,-0.0007213015131501128
1.5004291029295596,0.015165201318802408,0.030088113897097188,0.01415548030345099,0.021670718707886512,-0.0009186230988633843
1.5005006200844861,0.01716595655706576,0.03515879897162583,0.016954003693511403,0.02419098087562283,-8.284294468919118e-05
1.5005721372394127,0.02086274426290797,0.03921374575092269,0.019187221778694714,0.025682773242157588,0.000883803358544377
1.5006436543943393,0.02544081002802935,0.042736561357373894,0.02137618975240262,0.02680220721422725,0.0020291940147368925
1.500715171549266,0.03000884122307953,0.04667728559714371,0.02421994995090846,0.027678641572154966,0.003850750951630733
1.5007866887041925,0.03391266896856934,0.051336648812105784,0.02666061786266369,0.0330515402624651,0.0027511366126749337
1.500858205859119,0.0368882624749449,0.056680947381317334,0.029368029530911475,0.0411602687579193,0.0002923159708393563
1.5009297230140457,0.0390355018056212,0.062476680465862064,0.03287087235373193,0.05199203550406862,-0.003087249695303644
1.5010012401689723,0.04067274274449097,0.0648138929414745,0.0349635290275476,0.0617733228952976,-0.007019814304245971
1.5010727573238989,0.04213722341942038,0.06519141359712975,0.036798409825528795,0.06895606132791327,-0.00966588134052668
1.5011442744788255,0.043587855733941964,0.06520557017185138,0.03793328428010061,0.07492945123557689,-0.01218955773943637
1.501215791633752,0.044880915226329254,0.06466350563921103,0.03824814004694497,0.07900048831545438,-0.014287542366955475
1.5012873087886787,0.045592465454410994,0.06552335113289579,0.03896037083855539,0.08232392898538825,-0.015627312593415484
1.5013588259436053,0.04519857422015515,0.06483288111779802,0.038338310339186395,0.08216589988296097,-0.016046827021128973
1.5014303430985318,0.04331902735671992,0.061261172684323066,0.03525172960142179,0.08031144922578143,-0.017507501067244424
1.5015018602534584,0.03989064242203222,0.05365741229547554,0.029380562295107576,0.07571701433757196,-0.019664437659191136
1.501573377408385,0.035207008956161204,0.04450198921938537,0.02275340008029923,0.0701252797745685,-0.02185967278333799
1.5016448945633116,0.029854908046904056,0.03601360453850803,0.01716592382272006,0.06249193251791227,-0.022019044601397402
1.5017164117182382,0.02460404968418353,0.02868681696025102,0.01272729457488559,0.054252064558824545,-0.02088786614949365
1.5017879288731648,0.020274028275387688,0.023952309839566092,0.010756457121333964,0.046892636704366594,-0.018248673755595666
1.5018594460280914,0.01756978332877583,0.021400841911006996,0.009814843547662735,0.042512951549998707,-0.01649007364123628
1.501930963183018,0.016887968997375314,0.02028651676864,0.009773529530205848,0.0371706488000926,-0.013440627283510961
1.5020024803379446,0.018154766828972088,0.018828591356675597,0.009545857603491862,0.03155386243168625,-0.010386456975009156
1.5020739974928712,0.020807783027131654,0.01889291796369289,0.00997328939183271,0.026969752819631786,-0.007393264025165097
1.5021455146477978,0.023992628107040868,0.02131106690224099,0.01144212206274167,0.024758384054527013,-0.0049172520436590724
1.5022170318027244,0.026898257150269028,0.025948629876072188,0.014028974316248104,0.026601449171873234,-0.0038646099526820285
1.502288548957651,0.029041972437567,0.031154051751249117,0.016679671046279716,0.031280141417895854,-0.004394510957843732
1.5023600661125776,0.03036170293294545,0.036896972679034544,0.019990738498687276,0.03800005668051039,-0.005561472796643484
1.5024315832675041,0.031115659296329378,0.03820597598768561,0.02077896981185265,0.04455411096350383,-0.008698182510956411
1.5025031004224307,0.031680428730509906,0.03568851287873745,0.019519808615351825,0.04880470720286999,-0.01218267643465567
1.5025746175773573,0.032340192227813126,0.031876301048293865,0.018649627815208736,0.049480486881476535,-0.013285147829384282
1.502646134732284,0.033131945974426154,0.02876483111994759,0.017871043624403338,0.04745591595706687,-0.012753296041624418
1.5027176518872105,0.033797027787609374,0.027969118318026613,0.01799769758677829,0.0460336428976115,-0.0118285004445397
1.502789169042137,0.033871437590867574,0.02648596142345495,0.017486670760106647,0.043095270744575254,-0.010550537309676103
1.5028606861970637,0.03289397904446062,0.023177608178321756,0.015274482970942199,0.039451526125851955,-0.010257634888806702
1.5029322033519903,0.030638444170610023,0.019444485115536272,0.012011118949132128,0.036024358106822335,-0.01094941399509373
1.5030037205069169,0.02725242384486997,0.017461756985134802,0.009441040885373031,0.033415633949353825,-0.011546085486177736
1.5030752376618435,0.023245599290448483,0.018944020727654068,0.008606550278537486,0.03241954475318282,-0.011653799829416514
1.50314675481677,0.019358366958489085,0.02231574150026353,0.008953985446160287,0.03192493087592698,-0.011084425158049699
1.5032182719716967,0.01638051368297583,0.026545947065655554,0.010426555451109277,0.031649924863660334,-0.009721749710510812
1.5032897891266233,0.01497089818834955,0.03053835063142434,0.012350463029946239,0.03154550286943389,-0.008088289197906337
1.5033613062815498,0.015499460648454992,0.033645433512975144,0.013981854206916533,0.030138393634641377,-0.005942630455522854
1.5034328234364764,0.01793079665045714,0.03384562624419397,0.01416864675154985,0.025814295942798722,-0.0032965546389014683
1.503504340591403,0.021792554285279486,0.03288157747993083,0.013806564009865633,0.020241746390551728,-0.0003802462247577212
1.5035758577463296,0.026283745634476982,0.0351703222362003,0.015751292513310384,0.017862405916791703,0.002581249201317393
1.5036473749012562,0.03053094650102892,0.04041012063523784,0.019003856556851165,0.02155077969401053,0.003115436468528121
1.5037188920561828,0.03389868374654469,0.04775393579127263,0.02304438568669538,0.030704853398326536,0.0011443758140075179
1.5037904092111094,0.03619247413189749,0.05731185025133345,0.02836367437687625,0.04258113857006118,-0.001349806979164646
1.503861926366036,0.03764566473947448,0.06481758154230244,0.03246316988130233,0.0547416545082267,-0.005008798554481415
1.5039334435209626,0.038716510453014726,0.06874937703682268,0.03408384953452373,0.06624987984481086,-0.010328651099237007
1.5040049606758892,0.0398171228344044,0.07080602336752408,0.03557140334761458,0.07515161431948778,-0.01425727723755231
1.5040764778308158,0.041095739566223526,0.07431624499209447,0.037525773851031737,0.08182805086504766,-0.016518570192850822
1.5041479949857424,0.04234364882306056,0.07760039427553854,0.038887791087543686,0.08659857027287908,-0.0181642313340008
1.504219512140669,0.043051695709888996,0.07888324704182023,0.03921573232033744,0.08904134128254373,-0.019311172566588236
1.5042910292955955,0.04260283060723393,0.07437324098600005,0.036347749549566495,0.0881784905500204,-0.021167456803636624
1.5043625464505221,0.04053910287302065,0.06363039062495578,0.030363706364527798,0.08312557817753473,-0.02315051072704038
1.5044340636054487,0.03679439695722014,0.050038728923425355,0.02344001313236871,0.07407376877451938,-0.023583132692004478
1.5045055807603753,0.03178229372791513,0.03803370896613853,0.01698689592080203,0.06588097623924634,-0.024126130798364905
1.504577097915302,0.026296542555493532,0.029588417739764318,0.012446934359831944,0.05812685876177922,-0.02335690283165854
1.5046486150702285,0.021278189004975218,0.026100989247328076,0.011187449324425095,0.05188878371436811,-0.02078199499306181
1.504720132225155,0.017555651134353225,0.024623365667973178,0.011283372248322305,0.04739602929352369,-0.01810840672131701
1.5047916493800817,0.01564621916050789,0.022902554714278427,0.010644076718018416,0.04356773139374486,-0.0164208225534775
1.5048631665350083,0.015656872938766518,0.020253180469965618,0.009217644422453899,0.03788246041487681,-0.014305918205730832
1.5049346836899349,0.017286051262519187,0.01839966883837898,0.008230188330603324,0.03095923091114868,-0.011119186481260718
1.5050062008448615,0.019918755698584013,0.018036203571620578,0.007905738300784866,0.02475675241227696,-0.007807565657485807
1.505077717999788,0.022804926807040774,0.020107797503975452,0.009361654152707073,0.02041409235072019,-0.004113685590396398
1.5051492351547147,0.025289013466251117,0.02516290069508009,0.011726326065843064,0.02363760830821435,-0.004038712735503223
1.5052207523096413,0.027015644551186973,0.0306493584419121,0.014241445734319206,0.030083535911707454,-0.005698693088092922
1.5052922694645678,0.028012475009877,0.0338115457747216,0.015961322224474977,0.03522424577254626,-0.0072569051520441925
1.5053637866194944,0.028596359216805502,0.03128512887841807,0.014919408532213189,0.03773955434064739,-0.00956028664172182
1.505435303774421,0.02915112616185344,0.0251562695194803,0.013309044659559194,0.03716939352804604,-0.010548523166024283
1.5055068209293476,0.029900153036102176,0.020534551847622463,0.012321918805932341,0.03588255519252082,-0.010613423240988141
1.5055783380842742,0.030782681811496897,0.019526835188688575,0.01250866989698158,0.03496499708060368,-0.009931346319736321
1.5056498552392008,0.03146961942071043,0.02142518867291867,0.013496870470295333,0.03561093927576969,-0.009495777601133303
1.5057213723941274,0.03149161794629547,0.022418866583406968,0.013134126432083434,0.036262828654513385,-0.010168545294187531
1.505792889549054,0.030427310908792447,0.021991396765494924,0.011855838401314541,0.03613300833330983,-0.011139089580724274
1.5058644067039806,0.02809465201809536,0.019982062102442754,0.009674998552531539,0.033897039817185726,-0.011632496043252234
1.5059359238589072,0.024683284499830333,0.016573690565814116,0.006168765257997816,0.031572316515428314,-0.01315811455553284
1.5060074410138338,0.020766913938386953,0.014410919182628547,0.003987129865862614,0.02886900711989105,-0.013382258288828936
1.5060789581687604,0.017165658691511196,0.015477162222311555,0.004506773893992003,0.026095389900919738,-0.011357959984965995
1.506150475323687,0.014695536880755058,0.017828114722075326,0.005603202541494299,0.024763365715173017,-0.009693633774322826
1.5062219924786135,0.013907828977730352,0.019756189047314,0.006474304461408025,0.02361044521580906,-0.008316797236408732
1.5062935096335401,0.014929925183180436,0.01978737334478073,0.007024475314287043,0.01954730761740654,-0.005524600913166704
1.5063650267884667,0.01746107614733839,0.018192505184071905,0.006681651925523114,0.014644847729355157,-0.0029789775547340927
1.5064365439433933,0.020900617081537138,0.0190914706194811,0.008103902228742074,0.010563063682319464,0.0005360190737049856
1.50650806109832,0.024545654709518663,0.02296246993258511,0.01119024144466396,0.007740986023908759,0.004685053367120567
1.5065795782532465,0.027795889555703463,0.030280959416125602,0.015188716512202768,0.011730686302849184,0.0056547517757808375
1.506651095408173,0.030315638754338018,0.04014879141495813,0.02020329875354711,0.01974594459273439,0.00513655743689853
1.5067226125630997,0.03210575674634778,0.05037339661736135,0.02516307524326057,0.030192557792175386,0.0031735158590453605
1.5067941297180263,0.03344435853615213,0.05655205030274352,0.02809340030703321,0.04031527873846847,-0.00026419370208714826
1.5068656468729529,0.03469846610783441,0.05751744916931242,0.028836225363534616,0.046825143143327544,-0.003411339172735683
1.5069371640278795,0.03608805388876267,0.05668868897968155,0.029158238083419115,0.050543528646576075,-0.00529361292445737
1.507008681182806,0.03753193323000867,0.056396696019991706,0.029645090979329304,0.053461822926983635,-0.006579520400521757
1.5070801983377327,0.038657419159163646,0.05624079601166098,0.03000532215028713,0.053968406693537155,-0.0065768313584492
1.5071517154926592,0.038950459296790155,0.054711136347958,0.029635790998015537,0.05248465754127156,-0.006022942258778859
1.5072232326475858,0.03795818995272562,0.04914231532806881,0.026170643808596194,0.04984306726759579,-0.0073366285318224615
1.5072947498025124,0.035465807062779846,0.042100213456163334,0.02167628316777021,0.04580281677098599,-0.008684423576652575
1.507366266957439,0.03160750390290827,0.03629723916988373,0.01779655130545853,0.04194670547359448,-0.00963409780344799
1.5074377841123656,0.02689036393457737,0.031248962268994956,0.014369878001425985,0.038927773574479546,-0.010695398761262933
1.5075093012672922,0.022110982309926926,0.026644520246587974,0.012274203971852665,0.03573175345348357,-0.010565444572822201
1.5075808184222188,0.018158898886019043,0.023578980524307888,0.010838451012952628,0.034589003715392905,-0.011080317483625639
1.5076523355771454,0.015750547010193554,0.021718129886151002,0.009985828883372298,0.03328674693964108,-0.01102627786544802
1.507723852732072,0.015198153002695225,0.018190431531696378,0.008495434228764531,0.028976503270784736,-0.009758788352727907
1.5077953698869986,0.01632710132796861,0.013749856654971616,0.006411917338543193,0.022252815643545677,-0.0075850513224294275
1.5078668870419252,0.01858159605132472,0.010427940433185802,0.00521914285473996,0.014956298037927753,-0.0043539077123748585
1.5079384041968518,0.02125563485920751,0.008410477613669667,0.005152249488431391,0.007831306415509193,-0.00030220541742530287
1.5080099213517784,0.023737553869918368,0.008328165776836137,0.0057615299185219465,0.004892729178850624,0.0018892058040469823
1.508081438506705,0.025680396681245936,0.010751434211405569,0.007453924502377228,0.005273064296297933,0.003053251464784946
1.5081529556616315,0.027059576075294776,0.013284151921479364,0.008842952470356694,0.007771439215532182,0.002748857941643285
1.5082244728165581,0.028112039179855254,0.01309434147434281,0.008942296206187028,0.010065489088618523,0.0015080610652524174
1.5082959899714847,0.029172386947160022,0.011235483733901232,0.008780907310022895,0.012302331226531288,8.705039892972159e-05
1.5083675071264113,0.03045818310099522,0.011218671944198845,0.010026451111954632,0.01523824875686562,-0.0005868475862416734
1.508439024281338,0.03190386747651281,0.015127567841783608,0.012747040105629182,0.01916561688766811,-0.0006262724158949389
1.5085105414362645,0.03314377564440417,0.02106020160522778,0.01600259242207933,0.023606378013173,-0.0005239390083127279
1.508582058591191,0.03366149064758627,0.02585332905273909,0.0186299276568245,0.026028648716089255,0.00022857383851253933
1.5086535757461177,0.03301661123576188,0.025793595459146588,0.017302793300784304,0.0258451164737533,-0.000751125904210514
1.5087250929010443,0.031031763736761156,0.02190182729599238,0.013978643770450466,0.023372746608689488,-0.0020443578391385582
1.5087966100559709,0.02787943173947238,0.016645525353334252,0.009773118861112214,0.018992309926917864,-0.0029577306693511812
1.5088681272108975,0.024071143965329337,0.011755270070483922,0.005405399448016361,0.015691924493405653,-0.004625677324113566
1.508939644365824,0.020368522042175177,0.007792336864786339,0.002619426200917792,0.012286625601056794,-0.004940004513046812
1.5090111615207507,0.017622660517009992,0.00569360830263486,0.001280243020763253,0.010603196770114882,-0.0050642618965744835
1.5090826786756772,0.016549556574789192,0.004830504987653724,0.001094148915450876,0.010755790048366893,-0.005304296813906693
1.5091541958306038,0.01749078347259404,0.004498331827662513,0.001728275756159572,0.009441526313631881,-0.0040285908168649605
1.5092257129855304,0.02026609634215111,0.0048407177365200295,0.002622344403247119,0.006126868151503139,-0.0013876324885588184
1.509297230140457,0.024225306810832306,0.008239141434117817,0.005090188490138515,0.002954324710591357,0.002457556036983007
1.5093687472953836,0.028505184243561566,0.01631148972876033,0.010396256019729185,0.0024733877858305617,0.007071377479969031
1.5094402644503102,0.032363241212534366,0.02774899350157713,0.017181792517199104,0.006443000003854566,0.010330762245403814
1.5095117816052368,0.035420479974014,0.04055460467928162,0.023785576506019895,0.013621785136008424,0.011594879113429551
1.5095832987601634,0.03772295943106026,0.05011121344511786,0.028541189697550762,0.020332723866019444,0.011619436756009996
1.50965481591509,0.039632532833370364,0.05314914077195727,0.030196375009199177,0.02513195331572565,0.01020931269257008
1.5097263330700166,0.041605230836871475,0.04856535324428815,0.028415936049993602,0.026730584391393458,0.007830976533553581
1.5097978502249432,0.04392716574129624,0.041102276254514736,0.026087173799228647,0.023767120885951162,0.007632792898192343
1.5098693673798698,0.04649881119729661,0.03641102407945916,0.025125670272120693,0.019792066589603922,0.00913641255494244
1.5099408845347964,0.048782229516577,0.03588407494667571,0.025898717163670308,0.019031595401912446,0.01020695565242908
1.510012401689723,0.04998265464348263,0.03818686913885272,0.027970420605425636,0.019216471063000347,0.011795417805464165
1.5100839188446495,0.04939582665258717,0.038311543542512684,0.02744804663090382,0.018787181921065214,0.011615308091277523
1.5101554359995761,0.046726633743720845,0.03573731486588109,0.024915387052692306,0.017211627238554367,0.010451000899808511
1.5102269531545027,0.04221494386441091,0.03282073597118331,0.022036546886626967,0.015407918819433094,0.009135451734406688
1.5102984703094293,0.0365554045951188,0.031306867448009826,0.019143160662124768,0.016117449933770598,0.006360413900196902
1.510369987464356,0.030705701566729478,0.03166093820908811,0.01712115674686206,0.018580053669533792,0.003287821054298487
1.5104415046192825,0.025671938650474672,0.03321926343132895,0.016152578444133103,0.02189260027998801,0.0005865752406023306
1.510513021774209,0.02230380117340663,0.03525522566818915,0.01595046449902194,0.02587941166605973,-0.0018769235737169324
1.5105845389291357,0.02110478427342222,0.03402054057354197,0.014310671393420193,0.026537761226208507,-0.00359752488307943
1.5106560560840623,0.022087028251984653,0.028695670765416563,0.011927341615445858,0.02185132641455995,-0.0028445837225019874
1.5107275732389889,0.02474352062355467,0.020051507365076746,0.008315005741078718,0.014191700121942407,-0.0013826888883333758
1.5107990903939155,0.028206425428266402,0.01334477130543635,0.006455089330600415,0.006428797852896166,0.00157087130575967
1.510870607548842,0.03156791810921427,0.010254571788081578,0.006924877381908108,0.001497004746261117,0.004796811620384844
1.5109421247037687,0.034217944840168574,0.010773109990702766,0.0085255112555674,0.0018299388877690548,0.005913154827796228
1.5110136418586952,0.036025983655989566,0.014581761862686643,0.01161661354179527,0.005587791131840523,0.006274289801253289
1.5110851590136218,0.03729532439305516,0.016708365849861736,0.013294021431409462,0.01057212526524474,0.0047733866167564264
1.5111566761685484,0.03854470610167679,0.015788411644244518,0.013163190298163863,0.015352093744135244,0.001911880588717399
1.511228193323475,0.04022460916569971,0.014719563931899195,0.013651672900344249,0.017420133030335735,0.0011193974256382816
1.5112997104784016,0.04246467581659284,0.015676704632680845,0.01442102957265151,0.018688852949710445,0.0010172254069627316
1.5113712276333282,0.04493429586497486,0.020592948191001867,0.016921655013448497,0.02071147020626802,0.0018962825760838575
1.5114427447882548,0.04689231770787431,0.026306409802124817,0.019784155718843215,0.022231959283468182,0.0033610600830602916
1.5115142619431814,0.047454803887083834,0.028548433648286853,0.02007376929597759,0.02260928798042148,0.0033804789530787736
