freq,gls,usurper,pdc_unbiased,shape_periodogram,shift_periodogram
1.5,0.031605246424144244,0.03158484903154982,0.022003088454338578,0.05191292127291586,-0.027484894989372094
1.5000715171549266,0.028595336453250155,0.025095229750488123,0.01679692217781675,0.043381438940322,-0.02393906321368962
1.5001430343098532,0.024797888546036324,0.019493926040762253,0.011419584810450916,0.03735257659417116,-0.022478071906574377
1.5002145514647798,0.020789812632417533,0.017797823834733686,0.008796510756732951,0.03374499259783986,-0.02123902839807042
1.5002860686197064,0.017345459787468324,0.020394103591969567,0.009479677332466734,0.03376020055068608,-0.020831521974767866
1.500357585774633,0.015271945925960987,0.02481205890655508,0.011714688134418397,0.035103089688517365,-0.02051971545043923
1.5004291029295596,0.015165201318802408,0.029916920602299196,0.01415548030345099,0.03975115495569248,-0.022692836059089134
1.5005006200844861,0.01716595655706576,0.034744105853884,0.016954003693511403,0.04374412476495004,-0.024129213253412864
1.5005721372394127,0.02086274426290797,0.038418312097130286,0.019187221778694714,0.04792218871158592,-0.026059802128833607
1.5006436543943393,0.02544081002802935,0.04159249407803791,0.02137618975240262,0.05256053281756607,-0.028382375680384053
1.500715171549266,0.03000884122307953,0.04504089316161829,0.02421994995090846,0.05711941544034058,-0.03024065560332755
1.5007866887041925,0.03391266896856934,0.04897438860085771,0.02666061786266369,0.06508393024274724,-0.035043790884965904
1.500858205859119,0.0368882624749449,0.05350004812847384,0.029368029530911475,0.07476581023064932,-0.04104837336459639
1.5009297230140457,0.0390355018056212,0.05848551393685233,0.03287087235373193,0.08598388683126465,-0.04779041012687648
1.5010012401689723,0.04067274274449097,0.06027553995339424,0.0349635290275476,0.09416674952287432,-0.053000284669002876
1.5010727573238989,0.04213722341942038,0.060503268479858964,0.036798409825528795,0.09907254786386128,-0.05576994571720516
1.5011442744788255,0.043587855733941964,0.06031096264668559,0.03793328428010061,0.10288605526757597,-0.05810411438202233
1.501215791633752,0.044880915226329254,0.05966344469603733,0.03824814004694497,0.10500592569953233,-0.0595968795038069
1.5012873087886787,0.045592465454410994,0.060402553807652415,0.03896037083855539,0.10845844631993011,-0.061906458046490156
1.5013588259436053,0.04519857422015515,0.0595977470782607,0.038338310339186395,0.1084771046538601,-0.0623041995811872
1.5014303430985318,0.04331902735671992,0.05593695307070396,0.03525172960142179,0.10504243891522869,-0.06146971889628925
1.5015018602534584,0.03989064242203222,0.04835073444665338,0.029380562295107576,0.0982294069578433,-0.059661735553423606
1.501573377408385,0.035207008956161204,0.0394358456785516,0.02275340008029923,0.08974012910438538,-0.05699011540412608
1.5016448945633116,0.029854908046904056,0.03139847270422876,0.01716592382272006,0.08074257937442386,-0.05328271402571747
1.5017164117182382,0.02460404968418353,0.024699274293847894,0.01272729457488559,0.07150110040498649,-0.04868384551756452
1.5017879288731648,0.020274028275387688,0.020742921020399003,0.010756457121333964,0.06332837740777521,-0.04342320884063202
1.5018594460280914,0.01756978332877583,0.018814736043343733,0.009814843547662735,0.057303278349711016,-0.03923418750551872
1.501930963183018,0.016887968997375314,0.018465149801529475,0.009773529530205848,0.051138737115681024,-0.03438452913398513
1.5020024803379446,0.018154766828972088,0.01775716778873916,0.009545857603491862,0.046610406534244704,-0.03094447908772677
1.5020739974928712,0.020807783027131654,0.01839478083395801,0.00997328939183271,0.04386983919051764,-0.028515997738500373
1.5021455146477978,0.023992628107040868,0.020997664403888318,0.01144212206274167,0.04437444026534934,-0.028012893316604247
1.5022170318027244,0.026898257150269028,0.025488368972944764,0.014028974316248104,0.04839112555411792,-0.029599334017200975
1.502288548957651,0.029041972437567,0.03024514231835903,0.016679671046279716,0.054605526977969346,-0.032885414862475336
1.5023600661125776,0.03036170293294545,0.03541335681898874,0.019990738498687276,0.06124503427497954,-0.03610444826387237
1.5024315832675041,0.031115659296329378,0.03627307243466642,0.02077896981185265,0.06580200483223066,-0.03922735295239824
1.5025031004224307,0.031680428730509906,0.03363237491919041,0.019519808615351825,0.06662422812358024,-0.040651871709456666
1.5025746175773573,0.032340192227813126,0.029948258125571295,0.018649627815208736,0.06394698551726187,-0.03906687833796856
1.502646134732284,0.033131945974426154,0.027110688413300027,0.017871043624403338,0.05952464861784034,-0.03604519239129972
1.5027176518872105,0.033797027787609374,0.02657984869676947,0.01799769758677829,0.057937355132616726,-0.03471149198103598
1.502789169042137,0.033871437590867574,0.02530174589306223,0.017486670760106647,0.05585244190991349,-0.03337601663228224
1.5028606861970637,0.03289397904446062,0.02213025549221044,0.015274482970942199,0.051954032498849986,-0.031651508063432095
1.5029322033519903,0.030638444170610023,0.01850861144262907,0.012011118949132128,0.04785984647094577,-0.030418493625382313
1.5030037205069169,0.02725242384486997,0.01653420866431581,0.009441040885373031,0.04522399279119249,-0.02991301732948332
1.5030752376618435,0.023245599290448483,0.017869345898859516,0.008606550278537486,0.045261315601507264,-0.03045483074664136
1.50314675481677,0.019358366958489085,0.021014983043757214,0.008953985446160287,0.04576487483809207,-0.030639532124016624
1.5032182719716967,0.01638051368297583,0.02499290584893349,0.010426555451109277,0.04670758610760277,-0.03048058641259997
1.5032897891266233,0.01497089818834955,0.02872360556425495,0.012350463029946239,0.04599611100537761,-0.028736863072348073
1.5033613062815498,0.015499460648454992,0.031750229605903235,0.013981854206916533,0.04490303681351064,-0.026870962982505738
1.5034328234364764,0.01793079665045714,0.032017143319744985,0.01416864675154985,0.04250964794474501,-0.02486461066158289
1.503504340591403,0.021792554285279486,0.031234771680240202,0.013806564009865633,0.04013158302661558,-0.023207764114228424
1.5035758577463296,0.026283745634476982,0.03369075650002063,0.015751292513310384,0.04103924308745733,-0.02273040017423258
1.5036473749012562,0.03053094650102892,0.038732003081210525,0.019003856556851165,0.04678046006022392,-0.02526984663002947
1.5037188920561828,0.03389868374654469,0.045501198171853566,0.02304438568669538,0.057304028876993915,-0.031109358695440462
1.5037904092111094,0.03619247413189749,0.05393379841318687,0.02836367437687625,0.06938465928619218,-0.03740241518723262
1.503861926366036,0.03764566473947448,0.06026183444554005,0.03246316988130233,0.08074403960462648,-0.04388415486912354
1.5039334435209626,0.038716510453014726,0.06318900855027455,0.03408384953452373,0.08901364331868017,-0.04944901625545948
1.5040049606758892,0.0398171228344044,0.06454809177711215,0.03557140334761458,0.0950428432115197,-0.05332229248803812
1.5040764778308158,0.041095739566223526,0.06746342534747551,0.037525773851031737,0.0992686857987456,-0.05547817989456719
1.5041479949857424,0.04234364882306056,0.07042328330668012,0.038887791087543686,0.102893763639058,-0.0575226454202907
1.504219512140669,0.043051695709888996,0.07169784272874727,0.03921573232033744,0.10504691825736588,-0.059033844347192485
1.5042910292955955,0.04260283060723393,0.06741633731724919,0.036347749549566495,0.10283279112676351,-0.05903753794773232
1.5043625464505221,0.04053910287302065,0.057321221600412836,0.030363706364527798,0.09528788343178018,-0.05672005680220657
1.5044340636054487,0.03679439695722014,0.04456391678195185,0.02344001313236871,0.08381422915103631,-0.05186638398843854
1.5045055807603753,0.03178229372791513,0.03336493694089674,0.01698689592080203,0.07343549603110068,-0.047601748538760334
1.504577097915302,0.026296542555493532,0.025712132161288263,0.012446934359831944,0.06449688320029333,-0.043310531935414905
1.5046486150702285,0.021278189004975218,0.022937100921470846,0.011187449324425095,0.05782950692785205,-0.0388079664493797
1.504720132225155,0.017555651134353225,0.022068698018260457,0.011283372248322305,0.05164234279871511,-0.03385582378539393
1.5047916493800817,0.01564621916050789,0.02098694643255312,0.010644076718018416,0.045930165829300824,-0.029732535686790115
1.5048631665350083,0.015656872938766518,0.01885983965463916,0.009217644422453899,0.03952537100649748,-0.025546930644422497
1.5049346836899349,0.017286051262519187,0.017387575016051135,0.008230188330603324,0.03491721222386094,-0.02251272469805177
1.5050062008448615,0.019918755698584013,0.017327768991625154,0.007905738300784866,0.0321824777090248,-0.020551845396112007
1.505077717999788,0.022804926807040774,0.01950411146096155,0.009361654152707073,0.03097121505493724,-0.01870112030232358
1.5051492351547147,0.025289013466251117,0.024314038174619315,0.011726326065843064,0.03583478207317397,-0.021090591060378902
1.5052207523096413,0.027015644551186973,0.029212359978286046,0.014241445734319206,0.042133479330629595,-0.02452261256576012
1.5052922694645678,0.028012475009877,0.03170718521322022,0.015961322224474977,0.04597556783765511,-0.026502859115369995
1.5053637866194944,0.028596359216805502,0.02869263968494916,0.014919408532213189,0.0457090349281507,-0.026932188059429277
1.505435303774421,0.02915112616185344,0.022551374575673185,0.013309044659559194,0.04269101400872376,-0.02553591795686426
1.5055068209293476,0.029900153036102176,0.018068461816925854,0.012321918805932341,0.03878711457881905,-0.023057302305297213
1.5055783380842742,0.030782681811496897,0.01723926191594409,0.01250866989698158,0.036964624700189144,-0.02150268578518846
1.5056498552392008,0.03146961942071043,0.019359137667036373,0.013496870470295333,0.03897736744228994,-0.022485969450504316
1.5057213723941274,0.03149161794629547,0.02048379340252454,0.013134126432083434,0.04163728577257413,-0.024810617051840223
1.505792889549054,0.030427310908792447,0.020214539731663053,0.011855838401314541,0.04223849088739148,-0.02607078153685453
1.5058644067039806,0.02809465201809536,0.01839551980963951,0.009674998552531539,0.04107857689282067,-0.026493369348503083
1.5059359238589072,0.024683284499830333,0.01495254476268957,0.006168765257997816,0.039572147548145135,-0.027455746094129027
1.5060074410138338,0.020766913938386953,0.012744991687361396,0.003987129865862614,0.038033820171420075,-0.027579625996750616
1.5060789581687604,0.017165658691511196,0.013759355800143433,0.004506773893992003,0.03642255613291354,-0.025987821715506784
1.506150475323687,0.014695536880755058,0.01597956111655865,0.005603202541494299,0.03479863402407063,-0.024031974738763055
1.5062219924786135,0.013907828977730352,0.017805914058294573,0.006474304461408025,0.032020243893562575,-0.021302641639754993
1.5062935096335401,0.014929925183180436,0.018021707467831112,0.007024475314287043,0.027333539304259257,-0.017263545562802653
1.5063650267884667,0.01746107614733839,0.016756049486018217,0.006681651925523114,0.023114507100041183,-0.01414265384915203
1.5064365439433933,0.020900617081537138,0.01799847158783248,0.008103902228742074,0.02126008468653742,-0.011805096150371267
1.50650806109832,0.024545654709518663,0.021870948693565092,0.01119024144466396,0.02203957512812874,-0.010524976225640258
1.5065795782532465,0.027795889555703463,0.0286954348066995,0.015188716512202768,0.02921774251201145,-0.013737048364485256
1.506651095408173,0.030315638754338018,0.03765534571000138,0.02020329875354711,0.038712573506568794,-0.018156259179976427
1.5067226125630997,0.03210575674634778,0.04673764596373312,0.02516307524326057,0.04949223744979956,-0.023627981219833376
1.5067941297180263,0.03344435853615213,0.052000438061412274,0.02809340030703321,0.05706664377061271,-0.02781704537457673
1.5068656468729529,0.03469846610783441,0.0524536279797992,0.028836225363534616,0.0598999324808481,-0.029602166202268295
1.5069371640278795,0.03608805388876267,0.05130051010003689,0.029158238083419115,0.05906675157401574,-0.028744712477900242
1.507008681182806,0.03753193323000867,0.05092417434739409,0.029645090979329304,0.05850940989658689,-0.02800416156611229
1.5070801983377327,0.038657419159163646,0.05106382366635603,0.03000532215028713,0.05754341775493628,-0.027018156527992995
1.5071517154926592,0.038950459296790155,0.04996993939552283,0.029635790998015537,0.05517452561121391,-0.02537127739448185
1.5072232326475858,0.03795818995272562,0.04484922836541955,0.026170643808596194,0.050675558059182446,-0.023944147144252838
1.5072947498025124,0.035465807062779846,0.03836345849852399,0.02167628316777021,0.044607248830387414,-0.02190951887344341
1.507366266957439,0.03160750390290827,0.03306604298446734,0.01779655130545853,0.039713224299685504,-0.020425958399201978
1.5074377841123656,0.02689036393457737,0.028609699103289043,0.014369878001425985,0.03700910011819808,-0.020394588665497693
1.5075093012672922,0.022110982309926926,0.024716295426072312,0.012274203971852665,0.034067149603281506,-0.0193577226422705
1.5075808184222188,0.018158898886019043,0.022197110671761288,0.010838451012952628,0.03249694349784922,-0.018999236829055913
1.5076523355771454,0.015750547010193554,0.020595567048979645,0.009985828883372298,0.029600067796366175,-0.017234886271564786
1.507723852732072,0.015198153002695225,0.017563050625217243,0.008495434228764531,0.02404958038558206,-0.013767111877942861
1.5077953698869986,0.01632710132796861,0.013473826660851966,0.006411917338543193,0.01772227243453338,-0.01005113705824832
1.5078668870419252,0.01858159605132472,0.010474658142543164,0.00521914285473996,0.012498300408985813,-0.006659847537318828
1.5079384041968518,0.02125563485920751,0.008744630898530847,0.005152249488431391,0.008048698443479297,-0.003188753887614591
1.5080099213517784,0.023737553869918368,0.008592763866049378,0.0057615299185219465,0.006570672316517122,-0.0016480032809448235
1.508081438506705,0.025680396681245936,0.010528051424189513,0.007453924502377228,0.008378737774656649,-0.0020357664088279425
1.5081529556616315,0.027059576075294776,0.012393838701847308,0.008842952470356694,0.011650273668189036,-0.0037649826945348724
1.5082244728165581,0.028112039179855254,0.011709364822169497,0.008942296206187028,0.01310801459652585,-0.004854637913361604
1.5082959899714847,0.029172386947160022,0.009686577044411173,0.008780907310022895,0.014246509676294865,-0.005852453065266233
1.5083675071264113,0.03045818310099522,0.00967975894121855,0.010026451111954632,0.015897553397410197,-0.0063907954096448895
1.508439024281338,0.03190386747651281,0.013448074216890222,0.012747040105629182,0.019275772584448975,-0.007386643548169973
1.5085105414362645,0.03314377564440417,0.019177771124990663,0.01600259242207933,0.024281843792737425,-0.009339173561219955
1.508582058591191,0.03366149064758627,0.023943804524416218,0.0186299276568245,0.02888870992086923,-0.011362773432652925
1.5086535757461177,0.03301661123576188,0.02373463908200757,0.017302793300784304,0.03001303156847877,-0.013066252393353761
1.5087250929010443,0.031031763736761156,0.019807426946761124,0.013978643770450466,0.02743285024828638,-0.013070836534489004
1.5087966100559709,0.02787943173947238,0.014621311779808821,0.009773118861112214,0.022799663298920612,-0.011995507299158346
1.5088681272108975,0.024071143965329337,0.009789479036884157,0.005405399448016361,0.01939244552892119,-0.011987753456865863
1.508939644365824,0.020368522042175177,0.006039409588498521,0.002619426200917792,0.016922791968587512,-0.011748837263326404
1.5090111615207507,0.017622660517009992,0.004270105831369467,0.001280243020763253,0.01681092767581057,-0.012482812318659827
1.5090826786756772,0.016549556574789192,0.003610221779791362,0.001094148915450876,0.0164467543921834,-0.012309599696416377
1.5091541958306038,0.01749078347259404,0.0036062994874373594,0.001728275756159572,0.01455270438011763,-0.010425115856669975
1.5092257129855304,0.02026609634215111,0.004062425491402183,0.002622344403247119,0.012268141745921295,-0.008072795585217325
1.509297230140457,0.024225306810832306,0.007321506299356012,0.005090188490138515,0.012365802397601506,-0.006634450117578641
1.5093687472953836,0.028505184243561566,0.015029787880204487,0.010396256019729185,0.015418723821207325,-0.005785670579399571
1.5094402644503102,0.032363241212534366,0.025724172794524165,0.017181792517199104,0.021878728460755573,-0.006717204082384503
1.5095117816052368,0.035420479974014,0.037471483516300086,0.023785576506019895,0.030386601650535486,-0.009376875680417437
1.5095832987601634,0.03772295943106026,0.046050343872620504,0.028541189697550762,0.03578497051043826,-0.010716669566169875
1.50965481591509,0.039632532833370364,0.04841261593245875,0.030196375009199177,0.037156155685821673,-0.010781757702975025
1.5097263330700166,0.041605230836871475,0.04381185658412283,0.028415936049993602,0.03542879191003663,-0.010512329822030502
1.5097978502249432,0.04392716574129624,0.036780168169039035,0.026087173799228647,0.029507051281529816,-0.007267096175296634
1.5098693673798698,0.04649881119729661,0.03265312092242117,0.025125670272120693,0.022847878036794254,-0.002599987109589954
1.5099408845347964,0.048782229516577,0.03281463250351062,0.025898717163670308,0.019818470499640528,0.0002668829082768165
1.510012401689723,0.04998265464348263,0.035725386502693184,0.027970420605425636,0.01897518578927333,0.0022063306401109346
1.5100839188446495,0.04939582665258717,0.036260527016640155,0.02744804663090382,0.01707606559154105,0.0033841704470093104
1.5101554359995761,0.046726633743720845,0.034001020429059794,0.024915387052692306,0.014000927953731328,0.004254344452314533
1.5102269531545027,0.04221494386441091,0.03138602085698466,0.022036546886626967,0.010618915449269427,0.005154222762075305
1.5102984703094293,0.0365554045951188,0.029937348746151858,0.019143160662124768,0.010349225786333354,0.0035891766717667077
1.510369987464356,0.030705701566729478,0.030157836556991977,0.01712115674686206,0.01280606210417863,0.0004077148941815179
1.5104415046192825,0.025671938650474672,0.03155512873236394,0.016152578444133103,0.01691574929031325,-0.0034314083663977706
1.510513021774209,0.02230380117340663,0.033341113533949876,0.01595046449902194,0.020544082927524732,-0.0064200119698289496
1.5105845389291357,0.02110478427342222,0.03209149324671473,0.014310671393420193,0.021049779522397404,-0.00782668836374956
1.5106560560840623,0.022087028251984653,0.02717832353330534,0.011927341615445858,0.016868133565030585,-0.005989427490837769
1.5107275732389889,0.02474352062355467,0.01912009316956297,0.008315005741078718,0.0106577547511433,-0.003305796786353239
1.5107990903939155,0.028206425428266402,0.01296170428909013,0.006455089330600415,0.005668487569145565,-0.0005100093796235869
1.510870607548842,0.03156791810921427,0.010072301856777243,0.006924877381908108,0.003510233628977867,0.001481924569427256
1.5109421247037687,0.034217944840168574,0.010306369858709242,0.0085255112555674,0.005927549397569814,0.0005570147072922194
1.5110136418586952,0.036025983655989566,0.013565632158777917,0.01161661354179527,0.010680043558510384,-0.0012955981282199943
1.5110851590136218,0.03729532439305516,0.015162709786467872,0.013294021431409462,0.015195828799281516,-0.003829790799099196
1.5111566761685484,0.03854470610167679,0.013812339392920233,0.013163190298163863,0.019602107948426827,-0.0073886476677457935
1.511228193323475,0.04022460916569971,0.012510921820648484,0.013651672900344249,0.02198995379352193,-0.008973827131543002
1.5112997104784016,0.04246467581659284,0.013256580049005824,0.01442102957265151,0.023388896610627385,-0.009605759106371245
1.5113712276333282,0.04493429586497486,0.01801548582815326,0.016921655013448497,0.02712656897286804,-0.01102084730492274
1.5114427447882548,0.04689231770787431,0.02367692653146094,0.019784155718843215,0.031374369113434906,-0.012616640540973943
1.5115142619431814,0.047454803887083834,0.026009382772573714,0.02007376929597759,0.03216495631468881,-0.013063109566671062
1.511585779098108,0.04599085839647899,0.022978063790950055,0.017243949592298295,0.028687543790339203,-0.012055564320792014
