freq,gls,usurper,pdc_unbiased,shape_periodogram,shift_periodogram
1.5,0.031605246424144244,0.02522242301244539,0.022003088454338578,0.02615870237777658,0.010445551939630034
1.5000715171549266,0.028595336453250155,0.020159966775142726,0.01679692217781675,0.019870067173083688,0.008009109353685864
1.5001430343098532,0.024797888546036324,0.01562317072852254,0.011419584810450916,0.014753058907151857,0.004971980335837238
1.5002145514647798,0.020789812632417533,0.014370072447684666,0.008796510756732951,0.010744995753464602,0.004064418529053306
1.5002860686197064,0.017345459787468324,0.016598559299743833,0.009479677332466734,0.008949033535481139,0.005377727257344866
1.500357585774633,0.015271945925960987,0.020298653907875712,0.011714688134418397,0.009746074192937115,0.007143811366945044
1.5004291029295596,0.015165201318802408,0.0245212104853916,0.01415548030345099,0.012975837945398963,0.008178077666463267
1.5005006200844861,0.01716595655706576,0.0287420294273173,0.016954003693511403,0.015740765142874775,0.009720095155556725
1.5005721372394127,0.02086274426290797,0.03220455657148412,0.019187221778694714,0.01876766298219831,0.010639953527720777
1.5006436543943393,0.02544081002802935,0.03502880626808183,0.02137618975240262,0.02151829421106737,0.011623995780095816
1.500715171549266,0.03000884122307953,0.03790771784881801,0.02421994995090846,0.023035471350763833,0.013682342261154602
1.5007866887041925,0.03391266896856934,0.04059346212706277,0.02666061786266369,0.027929355820688485,0.01408844447303849
1.500858205859119,0.0368882624749449,0.04355100659634063,0.029368029530911475,0.034034845695031304,0.014283554352353322
1.5009297230140457,0.0390355018056212,0.04691439534986292,0.03287087235373193,0.04175605490469949,0.014605260592259856
1.5010012401689723,0.04067274274449097,0.047734050232136414,0.0349635290275476,0.047550971169848105,0.014350590236537647
1.5010727573238989,0.04213722341942038,0.047441682565332856,0.036798409825528795,0.050624268618795897,0.014888705348125244
1.5011442744788255,0.043587855733941964,0.046719693281241814,0.03793328428010061,0.05328730662493467,0.014933064214144441
1.501215791633752,0.044880915226329254,0.04578144816158174,0.03824814004694497,0.05570532598111851,0.01430912745919069
1.5012873087886787,0.045592465454410994,0.0460912977501913,0.03896037083855539,0.05867748909482971,0.013844111749529743
1.5013588259436053,0.04519857422015515,0.04535813136169043,0.038338310339186395,0.05934482006474384,0.013013439913278283
1.5014303430985318,0.04331902735671992,0.04246700688104163,0.03525172960142179,0.05979771225421802,0.009975415536868305
1.5015018602534584,0.03989064242203222,0.036283679273231645,0.029380562295107576,0.0576139385672931,0.005354105090403195
1.501573377408385,0.035207008956161204,0.029131862330273366,0.02275340008029923,0.054698381371281767,0.00031328241749441015
1.5016448945633116,0.029854908046904056,0.0228696884102944,0.01716592382272006,0.049643205314410105,-0.0029465880094321152
1.5017164117182382,0.02460404968418353,0.017660989145261204,0.01272729457488559,0.043484909531322065,-0.004720038414511022
1.5017879288731648,0.020274028275387688,0.015004013460575586,0.010756457121333964,0.0380554759809411,-0.004483516912991425
1.5018594460280914,0.01756978332877583,0.013912377747219287,0.009814843547662735,0.03480593014745723,-0.004121688289483412
1.501930963183018,0.016887968997375314,0.014174078091954838,0.009773529530205848,0.031665775097981665,-0.0029679384559005207
1.5020024803379446,0.018154766828972088,0.014065029919307581,0.009545857603491862,0.029122595004948834,-0.0022135116468941503
1.5020739974928712,0.020807783027131654,0.014741813042313263,0.00997328939183271,0.02782964856938541,-0.0013271518302044759
1.5021455146477978,0.023992628107040868,0.01664954374808366,0.01144212206274167,0.027727485656559542,7.145576464841197e-05
1.5022170318027244,0.026898257150269028,0.01986592691348619,0.014028974316248104,0.030106027719864554,0.0015641569668088115
1.502288548957651,0.029041972437567,0.02326651683433841,0.016679671046279716,0.03355025488876201,0.0027121556185114417
1.5023600661125776,0.03036170293294545,0.027209689682465617,0.019990738498687276,0.03742592096613422,0.00430887997368696
1.5024315832675041,0.031115659296329378,0.027595362190787693,0.02077896981185265,0.039891329634829005,0.004103846419230864
1.5025031004224307,0.031680428730509906,0.025069354888710614,0.019519808615351825,0.04016315000861201,0.0028340041939161403
1.5025746175773573,0.032340192227813126,0.02205505684558562,0.018649627815208736,0.03720916900931823,0.0031486741759786945
1.502646134732284,0.033131945974426154,0.019824270834187918,0.017871043624403338,0.03266726687524327,0.004150566990236723
1.5027176518872105,0.033797027787609374,0.019488438979900605,0.01799769758677829,0.030127790513733755,0.005231108299193844
1.502789169042137,0.033871437590867574,0.018378552914670925,0.017486670760106647,0.026793462289752247,0.006022431931063416
1.5028606861970637,0.03289397904446062,0.015841822537113286,0.015274482970942199,0.023825072742068132,0.005099885102227383
1.5029322033519903,0.030638444170610023,0.013076015437355988,0.012011118949132128,0.021430575335693893,0.0029869792522594055
1.5030037205069169,0.02725242384486997,0.011805943759009398,0.009441040885373031,0.019897399735296126,0.0011895826893513883
1.5030752376618435,0.023245599290448483,0.013138633497965273,0.008606550278537486,0.019292677930087793,0.0006465928522316441
1.50314675481677,0.019358366958489085,0.015713839317742728,0.008953985446160287,0.01930191775600014,0.0009646602267433449
1.5032182719716967,0.01638051368297583,0.018864361411479853,0.010426555451109277,0.019371280987816365,0.0023013339146375758
1.5032897891266233,0.01497089818834955,0.02208385591653594,0.012350463029946239,0.01974880252598016,0.003938964590908462
1.5033613062815498,0.015499460648454992,0.025008093265761012,0.013981854206916533,0.01941554913388634,0.005575477789515004
1.5034328234364764,0.01793079665045714,0.02570170682971686,0.01416864675154985,0.0171413812211773,0.006610772029161744
1.503504340591403,0.021792554285279486,0.025104135496289755,0.013806564009865633,0.014591554854122786,0.007242495224230102
1.5035758577463296,0.026283745634476982,0.026825601191722698,0.015751292513310384,0.0146372045256421,0.00902521283722194
1.5036473749012562,0.03053094650102892,0.030282952159437014,0.019003856556851165,0.018400644213318725,0.010609326078050471
1.5037188920561828,0.03389868374654469,0.03482461950208475,0.02304438568669538,0.025764328121689786,0.011559417929437012
1.5037904092111094,0.03619247413189749,0.04092146262936633,0.02836367437687625,0.03314408958945384,0.013690345201038737
1.503861926366036,0.03764566473947448,0.045340274079191945,0.03246316988130233,0.040101520651226054,0.014854075663367338
1.5039334435209626,0.038716510453014726,0.04680480895171294,0.03408384953452373,0.04677857870108052,0.013827192628412963
1.5040049606758892,0.0398171228344044,0.04731034236032828,0.03557140334761458,0.051851181129283594,0.013285059399558877
1.5040764778308158,0.041095739566223526,0.04947319753223683,0.037525773851031737,0.05675228847480089,0.013241628862717148
1.5041479949857424,0.04234364882306056,0.05172221833573462,0.038887791087543686,0.06189886499855776,0.012555560714661396
1.504219512140669,0.043051695709888996,0.052502507254480114,0.03921573232033744,0.06644344325617503,0.011136863314220985
1.5042910292955955,0.04260283060723393,0.04894696451615485,0.036347749549566495,0.06882299863398471,0.007568767882463446
1.5043625464505221,0.04053910287302065,0.040998513649532435,0.030363706364527798,0.06739678271585985,0.0025515574134807547
1.5044340636054487,0.03679439695722014,0.03127124704158154,0.02344001313236871,0.061317094073789366,-0.0015646490170431106
1.5045055807603753,0.03178229372791513,0.022972588779339914,0.01698689592080203,0.05449583711652276,-0.004956498249297524
1.504577097915302,0.026296542555493532,0.017434878830677472,0.012446934359831944,0.04805466986394999,-0.006715922661577036
1.5046486150702285,0.021278189004975218,0.015767349387637204,0.011187449324425095,0.04299623430856228,-0.005960785966859946
1.504720132225155,0.017555651134353225,0.015631900290930055,0.011283372248322305,0.03926182584953899,-0.00445361330262044
1.5047916493800817,0.01564621916050789,0.015212607116310237,0.010644076718018416,0.0366189128858638,-0.004042135261327295
1.5048631665350083,0.015656872938766518,0.014011356211804438,0.009217644422453899,0.03305093882586404,-0.004008404858021913
1.5049346836899349,0.017286051262519187,0.013344801012310767,0.008230188330603324,0.029973146254487115,-0.0037543449396818186
1.5050062008448615,0.019918755698584013,0.01346682809276077,0.007905738300784866,0.027566718505228002,-0.003141392186106712
1.505077717999788,0.022804926807040774,0.015271379448907994,0.009361654152707073,0.02555821839471658,-0.0010314838467755448
1.5051492351547147,0.025289013466251117,0.018855183705207768,0.011726326065843064,0.02880501854083537,-7.426642654102105e-05
1.5052207523096413,0.027015644551186973,0.02229311131686058,0.014241445734319206,0.03252716657145117,0.0008422626932918503
1.5052922694645678,0.028012475009877,0.02408177028047787,0.015961322224474977,0.033860936041838735,0.0019289652757554392
1.5053637866194944,0.028596359216805502,0.021257965919183643,0.014919408532213189,0.03140644459181123,0.0018953224740793713
1.505435303774421,0.02915112616185344,0.016112964395777973,0.013309044659559194,0.025687370800470535,0.0025738702358755372
1.5055068209293476,0.029900153036102176,0.012520221531704633,0.012321918805932341,0.0203241474860923,0.0036943309705149687
1.5055783380842742,0.030782681811496897,0.011910933823263891,0.01250866989698158,0.017148996343711483,0.005071379773751799
1.5056498552392008,0.03146961942071043,0.013588570072045059,0.013496870470295333,0.017824334180207537,0.005729970420447917
1.5057213723941274,0.03149161794629547,0.014232086845250859,0.013134126432083434,0.01954641892273944,0.0047411258944625835
1.505792889549054,0.030427310908792447,0.014204713008585087,0.011855838401314541,0.02182247330232304,0.0026945907140500523
1.5058644067039806,0.02809465201809536,0.013042392454686103,0.009674998552531539,0.02267015347697184,0.00035429787969788127
1.5059359238589072,0.024683284499830333,0.01034436528264204,0.006168765257997816,0.022139354312652865,-0.0026896875899935953
1.5060074410138338,0.020766913938386953,0.008788726871634457,0.003987129865862614,0.02068534312405368,-0.00415712333609979
1.5060789581687604,0.017165658691511196,0.010082732029691899,0.004506773893992003,0.01848232317357678,-0.0028403534702610366
1.506150475323687,0.014695536880755058,0.012044251540209303,0.005603202541494299,0.01794581065983436,-0.0016221057792045004
1.5062219924786135,0.013907828977730352,0.013572317542763316,0.006474304461408025,0.016917749102725657,-0.0004259259310798724
1.5062935096335401,0.014929925183180436,0.013929387296982076,0.007024475314287043,0.013177428968299843,0.0015019873669437486
1.5063650267884667,0.01746107614733839,0.012969469915972988,0.006681651925523114,0.0101413178063383,0.002336275370899594
1.5064365439433933,0.020900617081537138,0.01388881902134973,0.008103902228742074,0.008291200437729069,0.004354072210222318
1.50650806109832,0.024545654709518663,0.016821867674931157,0.01119024144466396,0.006485843357857727,0.007894755288304607
1.5065795782532465,0.027795889555703463,0.021653438519618692,0.015188716512202768,0.00935910784026151,0.01050563744809841
1.506651095408173,0.030315638754338018,0.02794352817783481,0.02020329875354711,0.014644539809865062,0.013143476092284575
1.5067226125630997,0.03210575674634778,0.03465185979728834,0.02516307524326057,0.021748044532792034,0.015043598156683304
1.5067941297180263,0.03344435853615213,0.03828706712990221,0.02809340030703321,0.028331338710050485,0.015263452430573046
1.5068656468729529,0.03469846610783441,0.038104753328802976,0.028836225363534616,0.03193293563317578,0.014587139316949709
1.5069371640278795,0.03608805388876267,0.036910913843246955,0.029158238083419115,0.03317014300531158,0.01441676901526243
1.507008681182806,0.03753193323000867,0.03645981247243604,0.029645090979329304,0.0353157180657592,0.014055002438028786
1.5070801983377327,0.038657419159163646,0.03664792621617585,0.03000532215028713,0.03767214031327805,0.013495993180442045
1.5071517154926592,0.038950459296790155,0.03597500591432073,0.029635790998015537,0.03838319466698447,0.0128840017442337
1.5072232326475858,0.03795818995272562,0.0322668980293368,0.026170643808596194,0.03849899414273419,0.009628355578509643
1.5072947498025124,0.035465807062779846,0.027616659557652107,0.02167628316777021,0.03753287216217659,0.005829966748382825
1.507366266957439,0.03160750390290827,0.023988381631420898,0.01779655130545853,0.03647080214225673,0.002638572693138169
1.5074377841123656,0.02689036393457737,0.020898042208159988,0.014369878001425985,0.03518177037935536,-4.6174608783661234e-05
1.5075093012672922,0.022110982309926926,0.018179487419848903,0.012274203971852665,0.03267610617120854,-0.0010359598961247219
1.5075808184222188,0.018158898886019043,0.0163156830830875,0.010838451012952628,0.03171012018527684,-0.0019987733521677044
1.5076523355771454,0.015750547010193554,0.015383563935129756,0.009985828883372298,0.0306983466306938,-0.0024041982454569557
1.507723852732072,0.015198153002695225,0.01346826248462125,0.008495434228764531,0.027541062538280894,-0.0025857650131287818
1.5077953698869986,0.01632710132796861,0.01093233718478724,0.006411917338543193,0.02265376913331597,-0.002659820398102528
1.5078668870419252,0.01858159605132472,0.009270978424146212,0.00521914285473996,0.017794658457083435,-0.0019201975493080721
1.5079384041968518,0.02125563485920751,0.008334751061557613,0.005152249488431391,0.012583476114146359,-5.302306928652374e-06
1.5080099213517784,0.023737553869918368,0.008298586152578662,0.0057615299185219465,0.009196661258958353,0.0018431028484229125
1.508081438506705,0.025680396681245936,0.00976926278051341,0.007453924502377228,0.007303368050014172,0.004127235487070946
1.5081529556616315,0.027059576075294776,0.01106812185410175,0.008842952470356694,0.005809521846555731,0.005979110635687034
1.5082244728165581,0.028112039179855254,0.010118917521272267,0.008942296206187028,0.0036673773620054437,0.0068834025087101776
1.5082959899714847,0.029172386947160022,0.007875174092366094,0.008780907310022895,0.0013934794588545962,0.0075964017121231235
1.5083675071264113,0.03045818310099522,0.00758282623689478,0.010026451111954632,0.00017281646196166505,0.009211827562694622
1.508439024281338,0.03190386747651281,0.010380558635062747,0.012747040105629182,0.0016784855925056049,0.011158275177289276
1.5085105414362645,0.03314377564440417,0.014717861666705969,0.01600259242207933,0.005429363645793906,0.01274871883281354
1.508582058591191,0.03366149064758627,0.01842417326035799,0.0186299276568245,0.00937551060528953,0.013684318469866699
1.5086535757461177,0.03301661123576188,0.018237843398606828,0.017302793300784304,0.011680635477738432,0.011582156852185546
1.5087250929010443,0.031031763736761156,0.01543849137430056,0.013978643770450466,0.012228078104476786,0.008297934792464377
1.5087966100559709,0.02787943173947238,0.01177573596607199,0.009773118861112214,0.011129009706906225,0.004822566704152436
1.5088681272108975,0.024071143965329337,0.008165814625231445,0.005405399448016361,0.010322199676374388,0.0010866553772688925
1.508939644365824,0.020368522042175177,0.005235048521135982,0.002619426200917792,0.007843895128862997,-0.0005513259166851097
1.5090111615207507,0.017622660517009992,0.0034298244310118748,0.001280243020763253,0.006235385647644773,-0.0011803868466839214
1.5090826786756772,0.016549556574789192,0.0025864820059149653,0.001094148915450876,0.005945510915687651,-0.0012426322227921205
1.5091541958306038,0.01749078347259404,0.0027149465681204034,0.001728275756159572,0.004359111465665986,-5.4175352974581186e-05
1.5092257129855304,0.02026609634215111,0.003478922322382129,0.002622344403247119,0.0014616089663067597,0.0018720580576766044
1.509297230140457,0.024225306810832306,0.0063547849248048165,0.005090188490138515,-0.0002053087898147301,0.004787736843250945
1.5093687472953836,0.028505184243561566,0.012519819383905511,0.010396256019729185,0.0006430999683936816,0.00937566685930695
1.5094402644503102,0.032363241212534366,0.020948416184652388,0.017181792517199104,0.00454769713193107,0.014174231189654371
1.5095117816052368,0.035420479974014,0.029971449085763595,0.023785576506019895,0.01047837915326142,0.018038425051512767
1.5095832987601634,0.03772295943106026,0.036357200954752,0.028541189697550762,0.015168649502713596,0.020664231950957148
1.50965481591509,0.039632532833370364,0.037764165328856535,0.030196375009199177,0.017845393625777358,0.021183151517516804
1.5097263330700166,0.041605230836871475,0.03326386436286807,0.028415936049993602,0.01684396942656843,0.019913693379152962
1.5097978502249432,0.04392716574129624,0.02731398889980783,0.026087173799228647,0.011635014440155012,0.019730792951177027
1.5098693673798698,0.04649881119729661,0.024131872920797423,0.025125670272120693,0.006650119852602027,0.020729430775028444
1.5099408845347964,0.048782229516577,0.024437543993318385,0.025898717163670308,0.005772126590368322,0.021777614529139656
1.510012401689723,0.04998265464348263,0.027214199125459138,0.027970420605425636,0.007326912153701465,0.023106169091529627
1.5100839188446495,0.04939582665258717,0.02784584566450618,0.02744804663090382,0.009627171510344966,0.02175123923004896
1.5101554359995761,0.046726633743720845,0.02647919758521456,0.024915387052692306,0.011252447231416631,0.018790977904969107
1.5102269531545027,0.04221494386441091,0.024967364750106205,0.022036546886626967,0.012671080277061953,0.015588459597513614
1.5102984703094293,0.0365554045951188,0.024188034641463366,0.019143160662124768,0.015309358414788957,0.011910104270449877
1.510369987464356,0.030705701566729478,0.024593824735024597,0.01712115674686206,0.018605357210471254,0.008788782978980466
1.5104415046192825,0.025671938650474672,0.025747321552946317,0.016152578444133103,0.022143695140382575,0.006550468227046422
1.510513021774209,0.02230380117340663,0.027210368058386957,0.01595046449902194,0.025796269065379934,0.004978167556666369
1.5105845389291357,0.02110478427342222,0.026398220079366975,0.014310671393420193,0.02689180426022027,0.003044352592263957
1.5106560560840623,0.022087028251984653,0.02317942509808568,0.011927341615445858,0.022774565945039696,0.002399640093476542
1.5107275732389889,0.02474352062355467,0.017555857291812037,0.008315005741078718,0.016403467909355537,0.0014726963975512882
1.5107990903939155,0.028206425428266402,0.013421722876285682,0.006455089330600415,0.009812451522856163,0.002251348492472645
1.510870607548842,0.03156791810921427,0.011517132202026934,0.006924877381908108,0.004655398268131378,0.004641924730705083
1.5109421247037687,0.034217944840168574,0.011556208739506415,0.0085255112555674,0.0020517512611911517,0.007110439962437301
1.5110136418586952,0.036025983655989566,0.014075612394021813,0.01161661354179527,0.0014606704540728733,0.010194851229503013
1.5110851590136218,0.03729532439305516,0.015033767218352078,0.013294021431409462,0.0020207111371792386,0.011534652171213869
1.5111566761685484,0.03854470610167679,0.013135488338351382,0.013163190298163863,0.0026154847321353558,0.01118806126463453
1.511228193323475,0.04022460916569971,0.011677246398054337,0.013651672900344249,0.0009762125387989444,0.01226165526846279
1.5112997104784016,0.04246467581659284,0.012088460482210359,0.01442102957265151,0.00018525153926556454,0.013273479681146212
1.5113712276333282,0.04493429586497486,0.015850426546906504,0.016921655013448497,0.0018816319552544018,0.014944243446126082
1.5114427447882548,0.04689231770787431,0.020373232637860297,0.019784155718843215,0.005052716896971964,0.016391129166477725
1.5115142619431814,0.047454803887083834,0.0219691075549664,0.02007376929597759,0.008572057802373958,0.015325206745659856
