freq,gls,usurper,pdc_unbiased,shape_periodogram,shift_periodogram
1.5,0.031605246424144244,0.03091162009530352,0.022003088454338578,0.03273782937676627,-0.0004907474016995928
1.5000715171549266,0.028595336453250155,0.023974556658150844,0.01679692217781675,0.02645378923255523,-0.001206983865668901
1.5001430343098532,0.024797888546036324,0.018064506432423924,0.011419584810450916,0.02134110286696268,-0.0027285591373373175
1.5002145514647798,0.020789812632417533,0.016191333316372382,0.008796510756732951,0.01659211125095393,-0.0021887890032240872
1.5002860686197064,0.017345459787468324,0.018807116468097428,0.009479677332466734,0.014301126546020946,-0.0003245709132117694
1.500357585774633,0.015271945925960987,0.023442482688841873,0.011714688134418397,0.014308945140785565,0.0015106733123739
1.5004291029295596,0.015165201318802408,0.028888172314901393,0.01415548030345099,0.01764623799695272,0.0016235979762347003
1.5005006200844861,0.01716595655706576,0.03402245496403881,0.016954003693511403,0.02015896853946348,0.0024998893383498437
1.5005721372394127,0.02086274426290797,0.03800223844775843,0.019187221778694714,0.02258852199767436,0.002958306822956677
1.5006436543943393,0.02544081002802935,0.04147926142825451,0.02137618975240262,0.025051425536938763,0.003361625712635583
1.500715171549266,0.03000884122307953,0.045236212332797926,0.02421994995090846,0.02648264981362662,0.004891001071882398
1.5007866887041925,0.03391266896856934,0.04956088104395295,0.02666061786266369,0.031798472582176086,0.00388127501234231
1.500858205859119,0.0368882624749449,0.05441911280419491,0.029368029530911475,0.03907323347333376,0.00197798047069279
1.5009297230140457,0.0390355018056212,0.05971585034982251,0.03287087235373193,0.048595416853152766,-0.0005478673712239647
1.5010012401689723,0.04067274274449097,0.061650988522190094,0.0349635290275476,0.05663153985958763,-0.003393642745868917
1.5010727573238989,0.04213722341942038,0.061889548818352805,0.036798409825528795,0.062317850746755346,-0.005116135828402523
1.5011442744788255,0.043587855733941964,0.06187433473619574,0.03793328428010061,0.0670950458019175,-0.00690013556682241
1.501215791633752,0.044880915226329254,0.061532097149350526,0.03824814004694497,0.07067861895295818,-0.008682617463467799
1.5012873087886787,0.045592465454410994,0.06251621123025264,0.03896037083855539,0.07402074399365394,-0.00999970766315786
1.5013588259436053,0.04519857422015515,0.06179509466651531,0.038338310339186395,0.07435029187146737,-0.010702071451776861
1.5014303430985318,0.04331902735671992,0.05793874766917668,0.03525172960142179,0.0742124818596179,-0.013175065978308824
1.5015018602534584,0.03989064242203222,0.04983911742856208,0.029380562295107576,0.07103678074357052,-0.01621329838981317
1.501573377408385,0.035207008956161204,0.040326906988823324,0.02275340008029923,0.06669130359534972,-0.019203724444093746
1.5016448945633116,0.029854908046904056,0.03167818718243378,0.01716592382272006,0.059272112951977145,-0.01958039451911962
1.5017164117182382,0.02460404968418353,0.02444422941221368,0.01272729457488559,0.05072632669427525,-0.0183684464261088
1.5017879288731648,0.020274028275387688,0.02008684991720276,0.010756457121333964,0.043331936080917476,-0.015781496201815237
1.5018594460280914,0.01756978332877583,0.01793539944414696,0.009814843547662735,0.038881446981634295,-0.014024130654298129
1.501930963183018,0.016887968997375314,0.01745669252001934,0.009773529530205848,0.03418220035012749,-0.01138477226222326
1.5020024803379446,0.018154766828972088,0.01666255150596202,0.009545857603491862,0.029493052680053884,-0.008905443283648899
1.5020739974928712,0.020807783027131654,0.017259473857643523,0.00997328939183271,0.02574206088001479,-0.006420870033200471
1.5021455146477978,0.023992628107040868,0.019835389294461592,0.01144212206274167,0.023799102508805698,-0.004107129918228662
1.5022170318027244,0.026898257150269028,0.024432499821414856,0.014028974316248104,0.025470830895559977,-0.0029275529717703885
1.502288548957651,0.029041972437567,0.02927669330342588,0.016679671046279716,0.02914983984780659,-0.002836142957433984
1.5023600661125776,0.03036170293294545,0.03444278716246524,0.019990738498687276,0.03459432390869499,-0.0032042801357094995
1.5024315832675041,0.031115659296329378,0.035203271224959316,0.02077896981185265,0.039164047198620565,-0.005153680728069327
1.5025031004224307,0.031680428730509906,0.03232615234057681,0.019519808615351825,0.04174506978911098,-0.007659545289121106
1.5025746175773573,0.032340192227813126,0.028548105273251377,0.018649627815208736,0.04118389360459178,-0.00805727754079586
1.502646134732284,0.033131945974426154,0.025901920847622936,0.017871043624403338,0.03866714767361136,-0.007266981324237549
1.5027176518872105,0.033797027787609374,0.02543613303917842,0.01799769758677829,0.03723990463451771,-0.006350801214789309
1.502789169042137,0.033871437590867574,0.024210298099573726,0.017486670760106647,0.03481175145528727,-0.005390791024643631
1.5028606861970637,0.03289397904446062,0.020849196639118845,0.015274482970942199,0.03235615781614555,-0.005816455701344457
1.5029322033519903,0.030638444170610023,0.016950799918818985,0.012011118949132128,0.03033315728005051,-0.007353425881070146
1.5030037205069169,0.02725242384486997,0.014787079371009253,0.009441040885373031,0.02880155351453871,-0.00859853625387964
1.5030752376618435,0.023245599290448483,0.016146472428919655,0.008606550278537486,0.027767015750442183,-0.008697286800850005
1.50314675481677,0.019358366958489085,0.019538228562426176,0.008953985446160287,0.027031370181658104,-0.007993006239176271
1.5032182719716967,0.01638051368297583,0.023983583190494425,0.010426555451109277,0.02670955775276614,-0.006597753123434788
1.5032897891266233,0.01497089818834955,0.028307662362623765,0.012350463029946239,0.02715843881743754,-0.005268969922772749
1.5033613062815498,0.015499460648454992,0.03176428846405637,0.013981854206916533,0.02702277040392431,-0.0038485707012799286
1.5034328234364764,0.01793079665045714,0.03229221106763187,0.01416864675154985,0.024443673157402052,-0.0022286879692903225
1.503504340591403,0.021792554285279486,0.03181270415047703,0.013806564009865633,0.02107018209014426,-0.0006094349504084254
1.5035758577463296,0.026283745634476982,0.03461007991047102,0.015751292513310384,0.020326094430845487,0.0014146133883849174
1.5036473749012562,0.03053094650102892,0.04010118359106548,0.019003856556851165,0.02438666376044345,0.001785438959437097
1.5037188920561828,0.03389868374654469,0.04746263572970699,0.02304438568669538,0.03269917885766571,0.00038922010953867307
1.5037904092111094,0.03619247413189749,0.05648769456395983,0.02836367437687625,0.04249162032598837,-0.0007940429309660824
1.503861926366036,0.03764566473947448,0.06338213964706517,0.03246316988130233,0.052247427501003564,-0.002962313359278653
1.5039334435209626,0.038716510453014726,0.0666701391343441,0.03408384953452373,0.061907160233945074,-0.007124422638410385
1.5040049606758892,0.0398171228344044,0.06828036316119551,0.03557140334761458,0.06889092459167195,-0.009875664221919702
1.5040764778308158,0.041095739566223526,0.07176758283973486,0.037525773851031737,0.07439937083303852,-0.011401889956104354
1.5041479949857424,0.04234364882306056,0.07512320971132724,0.038887791087543686,0.0791364356612132,-0.012978919030795172
1.504219512140669,0.043051695709888996,0.07653311858160765,0.03921573232033744,0.08291596372708931,-0.014865853706914357
1.5042910292955955,0.04260283060723393,0.07177339921980962,0.036347749549566495,0.0841028958061082,-0.01791643739702752
1.5043625464505221,0.04053910287302065,0.06065358458548997,0.030363706364527798,0.08107925760131604,-0.021135232130945376
1.5044340636054487,0.03679439695722014,0.04669277885625054,0.02344001313236871,0.07332321055643172,-0.022421931767595816
1.5045055807603753,0.03178229372791513,0.03449603505743814,0.01698689592080203,0.06537942040976946,-0.023210613642029396
1.504577097915302,0.026296542555493532,0.02611032224018349,0.012446934359831944,0.057347660869894734,-0.022372038790473902
1.5046486150702285,0.021278189004975218,0.02296830477096006,0.011187449324425095,0.05044072477466912,-0.019474129707488172
1.504720132225155,0.017555651134353225,0.02201396402203398,0.011283372248322305,0.04523184055742321,-0.01642905970478874
1.5047916493800817,0.01564621916050789,0.020897858536217194,0.010644076718018416,0.04134202639090419,-0.014741492723520126
1.5048631665350083,0.015656872938766518,0.018614714051321885,0.009217644422453899,0.036049514577803574,-0.012904653471364672
1.5049346836899349,0.017286051262519187,0.01703327115780646,0.008230188330603324,0.03046135027012329,-0.010539194121203542
1.5050062008448615,0.019918755698584013,0.016942391569468983,0.007905738300784866,0.025293193583279805,-0.007867699629407882
1.505077717999788,0.022804926807040774,0.01915896459283897,0.009361654152707073,0.021413568611292073,-0.004463846565927012
1.5051492351547147,0.025289013466251117,0.024123139502953656,0.011726326065843064,0.023991701866780395,-0.003982630002606324
1.5052207523096413,0.027015644551186973,0.02926573281359513,0.014241445734319206,0.027998987532450163,-0.004189791681838941
1.5052922694645678,0.028012475009877,0.031935994845219216,0.015961322224474977,0.03057518670216796,-0.004238121065388985
1.5053637866194944,0.028596359216805502,0.02874203490107924,0.014919408532213189,0.03064492441153921,-0.005135843326675527
1.505435303774421,0.02915112616185344,0.022197082321024894,0.013309044659559194,0.027911092831525947,-0.004907589122056009
1.5055068209293476,0.029900153036102176,0.017671499221185216,0.012321918805932341,0.025044609941773776,-0.004090793216157766
1.5055783380842742,0.030782681811496897,0.017022924655476508,0.01250866989698158,0.023478139742789454,-0.003046609349902846
1.5056498552392008,0.03146961942071043,0.0193748625704441,0.013496870470295333,0.024796996768299877,-0.002982648454208383
1.5057213723941274,0.03149161794629547,0.020565299846615984,0.013134126432083434,0.027137473420411378,-0.0046118032676546305
1.505792889549054,0.030427310908792447,0.019984789232677404,0.011855838401314541,0.029633482730463317,-0.007083435840117179
1.5058644067039806,0.02809465201809536,0.01771777098658718,0.009674998552531539,0.030172159549567243,-0.00918529165211887
1.5059359238589072,0.024683284499830333,0.01395808128065514,0.006168765257997816,0.029265127752435775,-0.01155586591965137
1.5060074410138338,0.020766913938386953,0.011622317694007041,0.003987129865862614,0.02714485271141541,-0.012145892826467412
1.5060789581687604,0.017165658691511196,0.012780251447025557,0.004506773893992003,0.02471004735657139,-0.010333865874633008
1.506150475323687,0.014695536880755058,0.015421670783374999,0.005603202541494299,0.02387464015386956,-0.008956503215758834
1.5062219924786135,0.013907828977730352,0.017802579374796176,0.006474304461408025,0.023050746975881012,-0.007771145706113471
1.5062935096335401,0.014929925183180436,0.018404582604198878,0.007024475314287043,0.01984284855536731,-0.005494862593616563
1.5063650267884667,0.01746107614733839,0.01748326887902906,0.006681651925523114,0.016873616856777105,-0.004089462584505333
1.5064365439433933,0.020900617081537138,0.019242408541973084,0.008103902228742074,0.014572449947752544,-0.0016111254409911654
1.50650806109832,0.024545654709518663,0.023664763669484824,0.01119024144466396,0.012553541951933542,0.002076424498826358
1.5065795782532465,0.027795889555703463,0.03119320126601656,0.015188716512202768,0.01632446451267759,0.003225298960549834
1.506651095408173,0.030315638754338018,0.04103610859257734,0.02020329875354711,0.023106912603584377,0.0035005516607703713
1.5067226125630997,0.03210575674634778,0.05088283683590227,0.02516307524326057,0.031774287381502696,0.002660847556025719
1.5067941297180263,0.03344435853615213,0.05664113858435006,0.02809340030703321,0.03999739922599437,0.00040150416954850827
1.5068656468729529,0.03469846610783441,0.057265036994729346,0.028836225363534616,0.04490550354746423,-0.0017773130117422912
1.5069371640278795,0.03608805388876267,0.05630232229514438,0.029158238083419115,0.04740715359637736,-0.0029348959446882377
1.507008681182806,0.03753193323000867,0.056069897493241566,0.029645090979329304,0.05001057531050973,-0.004014678702081912
1.5070801983377327,0.038657419159163646,0.0561699171473446,0.03000532215028713,0.051703361421218286,-0.004680885557933024
1.5071517154926592,0.038950459296790155,0.0548122648690195,0.029635790998015537,0.05167451820484759,-0.004969358698539988
1.5072232326475858,0.03795818995272562,0.048967208212591394,0.026170643808596194,0.05099260655292661,-0.0074396067238148254
1.5072947498025124,0.035465807062779846,0.04156102700351342,0.02167628316777021,0.0490058790929386,-0.010014426565135896
1.507366266957439,0.03160750390290827,0.035375088223989055,0.01779655130545853,0.046152273075847294,-0.011587587070951658
1.5074377841123656,0.02689036393457737,0.030083964958942843,0.014369878001425985,0.043131330658668525,-0.012691252996477508
1.5075093012672922,0.022110982309926926,0.02543738546379405,0.012274203971852665,0.03900872216119655,-0.01207135067669285
1.5075808184222188,0.018158898886019043,0.022385966077970512,0.010838451012952628,0.03680769796415035,-0.012001435210873535
1.5076523355771454,0.015750547010193554,0.020467478282402588,0.009985828883372298,0.034833040727861024,-0.011580180338384047
1.507723852732072,0.015198153002695225,0.017145684778292574,0.008495434228764531,0.030504343082301166,-0.010345283706122832
1.5077953698869986,0.01632710132796861,0.012733684604442021,0.006411917338543193,0.02425597453592688,-0.008507646689425318
1.5078668870419252,0.01858159605132472,0.009551840300747025,0.00521914285473996,0.01748678760980697,-0.005641645343992813
1.5079384041968518,0.02125563485920751,0.0077545600258308095,0.005152249488431391,0.010358038171201189,-0.0016455460496576917
1.5080099213517784,0.023737553869918368,0.007740481755128833,0.0057615299185219465,0.006271580367708428,0.0011778327160775718
1.508081438506705,0.025680396681245936,0.009944454044661042,0.007453924502377228,0.004574304994781451,0.003534957269938943
1.5081529556616315,0.027059576075294776,0.012061117231211513,0.008842952470356694,0.004441473058971236,0.004753553610271653
1.5082244728165581,0.028112039179855254,0.011476129091757848,0.008942296206187028,0.004081834856675,0.005039639709508633
1.5082959899714847,0.029172386947160022,0.00935061236438735,0.008780907310022895,0.003807938108155519,0.005062435563545744
1.5083675071264113,0.03045818310099522,0.009386828889117944,0.010026451111954632,0.004132339873639643,0.005903184164351845
1.508439024281338,0.03190386747651281,0.01363054635094974,0.012747040105629182,0.006389309084198885,0.006860044341657407
1.5085105414362645,0.03314377564440417,0.01988100008801402,0.01600259242207933,0.010760737704731576,0.007056337526626634
1.508582058591191,0.03366149064758627,0.024974604560623538,0.0186299276568245,0.015061153002988251,0.006776286374080488
1.5086535757461177,0.03301661123576188,0.024657792054485577,0.017302793300784304,0.017429580349402438,0.004337954786504314
1.5087250929010443,0.031031763736761156,0.02026537957810147,0.013978643770450466,0.017803858710776835,0.0013884461164217622
1.5087966100559709,0.02787943173947238,0.014589540200500255,0.009773118861112214,0.016074581474426135,-0.001090825188459167
1.5088681272108975,0.024071143965329337,0.009378684647753233,0.005405399448016361,0.014446514263843033,-0.003760518217621137
1.508939644365824,0.020368522042175177,0.0052781154676284315,0.002619426200917792,0.011399753217721544,-0.004321897385985177
1.5090111615207507,0.017622660517009992,0.0033228063453673005,0.001280243020763253,0.010060350828325982,-0.004662831315855114
1.5090826786756772,0.016549556574789192,0.0027281878225292335,0.001094148915450876,0.010420568571728463,-0.0050206634112729635
1.5091541958306038,0.01749078347259404,0.0029214147368893813,0.001728275756159572,0.009527681014386799,-0.003991452233688915
1.5092257129855304,0.02026609634215111,0.0037393461381533023,0.002622344403247119,0.006789141296510194,-0.0016996034551438203
1.509297230140457,0.024225306810832306,0.0075948903745898895,0.005090188490138515,0.004552807093375276,0.001601938144556159
1.5093687472953836,0.028505184243561566,0.016278973193194688,0.010396256019729185,0.004385250300340423,0.006063843001476661
1.5094402644503102,0.032363241212534366,0.028160253201335503,0.017181792517199104,0.007810764912031773,0.009702843750863645
1.5095117816052368,0.035420479974014,0.041178109800343116,0.023785576506019895,0.01398354538453691,0.01163376542534167
1.5095832987601634,0.03772295943106026,0.0508488731253333,0.028541189697550762,0.0195089122941483,0.012412805976647182
1.50965481591509,0.039632532833370364,0.053748571014227586,0.030196375009199177,0.023323651707826132,0.01161010720066447
1.5097263330700166,0.041605230836871475,0.048866617932875826,0.028415936049993602,0.023972307104057785,0.009774503301632636
1.5097978502249432,0.04392716574129624,0.04129522501284769,0.026087173799228647,0.020164570492547114,0.010018725504697087
1.5098693673798698,0.04649881119729661,0.03700056478001982,0.025125670272120693,0.015955632922158243,0.011617349034085473
1.5099408845347964,0.048782229516577,0.03723746000841346,0.025898717163670308,0.015280593033291122,0.01263743079813297
1.510012401689723,0.04998265464348263,0.04025414501224268,0.027970420605425636,0.016532551933304104,0.013632876049934144
1.5100839188446495,0.04939582665258717,0.040621546840081034,0.02744804663090382,0.017982251857769135,0.012379275604208461
1.5101554359995761,0.046726633743720845,0.03771327631228019,0.024915387052692306,0.018705717270440205,0.009882134475488996
1.5102269531545027,0.04221494386441091,0.034379138943049684,0.022036546886626967,0.01872893407636115,0.007497842142991202
1.5102984703094293,0.0365554045951188,0.03233100876593739,0.019143160662124768,0.019874133711613493,0.004464403916648598
1.510369987464356,0.030705701566729478,0.031984926641042674,0.01712115674686206,0.02153724704075724,0.0018543065324751616
1.5104415046192825,0.025671938650474672,0.03291878024681214,0.016152578444133103,0.02360574755256354,-0.00011882199301034185
1.510513021774209,0.02230380117340663,0.03441600454718257,0.01595046449902194,0.02654025160287803,-0.001953203392083853
1.5105845389291357,0.02110478427342222,0.03274902601467386,0.014310671393420193,0.026929365615354868,-0.003524714005243915
1.5106560560840623,0.022087028251984653,0.02722072214864158,0.011927341615445858,0.022259919347153604,-0.002832779487275108
1.5107275732389889,0.02474352062355467,0.01847419825473377,0.008315005741078718,0.014697647730381394,-0.0015085188470420844
1.5107990903939155,0.028206425428266402,0.011833195435722131,0.006455089330600415,0.006621451918695283,0.001549811843294654
1.510870607548842,0.03156791810921427,0.008757867702489847,0.006924877381908108,0.0004963570420906771,0.005416513272909711
1.5109421247037687,0.034217944840168574,0.009202486569886488,0.0085255112555674,-0.0016858895185202622,0.007973552910460159
1.5110136418586952,0.036025983655989566,0.012884263179003616,0.01161661354179527,-0.001036820600450611,0.010148542445560071
1.5110851590136218,0.03729532439305516,0.014865212909341997,0.013294021431409462,0.001089743155884589,0.010320890676833132
1.5111566761685484,0.03854470610167679,0.013571277384149958,0.013163190298163863,0.00354145039828134,0.008820429656459532
1.511228193323475,0.04022460916569971,0.012221384925595854,0.013651672900344249,0.003583251923028703,0.009198716823162374
1.5112997104784016,0.04246467581659284,0.013315543069604061,0.01442102957265151,0.0037972856006756126,0.009710338550812048
1.5113712276333282,0.04493429586497486,0.01868035472931442,0.016921655013448497,0.005903164968658028,0.010572310470821963
1.5114427447882548,0.04689231770787431,0.02493198872982793,0.019784155718843215,0.008721467156806148,0.011327842865820283
1.5115142619431814,0.047454803887083834,0.02761512407547276,0.02007376929597759,0.011452446883572786,0.01001505177426581
