freq,gls,usurper,pdc_unbiased,shape_periodogram,shift_periodogram
1.5,0.031605246424144244,0.035815471728838214,0.022003088454338578,0.02538618406612454,0.011492409203912677
1.5000715171549266,0.028595336453250155,0.028636601786952896,0.01679692217781675,0.019706701336087405,0.00865385243040885
1.5001430343098532,0.024797888546036324,0.02285117028845301,0.011419584810450916,0.01587609265811848,0.004997092762034977
1.5002145514647798,0.020789812632417533,0.021305095543390423,0.008796510756732951,0.013389366938874315,0.0034345729682099956
1.5002860686197064,0.017345459787468324,0.024750999331876213,0.009479677332466734,0.013407495488408116,0.004066326054935369
1.500357585774633,0.015271945925960987,0.030242641137798867,0.011714688134418397,0.014974111844946342,0.005594920910005734
1.5004291029295596,0.015165201318802408,0.0367811970113254,0.01415548030345099,0.019021138378235804,0.006430293300370881
1.5005006200844861,0.01716595655706576,0.04301892601702288,0.016954003693511403,0.022363154240238207,0.00785218884833137
1.5005721372394127,0.02086274426290797,0.04809951229130773,0.019187221778694714,0.025331102626697938,0.008879832407932163
1.5006436543943393,0.02544081002802935,0.05262860699430828,0.02137618975240262,0.028010406359607692,0.0099696199284953
1.500715171549266,0.03000884122307953,0.05729356068743288,0.02421994995090846,0.028723451731743593,0.012373938182853617
1.5007866887041925,0.03391266896856934,0.06255357601331549,0.02666061786266369,0.03163900163092987,0.013615875115000967
1.500858205859119,0.0368882624749449,0.0683978581528642,0.029368029530911475,0.03605012131614236,0.014574525422221412
1.5009297230140457,0.0390355018056212,0.07449779051739029,0.03287087235373193,0.04161253687276894,0.01586815938959188
1.5010012401689723,0.04067274274449097,0.07643381905731365,0.0349635290275476,0.04634934269991096,0.016137799491902246
1.5010727573238989,0.04213722341942038,0.07612723207328223,0.036798409825528795,0.04955402069996178,0.016713299462256352
1.5011442744788255,0.043587855733941964,0.07568941120573235,0.03793328428010061,0.052659691776218744,0.016668893511117784
1.501215791633752,0.044880915226329254,0.0747042717702593,0.03824814004694497,0.05538785133987156,0.015990889670585557
1.5012873087886787,0.045592465454410994,0.07571942353896965,0.03896037083855539,0.05809857136697041,0.015691507007386637
1.5013588259436053,0.04519857422015515,0.07527334127341277,0.038338310339186395,0.05769922742024338,0.015250869278250414
1.5014303430985318,0.04331902735671992,0.07146648932615783,0.03525172960142179,0.056381347156578554,0.012828441599260068
1.5015018602534584,0.03989064242203222,0.06328116837161979,0.029380562295107576,0.05306452435010761,0.008512931200238091
1.501573377408385,0.035207008956161204,0.05331636432097133,0.02275340008029923,0.04917638507845551,0.003698057092945037
1.5016448945633116,0.029854908046904056,0.04417340880365975,0.01716592382272006,0.04410420046891502,0.000283469640122029
1.5017164117182382,0.02460404968418353,0.03637637511681459,0.01272729457488559,0.03888689115231747,-0.0020020881300445216
1.5017879288731648,0.020274028275387688,0.031213282627520173,0.010756457121333964,0.03427425579270915,-0.002195576199939939
1.5018594460280914,0.01756978332877583,0.02844449263617781,0.009814843547662735,0.03206006987070109,-0.0022842567249907117
1.501930963183018,0.016887968997375314,0.027267244190621272,0.009773529530205848,0.029574805009556285,-0.0014346409829984125
1.5020024803379446,0.018154766828972088,0.02576406359530625,0.009545857603491862,0.027321373338448033,-0.0008421495241680057
1.5020739974928712,0.020807783027131654,0.025902352531711345,0.00997328939183271,0.026691531730593365,-0.0002176561667513657
1.5021455146477978,0.023992628107040868,0.028505196990797226,0.01144212206274167,0.02666274873287655,0.0011652979506588726
1.5022170318027244,0.026898257150269028,0.03341362985806696,0.014028974316248104,0.027284085188788585,0.0033610020372782713
1.502288548957651,0.029041972437567,0.03902632649734763,0.016679671046279716,0.028771830869907786,0.005307241294880472
1.5023600661125776,0.03036170293294545,0.04478421371862,0.019990738498687276,0.03024631630448364,0.007876061527681402
1.5024315832675041,0.031115659296329378,0.04548460642977407,0.02077896981185265,0.030823806619450705,0.008406833906333568
1.5025031004224307,0.031680428730509906,0.042139420266467026,0.019519808615351825,0.030870901020530084,0.007212743738888925
1.5025746175773573,0.032340192227813126,0.03693795796913848,0.018649627815208736,0.02904245800820536,0.0070521356453888415
1.502646134732284,0.033131945974426154,0.032664682209862426,0.017871043624403338,0.026434104568201063,0.007255721005929256
1.5027176518872105,0.033797027787609374,0.031339749863469324,0.01799769758677829,0.025297826874467078,0.007779834762478527
1.502789169042137,0.033871437590867574,0.029596349017243888,0.017486670760106647,0.02285606921341587,0.008174026790870412
1.5028606861970637,0.03289397904446062,0.025858173172696935,0.015274482970942199,0.020471125945495713,0.006958188342203502
1.5029322033519903,0.030638444170610023,0.021694829486266106,0.012011118949132128,0.018398672649454773,0.004648895567382257
1.5030037205069169,0.02725242384486997,0.019887367117935182,0.009441040885373031,0.017511628236868363,0.0025644033120626633
1.5030752376618435,0.023245599290448483,0.022233660130031356,0.008606550278537486,0.01854796505743735,0.0014145679312938962
1.50314675481677,0.019358366958489085,0.026652385663413537,0.008953985446160287,0.01985471698206118,0.001272395442293994
1.5032182719716967,0.01638051368297583,0.03200426846446862,0.010426555451109277,0.020743731157443525,0.002330740707511533
1.5032897891266233,0.01497089818834955,0.036682431794069575,0.012350463029946239,0.02152809471138892,0.0038483101080698224
1.5033613062815498,0.015499460648454992,0.04036798637171587,0.013981854206916533,0.020875665077726938,0.005605789077875429
1.5034328234364764,0.01793079665045714,0.04102820237752682,0.01416864675154985,0.01813196823915043,0.00676010845491622
1.503504340591403,0.021792554285279486,0.04025294681163692,0.013806564009865633,0.015720293148860726,0.007282943629938151
1.5035758577463296,0.026283745634476982,0.042751316047575684,0.015751292513310384,0.016779414505646573,0.00872189148602948
1.5036473749012562,0.03053094650102892,0.04830085375939755,0.019003856556851165,0.020699985626622175,0.010361740235616411
1.5037188920561828,0.03389868374654469,0.05628654858717089,0.02304438568669538,0.027425761466316378,0.011737942788892864
1.5037904092111094,0.03619247413189749,0.06658313209488706,0.02836367437687625,0.033858701754844435,0.014416801824943908
1.503861926366036,0.03764566473947448,0.0746628508634568,0.03246316988130233,0.03931778390564652,0.016305055025883752
1.5039334435209626,0.038716510453014726,0.07894735413388394,0.03408384953452373,0.04472804358254016,0.015892412901055766
1.5040049606758892,0.0398171228344044,0.08104446847168956,0.03557140334761458,0.04895077147925809,0.01577918987735405
1.5040764778308158,0.041095739566223526,0.08514360189345618,0.037525773851031737,0.05342048593824899,0.016015716638479012
1.5041479949857424,0.04234364882306056,0.08910416530038431,0.038887791087543686,0.05748588308785231,0.015842031954838055
1.504219512140669,0.043051695709888996,0.09066188751644591,0.03921573232033744,0.05958866205094398,0.015399317874177284
1.5042910292955955,0.04260283060723393,0.08552408514898573,0.036347749549566495,0.05889486808604558,0.012958432537444577
1.5043625464505221,0.04053910287302065,0.0733019245424463,0.030363706364527798,0.05516484058158577,0.008683491123182781
1.5044340636054487,0.03679439695722014,0.05789194271893419,0.02344001313236871,0.048020743737518065,0.004753638292164756
1.5045055807603753,0.03178229372791513,0.04445149973086465,0.01698689592080203,0.04156483891652986,0.0010237757210726803
1.504577097915302,0.026296542555493532,0.035069154530351414,0.012446934359831944,0.036659927823481035,-0.0014680827391424464
1.5046486150702285,0.021278189004975218,0.031173003396696274,0.011187449324425095,0.0331063780127901,-0.001375274381794105
1.504720132225155,0.017555651134353225,0.029332308450551722,0.011283372248322305,0.03042447316263771,-0.0003271582157319709
1.5047916493800817,0.01564621916050789,0.027309077025509,0.010644076718018416,0.027823453989029464,4.772948504128342e-06
1.5048631665350083,0.015656872938766518,0.02445213396977918,0.009217644422453899,0.024236982347686106,-4.679413484418445e-05
1.5049346836899349,0.017286051262519187,0.02258637222223269,0.008230188330603324,0.02044784556591814,0.00038424753653178124
1.5050062008448615,0.019918755698584013,0.022413039599968345,0.007905738300784866,0.017981313040173454,0.0009622212453852821
1.505077717999788,0.022804926807040774,0.024775089577047334,0.009361654152707073,0.016051710661638734,0.0030116750216351708
1.5051492351547147,0.025289013466251117,0.03032092364099779,0.011726326065843064,0.019192143332737426,0.004099409944138165
1.5052207523096413,0.027015644551186973,0.03636280833755273,0.014241445734319206,0.023219026340382275,0.00501150069244577
1.5052922694645678,0.028012475009877,0.03956312171460621,0.015961322224474977,0.024523515622667143,0.0061530001257785955
1.5053637866194944,0.028596359216805502,0.03627470523886351,0.014919408532213189,0.022900678004126037,0.005758777916993142
1.505435303774421,0.02915112616185344,0.02864312936148072,0.013309044659559194,0.01854787837449013,0.005808372279314045
1.5055068209293476,0.029900153036102176,0.022698040732404508,0.012321918805932341,0.014916639607053323,0.0061827781498937145
1.5055783380842742,0.030782681811496897,0.021306904757124906,0.01250866989698158,0.013422112438928106,0.006890942440682679
1.5056498552392008,0.03146961942071043,0.0235061228889061,0.013496870470295333,0.014182951416364173,0.007542530356526006
1.5057213723941274,0.03149161794629547,0.024913433806532458,0.013134126432083434,0.015018422595689009,0.0069052861578615095
1.505792889549054,0.030427310908792447,0.024470843611916808,0.011855838401314541,0.015364096147083041,0.005587529116766
1.5058644067039806,0.02809465201809536,0.022393026180424866,0.009674998552531539,0.014158058882647335,0.003980743748654561
1.5059359238589072,0.024683284499830333,0.019269543395176017,0.006168765257997816,0.012808176713185924,0.0011873433144811256
1.5060074410138338,0.020766913938386953,0.017409084840852407,0.003987129865862614,0.012541689789456457,-0.0007554421172389652
1.5060789581687604,0.017165658691511196,0.018797725337593482,0.004506773893992003,0.011565535889427206,7.865822772685929e-05
1.506150475323687,0.014695536880755058,0.021632479611412205,0.005603202541494299,0.011838345693186416,0.0010054287459094133
1.5062219924786135,0.013907828977730352,0.02376525051193521,0.006474304461408025,0.0116722214377239,0.0018785057502147355
1.5062935096335401,0.014929925183180436,0.023673810023119666,0.007024475314287043,0.009065811785094746,0.0033233527532732627
1.5063650267884667,0.01746107614733839,0.02165295326398521,0.006681651925523114,0.005932714245017038,0.0041220951723441495
1.5064365439433933,0.020900617081537138,0.022304437433872504,0.008103902228742074,0.004462664744748267,0.005975617311996886
1.50650806109832,0.024545654709518663,0.026379450955408827,0.01119024144466396,0.0031604040363330957,0.009323602862767589
1.5065795782532465,0.027795889555703463,0.034422424619394154,0.015188716512202768,0.005606790574419234,0.012185178507343993
1.506651095408173,0.030315638754338018,0.04559754113685164,0.02020329875354711,0.010307408401835593,0.015192042992445658
1.5067226125630997,0.03210575674634778,0.057237202664530314,0.02516307524326057,0.016405345225764083,0.017650814342923038
1.5067941297180263,0.03344435853615213,0.06396343987586045,0.02809340030703321,0.022034741485476645,0.01838183435387607
1.5068656468729529,0.03469846610783441,0.06478255706958412,0.028836225363534616,0.025414253267734124,0.01787099869683486
1.5069371640278795,0.03608805388876267,0.06332901159684544,0.029158238083419115,0.02727985136695601,0.01750672487036954
1.507008681182806,0.03753193323000867,0.06259495574338027,0.029645090979329304,0.029601058773102488,0.017134144093114444
1.5070801983377327,0.038657419159163646,0.062108476727496725,0.03000532215028713,0.03079211316139526,0.0170462650350997
1.5071517154926592,0.038950459296790155,0.06020236819348536,0.029635790998015537,0.03013597417287607,0.016934659216306033
1.5072232326475858,0.03795818995272562,0.05394279631515383,0.026170643808596194,0.02855435356266063,0.014258302165674934
1.5072947498025124,0.035465807062779846,0.0460320474555849,0.02167628316777021,0.026158315991016184,0.0109112970804835
1.507366266957439,0.03160750390290827,0.03979479437575695,0.01779655130545853,0.02374650169248701,0.008145728925982228
1.5074377841123656,0.02689036393457737,0.03437076683226066,0.014369878001425985,0.022477034538388486,0.00539651383116535
1.5075093012672922,0.022110982309926926,0.029195571733884616,0.012274203971852665,0.020700060642678455,0.004072791437250876
1.5075808184222188,0.018158898886019043,0.025827616127427108,0.010838451012952628,0.020550425048451865,0.0027846579644229636
1.5076523355771454,0.015750547010193554,0.0236602522940612,0.009985828883372298,0.01898770000291436,0.0025461822226376077
1.507723852732072,0.015198153002695225,0.019559746122001065,0.008495434228764531,0.015273702359372003,0.002480285862202138
1.5077953698869986,0.01632710132796861,0.014658759433803254,0.006411917338543193,0.01053324906234541,0.002227032997480672
1.5078668870419252,0.01858159605132472,0.01088073902198345,0.00521914285473996,0.0060544519314019996,0.0027125033727198517
1.5079384041968518,0.02125563485920751,0.008479046364570317,0.005152249488431391,0.001700456638041407,0.004205075919528219
1.5080099213517784,0.023737553869918368,0.00827613865406494,0.0057615299185219465,-0.0005905637053347684,0.0055924265545178285
1.508081438506705,0.025680396681245936,0.011060841074401188,0.007453924502377228,-0.0009412160699132267,0.007298430987208015
1.5081529556616315,0.027059576075294776,0.013926626082310337,0.008842952470356694,-0.000801308955137785,0.008545876968323391
1.5082244728165581,0.028112039179855254,0.013500032711193679,0.008942296206187028,-0.0011843141663522576,0.008775455309928716
1.5082959899714847,0.029172386947160022,0.01124516564098974,0.008780907310022895,-0.00039281889284631914,0.008342035984314669
1.5083675071264113,0.03045818310099522,0.011042905657618611,0.010026451111954632,0.0021927980696303446,0.008582059614923768
1.508439024281338,0.03190386747651281,0.015384147423363647,0.012747040105629182,0.006557630979284431,0.009564756850898352
1.5085105414362645,0.03314377564440417,0.022220356700005918,0.01600259242207933,0.01120324772326396,0.010947491665126647
1.508582058591191,0.03366149064758627,0.027630200929778165,0.0186299276568245,0.013257007382877953,0.012669149502606076
1.5086535757461177,0.03301661123576188,0.027879618107185315,0.017302793300784304,0.012685942001496045,0.011632975420501679
1.5087250929010443,0.031031763736761156,0.023655846067279687,0.013978643770450466,0.010474360185319335,0.009316821576958142
1.5087966100559709,0.02787943173947238,0.01808272870134861,0.009773118861112214,0.0073372917880403,0.006508264441929835
1.5088681272108975,0.024071143965329337,0.013124355355471132,0.005405399448016361,0.00538986944071684,0.0031238424733122964
1.508939644365824,0.020368522042175177,0.00891628322984537,0.002619426200917792,0.0030632064193356983,0.0013525656354788315
1.5090111615207507,0.017622660517009992,0.00654973311131875,0.001280243020763253,0.001787637883866188,0.0005573031468226214
1.5090826786756772,0.016549556574789192,0.005345522386266175,0.001094148915450876,0.0017609437417298042,0.0003930179082636123
1.5091541958306038,0.01749078347259404,0.004669584539173187,0.001728275756159572,0.0004982369672064706,0.0014363206872209198
1.5092257129855304,0.02026609634215111,0.005135711156957466,0.002622344403247119,-0.002329912433719704,0.003281550628119284
1.509297230140457,0.024225306810832306,0.00921593941992099,0.005090188490138515,-0.004312224535614899,0.006294634869485423
1.5093687472953836,0.028505184243561566,0.01827541819024053,0.010396256019729185,-0.0032732949163143837,0.010879572910405703
1.5094402644503102,0.032363241212534366,0.031040428624380587,0.017181792517199104,5.30692394576606e-05,0.016029810096152626
1.5095117816052368,0.035420479974014,0.045560352156268316,0.023785576506019895,0.004702442254942193,0.02053924194547841
1.5095832987601634,0.03772295943106026,0.056218128549963116,0.028541189697550762,0.008432537383881243,0.02365178760363925
1.50965481591509,0.039632532833370364,0.05906316462664022,0.030196375009199177,0.01024767457754056,0.024551144486046745
1.5097263330700166,0.041605230836871475,0.053152549625266346,0.028415936049993602,0.010017777197330957,0.022969317926227348
1.5097978502249432,0.04392716574129624,0.044076929194281946,0.026087173799228647,0.007339796063203367,0.02174858777649197
1.5098693673798698,0.04649881119729661,0.03825580268510851,0.025125670272120693,0.0051124932834435595,0.021644923615473658
1.5099408845347964,0.048782229516577,0.03733689172420853,0.025898717163670308,0.006739205676640058,0.021786779515445047
1.510012401689723,0.04998265464348263,0.03951475379648655,0.027970420605425636,0.008672041974957632,0.023033015036990567
1.5100839188446495,0.04939582665258717,0.03952626848538762,0.02744804663090382,0.009805153520442287,0.022140700629389023
1.5101554359995761,0.046726633743720845,0.03658291527289325,0.024915387052692306,0.009294532225958855,0.019956293947974067
1.5102269531545027,0.04221494386441091,0.03344981075132896,0.022036546886626967,0.00849213048946128,0.01755275619896803
1.5102984703094293,0.0365554045951188,0.03237789118674072,0.019143160662124768,0.008914971998514066,0.014698540200758128
1.510369987464356,0.030705701566729478,0.03362588273353851,0.01712115674686206,0.01123198961608765,0.011982302777847514
1.5104415046192825,0.025671938650474672,0.03608819770552375,0.016152578444133103,0.013889999485397592,0.010128431764383003
1.510513021774209,0.02230380117340663,0.03876645646680327,0.01595046449902194,0.01662505568170199,0.008963111185110485
1.5105845389291357,0.02110478427342222,0.037655970002321085,0.014310671393420193,0.016106005214255006,0.007616233462522399
1.5106560560840623,0.022087028251984653,0.031771129093336486,0.011927341615445858,0.012143577372118323,0.0068043823160430705
1.5107275732389889,0.02474352062355467,0.022269120693360643,0.008315005741078718,0.006177747828823067,0.005560303074328741
1.5107990903939155,0.028206425428266402,0.014591308302998388,0.006455089330600415,0.0006344300674762879,0.00580273003589815
1.510870607548842,0.03156791810921427,0.010782001339962162,0.006924877381908108,-0.003420926483316896,0.0076899351407562115
1.5109421247037687,0.034217944840168574,0.011317099467384562,0.0085255112555674,-0.0041229870124790255,0.009435722247139466
1.5110136418586952,0.036025983655989566,0.015620382784384653,0.01161661354179527,-0.0026356103354506937,0.011791684589311116
1.5110851590136218,0.03729532439305516,0.01800875102090286,0.013294021431409462,-0.0006418988078245255,0.01264648471452238
1.5111566761685484,0.03854470610167679,0.016795391165710376,0.013163190298163863,0.0017499852609414287,0.011670168287686817
1.511228193323475,0.04022460916569971,0.015618678084328737,0.013651672900344249,0.003174172318785869,0.011617923903475753
1.5112997104784016,0.04246467581659284,0.016946399285002408,0.01442102957265151,0.005461328935091816,0.011519968882786329
1.5113712276333282,0.04493429586497486,0.022906048319818,0.016921655013448497,0.009509131878041808,0.012410946271112668
1.5114427447882548,0.04689231770787431,0.029736175261788823,0.019784155718843215,0.013103837683701528,0.013802321670812133
1.5115142619431814,0.047454803887083834,0.032617519179869756,0.02007376929597759,0.016228249124455252,0.012957787911957747
1.511585779098108,0.04599085839647899,0.02923784783345875,0.017243949592298295,0.016485561073934955,0.010221575680184527
