freq,gls,usurper,pdc_unbiased,shape_periodogram,shift_periodogram
1.5,0.031605246424144244,0.034212428531786784,0.022003088454338578,0.0459170379613824,-0.02228993625860826
1.5000715171549266,0.028595336453250155,0.027268695013593067,0.01679692217781675,0.03866516076619641,-0.019843242543218963
1.5001430343098532,0.024797888546036324,0.021227439742424654,0.011419584810450916,0.03247164166914281,-0.018333682959213816
1.5002145514647798,0.020789812632417533,0.018931410870817816,0.008796510756732951,0.026452765065688257,-0.0152486459476455
1.5002860686197064,0.017345459787468324,0.021037715374023307,0.009479677332466734,0.022721826280124226,-0.011900652945036616
1.500357585774633,0.015271945925960987,0.0250669571014314,0.011714688134418397,0.02084685848645242,-0.009041568533203023
1.5004291029295596,0.015165201318802408,0.03012194498505386,0.01415548030345099,0.024139603658894147,-0.010102759561623329
1.5005006200844861,0.01716595655706576,0.03468564269338041,0.016954003693511403,0.02534204245773149,-0.00930360429612407
1.5005721372394127,0.02086274426290797,0.038075221568977795,0.019187221778694714,0.024979470649050532,-0.007629779512242022
1.5006436543943393,0.02544081002802935,0.04118058961359823,0.02137618975240262,0.024811704354849595,-0.006135909940102944
1.500715171549266,0.03000884122307953,0.0448271481155306,0.02421994995090846,0.025557187251260702,-0.004949650822680392
1.5007866887041925,0.03391266896856934,0.04940753225274284,0.02666061786266369,0.03140312927572744,-0.008010582591506764
1.500858205859119,0.0368882624749449,0.054894760886787915,0.029368029530911475,0.041195155852428715,-0.014000052075551895
1.5009297230140457,0.0390355018056212,0.061255266861876774,0.03287087235373193,0.05511480253384602,-0.022737444754244062
1.5010012401689723,0.04067274274449097,0.0645244064305621,0.0349635290275476,0.06911655042735154,-0.03243067471242374
1.5010727573238989,0.04213722341942038,0.0660344047559087,0.036798409825528795,0.0800216557724095,-0.0398630776101601
1.5011442744788255,0.043587855733941964,0.06709276065171142,0.03793328428010061,0.08989845115239863,-0.04693277804208054
1.501215791633752,0.044880915226329254,0.06733830053923262,0.03824814004694497,0.09670219476470801,-0.05209986182710366
1.5012873087886787,0.045592465454410994,0.06855103477956657,0.03896037083855539,0.10103637957928191,-0.05507501873295614
1.5013588259436053,0.04519857422015515,0.06803382627947599,0.038338310339186395,0.10281183160509548,-0.05686423639528023
1.5014303430985318,0.04331902735671992,0.06434735883072239,0.03525172960142179,0.10164178810530101,-0.05786472653245843
1.5015018602534584,0.03989064242203222,0.05637204679596733,0.029380562295107576,0.09658544036197693,-0.05753279642427085
1.501573377408385,0.035207008956161204,0.04697358460817807,0.02275340008029923,0.08995479682183341,-0.05643081630141156
1.5016448945633116,0.029854908046904056,0.038242885151495994,0.01716592382272006,0.0811099652983152,-0.05294232472666089
1.5017164117182382,0.02460404968418353,0.03077110065383653,0.01272729457488559,0.07162579162755235,-0.04824379002075093
1.5017879288731648,0.020274028275387688,0.02600287852971186,0.010756457121333964,0.06236332137984142,-0.0421928369523258
1.5018594460280914,0.01756978332877583,0.02337276078305406,0.009814843547662735,0.055978637927037014,-0.0377662445864806
1.501930963183018,0.016887968997375314,0.021828093838307434,0.009773529530205848,0.04679245375761059,-0.030584984061131772
1.5020024803379446,0.018154766828972088,0.01980064072244146,0.009545857603491862,0.03635572198929653,-0.022543376875624962
1.5020739974928712,0.020807783027131654,0.019156318163742296,0.00997328939183271,0.02650803082795783,-0.014560030369420628
1.5021455146477978,0.023992628107040868,0.020824407300564497,0.01144212206274167,0.020779740046261545,-0.009158540892797702
1.5022170318027244,0.026898257150269028,0.02514743624229089,0.014028974316248104,0.021696359117564065,-0.008267341978254752
1.502288548957651,0.029041972437567,0.030327630606274764,0.016679671046279716,0.02757953973915584,-0.011227477686453427
1.5023600661125776,0.03036170293294545,0.03635767140024032,0.019990738498687276,0.03780211864839289,-0.01717902852457017
1.5024315832675041,0.031115659296329378,0.03841441108289278,0.02077896981185265,0.049880882927635185,-0.026161505812554275
1.5025031004224307,0.031680428730509906,0.03685093580214531,0.019519808615351825,0.05842023724163188,-0.03364715461477975
1.5025746175773573,0.032340192227813126,0.034077732038647106,0.018649627815208736,0.0628494166942707,-0.03766649390549323
1.502646134732284,0.033131945974426154,0.03171341472646486,0.017871043624403338,0.06271937734585235,-0.03804870410510639
1.5027176518872105,0.033797027787609374,0.03114365224056099,0.01799769758677829,0.06107874742121464,-0.03668153405503197
1.502789169042137,0.033871437590867574,0.029742857225466657,0.017486670760106647,0.058342078558120146,-0.03485073206201657
1.5028606861970637,0.03289397904446062,0.026331685372153472,0.015274482970942199,0.05386216228743651,-0.03271046889391598
1.5029322033519903,0.030638444170610023,0.022371598564366883,0.012011118949132128,0.049712135447394404,-0.03148381830399024
1.5030037205069169,0.02725242384486997,0.020050532624812812,0.009441040885373031,0.04622221769519204,-0.030344482498120988
1.5030752376618435,0.023245599290448483,0.0211159758329165,0.008606550278537486,0.0446266519538179,-0.02961203424627151
1.50314675481677,0.019358366958489085,0.024115650783295334,0.008953985446160287,0.04413292161219203,-0.029008839511321483
1.5032182719716967,0.01638051368297583,0.028104402648571145,0.010426555451109277,0.044229216967080404,-0.02816869921613457
1.5032897891266233,0.01497089818834955,0.03198320019628192,0.012350463029946239,0.04453618711204887,-0.027212966514104785
1.5033613062815498,0.015499460648454992,0.03471845661548385,0.013981854206916533,0.04221614460518547,-0.0243788798977097
1.5034328234364764,0.01793079665045714,0.03435445832079848,0.01416864675154985,0.03567604626611584,-0.019135207129210702
1.503504340591403,0.021792554285279486,0.03265374968472744,0.013806564009865633,0.02588799847066427,-0.011689694108414698
1.5035758577463296,0.026283745634476982,0.03427163252566009,0.015751292513310384,0.0188119718343389,-0.004936256593107606
1.5036473749012562,0.03053094650102892,0.03911642982272451,0.019003856556851165,0.01916091282992502,-0.003185669017414137
1.5037188920561828,0.03389868374654469,0.0465773473810778,0.02304438568669538,0.027645636440572153,-0.007317862299182636
1.5037904092111094,0.03619247413189749,0.056553005511305966,0.02836367437687625,0.043621723969137105,-0.016528667269420656
1.503861926366036,0.03764566473947448,0.06500299914361285,0.03246316988130233,0.06333018154048649,-0.029442664341952855
1.5039334435209626,0.038716510453014726,0.07002947345515975,0.03408384953452373,0.08180777278093906,-0.042961323943133914
1.5040049606758892,0.0398171228344044,0.0731657829951245,0.03557140334761458,0.096537495852146,-0.053638793907976635
1.5040764778308158,0.041095739566223526,0.0773983468228134,0.037525773851031737,0.10669942898539148,-0.06044037455402225
1.5041479949857424,0.04234364882306056,0.08084377818920994,0.038887791087543686,0.11160637782486851,-0.06346836153396719
1.504219512140669,0.043051695709888996,0.08198206153729867,0.03921573232033744,0.11205251855721679,-0.06361656630946859
1.5042910292955955,0.04260283060723393,0.07712878531428594,0.036347749549566495,0.10808648990419142,-0.06227016152447912
1.5043625464505221,0.04053910287302065,0.06615043221443805,0.030363706364527798,0.09956167710390426,-0.05926798019682008
1.5044340636054487,0.03679439695722014,0.052507716596775146,0.02344001313236871,0.08802097682194777,-0.05448074184829783
1.5045055807603753,0.03178229372791513,0.040576532514927405,0.01698689592080203,0.07837446169698234,-0.050901862844277446
1.504577097915302,0.026296542555493532,0.0321775977986072,0.012446934359831944,0.06954961063032189,-0.04678659949714856
1.5046486150702285,0.021278189004975218,0.028936439811629442,0.011187449324425095,0.06349264642216915,-0.042811737977359446
1.504720132225155,0.017555651134353225,0.02774521837868139,0.011283372248322305,0.059276165620356626,-0.039441596262552774
1.5047916493800817,0.01564621916050789,0.026173181625116594,0.010644076718018416,0.05538338423037397,-0.0367836172363291
1.5048631665350083,0.015656872938766518,0.023120156676608623,0.009217644422453899,0.04752405993296625,-0.03150442116811011
1.5049346836899349,0.017286051262519187,0.020368760380592866,0.008230188330603324,0.03654998934291069,-0.023513824910137256
1.5050062008448615,0.019918755698584013,0.018994264874744145,0.007905738300784866,0.025831619627773715,-0.015315973735615766
1.505077717999788,0.022804926807040774,0.02005376757544747,0.009361654152707073,0.016919110452757093,-0.007428480007312997
1.5051492351547147,0.025289013466251117,0.024350584038200535,0.011726326065843064,0.016509603777013646,-0.00563683411982057
1.5052207523096413,0.027015644551186973,0.029547160704269673,0.014241445734319206,0.02322947639504127,-0.009336231341273569
1.5052922694645678,0.028012475009877,0.03294250089911967,0.015961322224474977,0.032411767504907554,-0.015461292253366109
1.5053637866194944,0.028596359216805502,0.031190205477244617,0.014919408532213189,0.041579661119309,-0.02329655087381144
1.505435303774421,0.02915112616185344,0.026420788743933027,0.013309044659559194,0.04886885684086624,-0.03001510938836545
1.5055068209293476,0.029900153036102176,0.02296214893386647,0.012321918805932341,0.05337947003704427,-0.03416789868913961
1.5055783380842742,0.030782681811496897,0.022584504043293572,0.01250866989698158,0.054869788553772975,-0.035221276826870006
1.5056498552392008,0.03146961942071043,0.024672019194110256,0.013496870470295333,0.05531386774932272,-0.034955298140240273
1.5057213723941274,0.03149161794629547,0.025508710308441936,0.013134126432083434,0.05457826280321209,-0.03460357246040621
1.505792889549054,0.030427310908792447,0.024566355488849206,0.011855838401314541,0.05086966220777639,-0.03248847785305335
1.5058644067039806,0.02809465201809536,0.021919328832196522,0.009674998552531539,0.04472948088098493,-0.029028342465860606
1.5059359238589072,0.024683284499830333,0.01789534915461962,0.006168765257997816,0.039346234259798094,-0.02698751841079328
1.5060074410138338,0.020766913938386953,0.015345558849503048,0.003987129865862614,0.03463932684780348,-0.02465444514302309
1.5060789581687604,0.017165658691511196,0.016298780614297743,0.004506773893992003,0.031699967160149965,-0.022027843287599377
1.506150475323687,0.014695536880755058,0.01859952193074325,0.005603202541494299,0.030624469073195833,-0.020503316209065
1.5062219924786135,0.013907828977730352,0.020464797275739258,0.006474304461408025,0.029614294457103944,-0.01917006392097324
1.5062935096335401,0.014929925183180436,0.02034078282454195,0.007024475314287043,0.025181343306576474,-0.015354556110783152
1.5063650267884667,0.01746107614733839,0.01835861360777757,0.006681651925523114,0.0174175132117059,-0.009485728008194147
1.5064365439433933,0.020900617081537138,0.01889651595149696,0.008103902228742074,0.010169102968348987,-0.002923966112456263
1.50650806109832,0.024545654709518663,0.022267590370111483,0.01119024144466396,0.005293029069694402,0.002814323040407436
1.5065795782532465,0.027795889555703463,0.02924470902852736,0.015188716512202768,0.008470585207021023,0.0028131876216600125
1.506651095408173,0.030315638754338018,0.03897558540575908,0.02020329875354711,0.017573926921755512,-0.0011961558326364118
1.5067226125630997,0.03210575674634778,0.04923224126418359,0.02516307524326057,0.031018645334272624,-0.008641850469562609
1.5067941297180263,0.03344435853615213,0.05595092733795374,0.02809340030703321,0.04553294690602601,-0.01819604153489515
1.5068656468729529,0.03469846610783441,0.057843316682505946,0.028836225363534616,0.05690894623104808,-0.026660156624584604
1.5069371640278795,0.03608805388876267,0.05789322761721046,0.029158238083419115,0.06442152832046465,-0.032359440378037625
1.507008681182806,0.03753193323000867,0.058244936855316995,0.029645090979329304,0.06905574463527299,-0.0356976281925022
1.5070801983377327,0.038657419159163646,0.058225284078936096,0.03000532215028713,0.0681057759107343,-0.03472659101347197
1.5071517154926592,0.038950459296790155,0.056797029111892834,0.029635790998015537,0.06500897344644613,-0.032523437246610096
1.5072232326475858,0.03795818995272562,0.050963730072471555,0.026170643808596194,0.0590376923184367,-0.029991851284227013
1.5072947498025124,0.035465807062779846,0.04348426539374525,0.02167628316777021,0.050436163003867336,-0.02603866078021385
1.507366266957439,0.03160750390290827,0.03726532806330733,0.01779655130545853,0.042568217152241676,-0.02228160601033438
1.5074377841123656,0.02689036393457737,0.0319742010509768,0.014369878001425985,0.03652665185817902,-0.019676795907889757
1.5075093012672922,0.022110982309926926,0.027601221954406695,0.012274203971852665,0.03239918085733559,-0.01774529535979344
1.5075808184222188,0.018158898886019043,0.024897433703731695,0.010838451012952628,0.03125183647936152,-0.017739178402524543
1.5076523355771454,0.015750547010193554,0.02316109691750357,0.009985828883372298,0.030794787994487805,-0.017911313675095162
1.507723852732072,0.015198153002695225,0.019708246731608644,0.008495434228764531,0.027294446337953585,-0.01609538227992291
1.5077953698869986,0.01632710132796861,0.014798506178898482,0.006411917338543193,0.01937702155641495,-0.011188392705988544
1.5078668870419252,0.01858159605132472,0.010857561755785394,0.00521914285473996,0.010678755930021199,-0.005117248648083767
1.5079384041968518,0.02125563485920751,0.00830278856001437,0.005152249488431391,0.0023599915851669597,0.0013559454770939953
1.5080099213517784,0.023737553869918368,0.007891332605784304,0.0057615299185219465,-0.0010740862271400703,0.004424100388300553
1.508081438506705,0.025680396681245936,0.010066746345399797,0.007453924502377228,0.0005865649038365287,0.004176146576391751
1.5081529556616315,0.027059576075294776,0.01259642931248693,0.008842952470356694,0.006430379908563664,0.0004636863195457266
1.5082244728165581,0.028112039179855254,0.01284088007449242,0.008942296206187028,0.01328093141674934,-0.004839691718141013
1.5082959899714847,0.029172386947160022,0.011664307239784405,0.008780907310022895,0.019313212561813536,-0.009665031620347967
1.5083675071264113,0.03045818310099522,0.012347497263515255,0.010026451111954632,0.024962513379633386,-0.013316039868520011
1.508439024281338,0.03190386747651281,0.016689992879516606,0.012747040105629182,0.030717546297568916,-0.016133255964811716
1.5085105414362645,0.03314377564440417,0.022650484911809772,0.01600259242207933,0.03491834542109963,-0.017400264053377842
1.508582058591191,0.03366149064758627,0.027540583357505498,0.0186299276568245,0.03770697976254217,-0.01795138051220397
1.5086535757461177,0.03301661123576188,0.027161658618780747,0.017302793300784304,0.03720805862831211,-0.018386127256615783
1.5087250929010443,0.031031763736761156,0.022801180498910403,0.013978643770450466,0.03289077702744454,-0.017070278012267424
1.5087966100559709,0.02787943173947238,0.017066705322794508,0.009773118861112214,0.025740612758135672,-0.014083247802557722
1.5088681272108975,0.024071143965329337,0.011731578247164781,0.005405399448016361,0.019536605405530448,-0.01193935322895759
1.508939644365824,0.020368522042175177,0.0076599819073824085,0.002619426200917792,0.01465768123960877,-0.0098503042727252
1.5090111615207507,0.017622660517009992,0.005741014336132547,0.001280243020763253,0.01237130488591461,-0.008892360399622296
1.5090826786756772,0.016549556574789192,0.005125648567535198,0.001094148915450876,0.011927490210420734,-0.008660491171098024
1.5091541958306038,0.01749078347259404,0.004965210181844195,0.001728275756159572,0.009736139289316425,-0.006549936906239967
1.5092257129855304,0.02026609634215111,0.005156710118256391,0.002622344403247119,0.005569905562325755,-0.0027311475589953953
1.509297230140457,0.024225306810832306,0.008047154409904961,0.005090188490138515,0.0010541487808041852,0.002339970203335078
1.5093687472953836,0.028505184243561566,0.015643133991872258,0.010396256019729185,-0.0004767588041083172,0.0068387106473356525
1.5094402644503102,0.032363241212534366,0.026659529506890933,0.017181792517199104,0.003149928287567541,0.00821948922924536
1.5095117816052368,0.035420479974014,0.0391680305523497,0.023785576506019895,0.011570051116917666,0.0057354030603492
1.5095832987601634,0.03772295943106026,0.048793795493962816,0.028541189697550762,0.021108724574505393,0.0012259264019472231
1.50965481591509,0.039632532833370364,0.0522114347516025,0.030196375009199177,0.029489572189537953,-0.004308715599628507
1.5097263330700166,0.041605230836871475,0.04828072499332289,0.028415936049993602,0.03409327057659871,-0.009025634031728179
1.5097978502249432,0.04392716574129624,0.04149981971153333,0.026087173799228647,0.03294435581411035,-0.009575591126307192
1.5098693673798698,0.04649881119729661,0.037320615669535234,0.025125670272120693,0.02890945353816955,-0.007012311994611071
1.5099408845347964,0.048782229516577,0.03712723532852025,0.025898717163670308,0.025388340980719192,-0.003772090943880973
1.510012401689723,0.04998265464348263,0.03960937682023479,0.027970420605425636,0.02282330594237041,-0.00047255912714177053
1.5100839188446495,0.04939582665258717,0.03972111215074131,0.02744804663090382,0.020113851265364417,0.0013244260012973321
1.5101554359995761,0.046726633743720845,0.03695006040899479,0.024915387052692306,0.016686512583127935,0.0024318811233782047
1.5102269531545027,0.04221494386441091,0.03378411679415208,0.022036546886626967,0.01240541402037456,0.003992668206857882
1.5102984703094293,0.0365554045951188,0.03205332914493325,0.019143160662124768,0.011870520580335006,0.002610983469658306
1.510369987464356,0.030705701566729478,0.0320775577690457,0.01712115674686206,0.013249342752842027,0.00027300007050486564
1.5104415046192825,0.025671938650474672,0.03348685794943799,0.016152578444133103,0.01683353950180469,-0.003136883172046346
1.510513021774209,0.02230380117340663,0.03533864327859371,0.01595046449902194,0.021213071087101354,-0.006693235046465857
1.5105845389291357,0.02110478427342222,0.03370359986777096,0.014310671393420193,0.02175416599614553,-0.008137371392879237
1.5106560560840623,0.022087028251984653,0.028123221491119243,0.011927341615445858,0.016655668879894194,-0.005626200308855729
1.5107275732389889,0.02474352062355467,0.01929284687523998,0.008315005741078718,0.0080054683292098,-0.0010981892930983389
1.5107990903939155,0.028206425428266402,0.012517761782225176,0.006455089330600415,0.00018501707921799641,0.0038694175306198523
1.510870607548842,0.03156791810921427,0.00948200605131814,0.006924877381908108,-0.0033283623618205944,0.00691287618180968
1.5109421247037687,0.034217944840168574,0.010286875071475007,0.0085255112555674,0.00041045826521833524,0.004980489022588577
1.5110136418586952,0.036025983655989566,0.014575356910833451,0.01161661354179527,0.009235124292371765,-7.626780550062177e-06
1.5110851590136218,0.03729532439305516,0.01740636530834287,0.013294021431409462,0.01996070489072662,-0.007364901446761978
1.5111566761685484,0.03854470610167679,0.017298514560120146,0.013163190298163863,0.030665031444028653,-0.015833220319341965
1.511228193323475,0.04022460916569971,0.01684943846477991,0.013651672900344249,0.03707458699466857,-0.020553125824834723
1.5112997104784016,0.04246467581659284,0.018002677037345857,0.01442102957265151,0.039872913933556284,-0.02226835854221252
1.5113712276333282,0.04493429586497486,0.02271681756457416,0.016921655013448497,0.040731709423436104,-0.02138591743823936
1.5114427447882548,0.04689231770787431,0.028004448334093445,0.019784155718843215,0.039381400726464934,-0.018545790285187103
1.5115142619431814,0.047454803887083834,0.02987500920743794,0.02007376929597759,0.036330534562012205,-0.01597370316111771
1.511585779098108,0.04599085839647899,0.026251932298416398,0.017243949592298295,0.03134212496867674,-0.013824869221244944
