freq,gls,usurper,pdc_unbiased,shape_periodogram,shift_periodogram
1.5,0.031605246424144244,0.03321209005340564,0.022003088454338578,0.017617949943135147,0.011314632793894334
1.5000715171549266,0.028595336453250155,0.026086058105051383,0.01679692217781675,0.011767835215933027,0.009416070493377516
1.5001430343098532,0.024797888546036324,0.02043943503032742,0.011419584810450916,0.007412445996085849,0.006673742615564548
1.5002145514647798,0.020789812632417533,0.018810984101024716,0.008796510756732951,0.00392115195612976,0.005970890344497418
1.5002860686197064,0.017345459787468324,0.02167787262845346,0.009479677332466734,0.002920751305834599,0.0070404064537600885
1.500357585774633,0.015271945925960987,0.02650662276646238,0.011714688134418397,0.00408773113196536,0.00847842274283858
1.5004291029295596,0.015165201318802408,0.03233958353860285,0.01415548030345099,0.007770430478536413,0.008931204817472825
1.5005006200844861,0.01716595655706576,0.037484698221168296,0.016954003693511403,0.01050337840734725,0.010142093667288073
1.5005721372394127,0.02086274426290797,0.04127188980527451,0.019187221778694714,0.013210997897942736,0.010864263228553401
1.5006436543943393,0.02544081002802935,0.0445881170746512,0.02137618975240262,0.016163300027249788,0.011434042525188051
1.500715171549266,0.03000884122307953,0.047971527046756016,0.02421994995090846,0.017744677470264536,0.013220743397377485
1.5007866887041925,0.03391266896856934,0.052399823130857504,0.02666061786266369,0.022276812517014286,0.013281667424306857
1.500858205859119,0.0368882624749449,0.05765746338579432,0.029368029530911475,0.02777609168970403,0.013131180247821492
1.5009297230140457,0.0390355018056212,0.06318242034776918,0.03287087235373193,0.03420164787490946,0.013257712223027565
1.5010012401689723,0.04067274274449097,0.06496082019796602,0.0349635290275476,0.03843475937624998,0.013151118847469213
1.5010727573238989,0.04213722341942038,0.06488162244823148,0.036798409825528795,0.04098765911675064,0.01359580416212308
1.5011442744788255,0.043587855733941964,0.06486355407218738,0.03793328428010061,0.04302239152238912,0.013659636950972318
1.501215791633752,0.044880915226329254,0.06494610815131181,0.03824814004694497,0.04504580731626061,0.013000452106195512
1.5012873087886787,0.045592465454410994,0.06650123050677899,0.03896037083855539,0.046724026284644435,0.012854441945066977
1.5013588259436053,0.04519857422015515,0.06595390147774606,0.038338310339186395,0.04578710864355061,0.012736564313593409
1.5014303430985318,0.04331902735671992,0.06215740015958691,0.03525172960142179,0.045238426534467455,0.010249573488271936
1.5015018602534584,0.03989064242203222,0.05380288626189877,0.029380562295107576,0.04226978205670829,0.00641516042252251
1.501573377408385,0.035207008956161204,0.04416335023241115,0.02275340008029923,0.03917402525639733,0.001972596600458543
1.5016448945633116,0.029854908046904056,0.035076639470352645,0.01716592382272006,0.03405454366935161,-0.0006043153932423756
1.5017164117182382,0.02460404968418353,0.027466053283010074,0.01272729457488559,0.028559647504866927,-0.001986348668595879
1.5017879288731648,0.020274028275387688,0.02268053715915356,0.010756457121333964,0.02433897599574678,-0.0017725204314998496
1.5018594460280914,0.01756978332877583,0.020332032942228687,0.009814843547662735,0.02261192689488917,-0.0018047814310206349
1.501930963183018,0.016887968997375314,0.01974950151720565,0.009773529530205848,0.021196841853667662,-0.001184221695306012
1.5020024803379446,0.018154766828972088,0.01869194034984721,0.009545857603491862,0.019898959276829626,-0.0007832371710179995
1.5020739974928712,0.020807783027131654,0.01910134357192758,0.00997328939183271,0.0194148918735906,-0.00017975377807405202
1.5021455146477978,0.023992628107040868,0.02167759652745841,0.01144212206274167,0.01989460682570331,0.0008989162470582134
1.5022170318027244,0.026898257150269028,0.026420185629941455,0.014028974316248104,0.022371468621368414,0.00204107955604484
1.502288548957651,0.029041972437567,0.03147064016379513,0.016679671046279716,0.025164370223228615,0.0030934684571093107
1.5023600661125776,0.03036170293294545,0.03664949776749244,0.019990738498687276,0.028334880074467817,0.004556450631785268
1.5024315832675041,0.031115659296329378,0.037022679759031334,0.02077896981185265,0.029614952617205908,0.004660951389091297
1.5025031004224307,0.031680428730509906,0.03382455481410455,0.019519808615351825,0.029628642662709592,0.003538213848551717
1.5025746175773573,0.032340192227813126,0.029621285138004848,0.018649627815208736,0.02770870866518318,0.0036582653658343515
1.502646134732284,0.033131945974426154,0.0268759110606644,0.017871043624403338,0.025163950732525614,0.004149648578856978
1.5027176518872105,0.033797027787609374,0.02661355215000812,0.01799769758677829,0.023534370749118336,0.005018473072204612
1.502789169042137,0.033871437590867574,0.025449042075711793,0.017486670760106647,0.020498165073050016,0.005975045252473716
1.5028606861970637,0.03289397904446062,0.022052535894766325,0.015274482970942199,0.017884715647975745,0.005227848579090956
1.5029322033519903,0.030638444170610023,0.01815581386173402,0.012011118949132128,0.01567532831263503,0.0033620283991136883
1.5030037205069169,0.02725242384486997,0.016238965504458663,0.009441040885373031,0.014305386973653076,0.0017210992888216244
1.5030752376618435,0.023245599290448483,0.018051427624013898,0.008606550278537486,0.013556062656807404,0.0013297270268475378
1.50314675481677,0.019358366958489085,0.0220986200601389,0.008953985446160287,0.013531823382713483,0.00164876704738455
1.5032182719716967,0.01638051368297583,0.02705305979500695,0.010426555451109277,0.014056355720892403,0.0027097980133448207
1.5032897891266233,0.01497089818834955,0.031706328166969534,0.012350463029946239,0.015262535364346115,0.0038543208721763555
1.5033613062815498,0.015499460648454992,0.03534011336164973,0.013981854206916533,0.01617057018731413,0.004878218601504468
1.5034328234364764,0.01793079665045714,0.03555349375205734,0.01416864675154985,0.014828420460504216,0.005666765086680044
1.503504340591403,0.021792554285279486,0.03460647091801472,0.013806564009865633,0.013346796907841598,0.006033724227593901
1.5035758577463296,0.026283745634476982,0.03718127333606246,0.015751292513310384,0.014589492986037145,0.007179957053242623
1.5036473749012562,0.03053094650102892,0.04280209333579785,0.019003856556851165,0.019334151278077773,0.007859968518979328
1.5037188920561828,0.03389868374654469,0.050764126712261326,0.02304438568669538,0.026568206180849676,0.008083948334055733
1.5037904092111094,0.03619247413189749,0.060284994459813473,0.02836367437687625,0.03356033599753596,0.00955614406069538
1.503861926366036,0.03764566473947448,0.0672423684371011,0.03246316988130233,0.039191278035363576,0.010580504047836545
1.5039334435209626,0.038716510453014726,0.07072416725166729,0.03408384953452373,0.04470071329837906,0.009462030599656685
1.5040049606758892,0.0398171228344044,0.07239664263081805,0.03557140334761458,0.04831675425192409,0.009104406916376491
1.5040764778308158,0.041095739566223526,0.07633414375043432,0.037525773851031737,0.05170379393377296,0.009268153176159546
1.5041479949857424,0.04234364882306056,0.08051866996704425,0.038887791087543686,0.055357165629196375,0.008782163733827956
1.504219512140669,0.043051695709888996,0.08264678274504275,0.03921573232033744,0.058397345133160285,0.007661583938001652
1.5042910292955955,0.04260283060723393,0.07788774711973473,0.036347749549566495,0.0594720926750929,0.004612264028234235
1.5043625464505221,0.04053910287302065,0.06604998812120001,0.030363706364527798,0.0570581585332107,0.00041656346139785287
1.5044340636054487,0.03679439695722014,0.05099139830237108,0.02344001313236871,0.05067204907016804,-0.0027618723925470923
1.5045055807603753,0.03178229372791513,0.038001747112270126,0.01698689592080203,0.044748355599408214,-0.00573292837518178
1.504577097915302,0.026296542555493532,0.029104790959708905,0.012446934359831944,0.03957454143071516,-0.007353223202177203
1.5046486150702285,0.021278189004975218,0.025707442890599685,0.011187449324425095,0.03543596719757193,-0.0065460295367348684
1.504720132225155,0.017555651134353225,0.024471966867963227,0.011283372248322305,0.03275594519307791,-0.00521559149616438
1.5047916493800817,0.01564621916050789,0.02323655023831722,0.010644076718018416,0.031250362759380715,-0.005082629188044435
1.5048631665350083,0.015656872938766518,0.020716260493546884,0.009217644422453899,0.02840217135509483,-0.00502346080389456
1.5049346836899349,0.017286051262519187,0.01868183328461503,0.008230188330603324,0.025269588593553056,-0.004443238339732781
1.5050062008448615,0.019918755698584013,0.018105273647192846,0.007905738300784866,0.02241475207691737,-0.003404713885564697
1.505077717999788,0.022804926807040774,0.01996605841286464,0.009361654152707073,0.020285930846227804,-0.001126138669452397
1.5051492351547147,0.025289013466251117,0.025282263090416226,0.011726326065843064,0.023304218679691825,-0.0004325456727129211
1.5052207523096413,0.027015644551186973,0.03077882985750253,0.014241445734319206,0.0262636899280174,0.00042196875334151335
1.5052922694645678,0.028012475009877,0.033335794317217664,0.015961322224474977,0.026843680009444013,0.0016769776026625478
1.5053637866194944,0.028596359216805502,0.029268170817936406,0.014919408532213189,0.024313006302492283,0.0019286723662562896
1.505435303774421,0.02915112616185344,0.021469684082971913,0.013309044659559194,0.01920901238765111,0.0028714636123264928
1.5055068209293476,0.029900153036102176,0.016174468256670963,0.012321918805932341,0.015232212106656949,0.003843108429996925
1.5055783380842742,0.030782681811496897,0.01553031967507471,0.01250866989698158,0.013661304521696213,0.004737828990979402
1.5056498552392008,0.03146961942071043,0.018519750984927016,0.013496870470295333,0.014633521517363432,0.0051620368864523074
1.5057213723941274,0.03149161794629547,0.02034114262821538,0.013134126432083434,0.016371199390742396,0.004033963079808668
1.505792889549054,0.030427310908792447,0.020092746911204308,0.011855838401314541,0.0189534321312178,0.0017024926056750423
1.5058644067039806,0.02809465201809536,0.01794898521696802,0.009674998552531539,0.019546815046348323,-0.0005052972363475452
1.5059359238589072,0.024683284499830333,0.014381836476939032,0.006168765257997816,0.018949724785174836,-0.0033343467063337074
1.5060074410138338,0.020766913938386953,0.012148483600009868,0.003987129865862614,0.01750848815878371,-0.0045976692244619885
1.5060789581687604,0.017165658691511196,0.013399752786078786,0.004506773893992003,0.016082796910220635,-0.0034752925983649865
1.506150475323687,0.014695536880755058,0.01622926263210518,0.005603202541494299,0.016405454891509894,-0.0026538636009497685
1.5062219924786135,0.013907828977730352,0.01877627131433434,0.006474304461408025,0.016795688281216622,-0.0020633935847599624
1.5062935096335401,0.014929925183180436,0.019188465047057436,0.007024475314287043,0.01497778455923395,-0.0007318938901899566
1.5063650267884667,0.01746107614733839,0.01797470071854048,0.006681651925523114,0.013842733702534797,-0.0005085651969533334
1.5064365439433933,0.020900617081537138,0.019639334353618823,0.008103902228742074,0.013263367490338854,0.0010203389038422096
1.50650806109832,0.024545654709518663,0.024005380486980785,0.01119024144466396,0.01245871234412788,0.0041280586390506375
1.5065795782532465,0.027795889555703463,0.03194008999701296,0.015188716512202768,0.015743095406612995,0.006146002468670724
1.506651095408173,0.030315638754338018,0.04250353148784553,0.02020329875354711,0.020547018096414533,0.008360091887003068
1.5067226125630997,0.03210575674634778,0.05299958434552684,0.02516307524326057,0.026208619856179016,0.010129421086734461
1.5067941297180263,0.03344435853615213,0.05896053392545957,0.02809340030703321,0.030861416149298142,0.01056896635776524
1.5068656468729529,0.03469846610783441,0.05953521608884849,0.028836225363534616,0.033073964350130186,0.010201101797999806
1.5069371640278795,0.03608805388876267,0.05839262473942592,0.029158238083419115,0.03413070466888062,0.009996343740369925
1.507008681182806,0.03753193323000867,0.058250314951748455,0.029645090979329304,0.036340323612406335,0.009402748023891617
1.5070801983377327,0.038657419159163646,0.05865116007365108,0.03000532215028713,0.03827730210047995,0.008823302217359823
1.5071517154926592,0.038950459296790155,0.05752758533327838,0.029635790998015537,0.038621409774998554,0.00833562357128761
1.5072232326475858,0.03795818995272562,0.05158622824136077,0.026170643808596194,0.038910016337110845,0.005126846687119345
1.5072947498025124,0.035465807062779846,0.04396941633933466,0.02167628316777021,0.03800800581316004,0.0015588341615694037
1.507366266957439,0.03160750390290827,0.037748676967305314,0.01779655130545853,0.03658150627836723,-0.001219137779668159
1.5074377841123656,0.02689036393457737,0.03245007282257758,0.014369878001425985,0.0350562269745479,-0.0035485477091570447
1.5075093012672922,0.022110982309926926,0.02762476492563222,0.012274203971852665,0.032482771592634185,-0.004210462543763692
1.5075808184222188,0.018158898886019043,0.02462103275364304,0.010838451012952628,0.03156867875439935,-0.005058262166428698
1.5076523355771454,0.015750547010193554,0.02254058617288998,0.009985828883372298,0.03049235889494765,-0.005313802934270203
1.507723852732072,0.015198153002695225,0.01870510981894879,0.008495434228764531,0.027567487737824428,-0.005275658416783704
1.5077953698869986,0.01632710132796861,0.013479575006450806,0.006411917338543193,0.02289149666770059,-0.004949626645488667
1.5078668870419252,0.01858159605132472,0.00949776866395693,0.00521914285473996,0.01779143394178292,-0.0036376951575925005
1.5079384041968518,0.02125563485920751,0.006965495079317573,0.005152249488431391,0.012540264812081208,-0.0012585976539045932
1.5080099213517784,0.023737553869918368,0.006524090284823508,0.0057615299185219465,0.009246272208228079,0.0008104588617176582
1.508081438506705,0.025680396681245936,0.008495041621059544,0.007453924502377228,0.007017688113886176,0.0033441778092630245
1.5081529556616315,0.027059576075294776,0.010391879385065372,0.008842952470356694,0.00531218762402268,0.005366289100923825
1.5082244728165581,0.028112039179855254,0.009253281067660142,0.008942296206187028,0.00277825640170031,0.006630565787062935
1.5082959899714847,0.029172386947160022,0.0064786060173980635,0.008780907310022895,0.0006639601050119549,0.007469097710035288
1.5083675071264113,0.03045818310099522,0.006179308803445407,0.010026451111954632,-0.0006026582967324196,0.009160283748246768
1.508439024281338,0.03190386747651281,0.010820813109140097,0.012747040105629182,0.0007231188156136603,0.010954607871485608
1.5085105414362645,0.03314377564440417,0.01791687813792525,0.01600259242207933,0.004384630104267352,0.01213894292636947
1.508582058591191,0.03366149064758627,0.023800278417428204,0.0186299276568245,0.007579765079098383,0.012983715290424906
1.5086535757461177,0.03301661123576188,0.023846691628558802,0.017302793300784304,0.009342015067531186,0.010990102188526146
1.5087250929010443,0.031031763736761156,0.0194165446825842,0.013978643770450466,0.009811194276908039,0.007827318168198847
1.5087966100559709,0.02787943173947238,0.013753128380955893,0.009773118861112214,0.008871598430903313,0.0045378959271596105
1.5088681272108975,0.024071143965329337,0.008691725422373798,0.005405399448016361,0.008654330400227467,0.0007698267462635312
1.508939644365824,0.020368522042175177,0.004539869743119375,0.002619426200917792,0.007013862236181795,-0.0009362246769957131
1.5090111615207507,0.017622660517009992,0.0027583064284079934,0.001280243020763253,0.006936252731255378,-0.002086339002106756
1.5090826786756772,0.016549556574789192,0.0021907630907316952,0.001094148915450876,0.008113016149094467,-0.0027975194583963123
1.5091541958306038,0.01749078347259404,0.0023102113753042616,0.001728275756159572,0.00816481324943892,-0.0022599069893485214
1.5092257129855304,0.02026609634215111,0.002807138895985703,0.002622344403247119,0.006267265935414001,-0.0005870160194084477
1.509297230140457,0.024225306810832306,0.006361954166249707,0.005090188490138515,0.004857781864353008,0.002253200405801234
1.5093687472953836,0.028505184243561566,0.015151880343292335,0.010396256019729185,0.005329506512060308,0.00673414610906606
1.5094402644503102,0.032363241212534366,0.027619051874788626,0.017181792517199104,0.008416749871910663,0.011312306067488847
1.5095117816052368,0.035420479974014,0.04168691630099764,0.023785576506019895,0.01309846234573836,0.014991400403279205
1.5095832987601634,0.03772295943106026,0.05228255811485965,0.028541189697550762,0.016780523164695818,0.017498548924833327
1.50965481591509,0.039632532833370364,0.055306211574820865,0.030196375009199177,0.018444064788579358,0.01819443371110064
1.5097263330700166,0.041605230836871475,0.04962886427307041,0.028415936049993602,0.01719663169142387,0.017194511241546785
1.5097978502249432,0.04392716574129624,0.04087881651428697,0.026087173799228647,0.012416236477425372,0.017347683742167413
1.5098693673798698,0.04649881119729661,0.03595086650711731,0.025125670272120693,0.008814823097434083,0.018166204921862054
1.5099408845347964,0.048782229516577,0.03642930835092966,0.025898717163670308,0.009187573038546002,0.018678331775992874
1.510012401689723,0.04998265464348263,0.04016032607475983,0.027970420605425636,0.011372387885616193,0.01950094649778096
1.5100839188446495,0.04939582665258717,0.04123089061295379,0.02744804663090382,0.013564515558488177,0.018021213943931854
1.5101554359995761,0.046726633743720845,0.038567461629882845,0.024915387052692306,0.015028606982624588,0.015097264148970776
1.5102269531545027,0.04221494386441091,0.035411416823267004,0.022036546886626967,0.015883806336457886,0.012148981528912013
1.5102984703094293,0.0365554045951188,0.033846595220467464,0.019143160662124768,0.017704751922941433,0.008739687812668083
1.510369987464356,0.030705701566729478,0.03419824487307799,0.01712115674686206,0.01984658308180155,0.005953583956583493
1.5104415046192825,0.025671938650474672,0.0357435385899751,0.016152578444133103,0.022058415186036885,0.0040683872880067804
1.510513021774209,0.02230380117340663,0.037602797849936656,0.01595046449902194,0.024527402161091918,0.002742919068474651
1.5105845389291357,0.02110478427342222,0.03588004300577469,0.014310671393420193,0.02491976137964771,0.00110742704849553
1.5106560560840623,0.022087028251984653,0.02954480903176546,0.011927341615445858,0.02081400458585683,0.0009019437794017876
1.5107275732389889,0.02474352062355467,0.0196346056776393,0.008315005741078718,0.01423147514184587,0.0007578685314766643
1.5107990903939155,0.028206425428266402,0.011744894855644,0.006455089330600415,0.007235791805500663,0.0023581801248648104
1.510870607548842,0.03156791810921427,0.007544625072450863,0.006924877381908108,0.0018780879719852294,0.005261533943633875
1.5109421247037687,0.034217944840168574,0.007405740374803143,0.0085255112555674,-0.0006960488213212284,0.007874226482977562
1.5110136418586952,0.036025983655989566,0.010878487460048429,0.01161661354179527,-0.0016542733875966338,0.0110568809523916
1.5110851590136218,0.03729532439305516,0.012656470490005374,0.013294021431409462,-0.0021005225350961194,0.012749735028529965
1.5111566761685484,0.03854470610167679,0.010801460394295814,0.013163190298163863,-0.0026852356279511483,0.012905264751388645
1.511228193323475,0.04022460916569971,0.008740675223820387,0.013651672900344249,-0.005064526863996331,0.014442341078705269
1.5112997104784016,0.04246467581659284,0.009728374896021583,0.01442102957265151,-0.005996220090583548,0.015556225715527108
1.5113712276333282,0.04493429586497486,0.01567505811994017,0.016921655013448497,-0.004429565712708796,0.017043811826315265
1.5114427447882548,0.04689231770787431,0.022843664502256188,0.019784155718843215,-0.0018013768448673184,0.01835950161400734
1.5115142619431814,0.047454803887083834,0.02650759353133018,0.02007376929597759,0.0011586043404577294,0.017242485569843397
