freq,gls,usurper,pdc_unbiased,shape_periodogram,shift_periodogram
1.5,0.031605246424144244,0.03351572201531014,0.022003088454338578,0.048283904390791055,-0.023985257190847833
1.5000715171549266,0.028595336453250155,0.02674140211192397,0.01679692217781675,0.04075225277420939,-0.02134820197073524
1.5001430343098532,0.024797888546036324,0.020854059270401615,0.011419584810450916,0.034535402458204426,-0.019847335289988954
1.5002145514647798,0.020789812632417533,0.01873088155006499,0.008796510756732951,0.028723347848774974,-0.016943265719446318
1.5002860686197064,0.017345459787468324,0.02098637951150964,0.009479677332466734,0.025521731400853793,-0.014014739766185082
1.500357585774633,0.015271945925960987,0.025152470435760813,0.011714688134418397,0.024367797367405145,-0.011716920485491918
1.5004291029295596,0.015165201318802408,0.030255822914948424,0.01415548030345099,0.02836821041359981,-0.013317955787208681
1.5005006200844861,0.01716595655706576,0.03494029458440688,0.016954003693511403,0.03037298202472505,-0.013135985297078745
1.5005721372394127,0.02086274426290797,0.03852414095232134,0.019187221778694714,0.031242724491991433,-0.012420004198431587
1.5006436543943393,0.02544081002802935,0.04175739932508861,0.02137618975240262,0.032139133408680354,-0.011752301319471522
1.500715171549266,0.03000884122307953,0.04540950129778046,0.02421994995090846,0.03335636286545502,-0.010925683210668741
1.5007866887041925,0.03391266896856934,0.049814398063570936,0.02666061786266369,0.0394983081323402,-0.014200935752047882
1.500858205859119,0.0368882624749449,0.05495102735313793,0.029368029530911475,0.04906136068471997,-0.01998714794006084
1.5009297230140457,0.0390355018056212,0.060805024057411054,0.03287087235373193,0.06225039016897761,-0.028120172326688602
1.5010012401689723,0.04067274274449097,0.06352890003374086,0.0349635290275476,0.0749722269803405,-0.03678186176036234
1.5010727573238989,0.04213722341942038,0.06459136008793688,0.036798409825528795,0.08460789020651723,-0.04319505407933203
1.5011442744788255,0.043587855733941964,0.06527383424742474,0.03793328428010061,0.09332276037048773,-0.049331772957588456
1.501215791633752,0.044880915226329254,0.06526754670574177,0.03824814004694497,0.09947129891995529,-0.05397053501383676
1.5012873087886787,0.045592465454410994,0.06638489124315954,0.03896037083855539,0.10414830512727627,-0.057205914089633665
1.5013588259436053,0.04519857422015515,0.06583059332305051,0.038338310339186395,0.10595032167105171,-0.059014587339066615
1.5014303430985318,0.04331902735671992,0.06221793653170204,0.03525172960142179,0.10487649527789673,-0.06010104565221852
1.5015018602534584,0.03989064242203222,0.05440573193546451,0.029380562295107576,0.09985320683723767,-0.0598194375965122
1.501573377408385,0.035207008956161204,0.04519329383745466,0.02275340008029923,0.09317675522842754,-0.058710585111968853
1.5016448945633116,0.029854908046904056,0.03667543845726307,0.01716592382272006,0.08411988024863216,-0.05508631130863247
1.5017164117182382,0.02460404968418353,0.02942237951677688,0.01272729457488559,0.0743690811643965,-0.05020809584882631
1.5017879288731648,0.020274028275387688,0.02488214003445281,0.010756457121333964,0.06509646971034831,-0.044172201330117886
1.5018594460280914,0.01756978332877583,0.022448897735848253,0.009814843547662735,0.05880365841659762,-0.039832456741465905
1.501930963183018,0.016887968997375314,0.02123603097112481,0.009773529530205848,0.05013702205343987,-0.033075858194927164
1.5020024803379446,0.018154766828972088,0.01962034134979236,0.009545857603491862,0.040688166407697235,-0.025827852200893366
1.5020739974928712,0.020807783027131654,0.019362836181630958,0.00997328939183271,0.03193720042650578,-0.018719925534335567
1.5021455146477978,0.023992628107040868,0.02126965498640888,0.01144212206274167,0.027003341415044856,-0.013946576580287997
1.5022170318027244,0.026898257150269028,0.025560858097116102,0.014028974316248104,0.028050614556187525,-0.013148806222040031
1.502288548957651,0.029041972437567,0.030510212632624392,0.016679671046279716,0.0334347184897038,-0.01570049756381624
1.5023600661125776,0.03036170293294545,0.03612837889179675,0.019990738498687276,0.04241847540762912,-0.0206551388012663
1.5024315832675041,0.031115659296329378,0.03768380940379899,0.02077896981185265,0.052574476390714886,-0.028107894316955873
1.5025031004224307,0.031680428730509906,0.03573397624889003,0.019519808615351825,0.05947034855546381,-0.03429316304357318
1.5025746175773573,0.032340192227813126,0.03269982149080787,0.018649627815208736,0.06238731584799295,-0.03712126087979575
1.502646134732284,0.033131945974426154,0.030238179946017355,0.017871043624403338,0.06139612021933096,-0.03683141065451338
1.5027176518872105,0.033797027787609374,0.029726009502449607,0.01799769758677829,0.0600240732520557,-0.035677832827272486
1.502789169042137,0.033871437590867574,0.028406638291151302,0.017486670760106647,0.05764201888894747,-0.03413201872584005
1.5028606861970637,0.03289397904446062,0.02515185791284571,0.015274482970942199,0.053621434919113614,-0.0323668721430959
1.5029322033519903,0.030638444170610023,0.02137413544445359,0.012011118949132128,0.049958534459149516,-0.03153893625338139
1.5030037205069169,0.02725242384486997,0.019209630432041998,0.009441040885373031,0.046957266910346296,-0.030796037116575546
1.5030752376618435,0.023245599290448483,0.020371401005036992,0.008606550278537486,0.04573868605607842,-0.0303639847160212
1.50314675481677,0.019358366958489085,0.023417457608366138,0.008953985446160287,0.04547111007954306,-0.029937766713878607
1.5032182719716967,0.01638051368297583,0.02739459647545172,0.010426555451109277,0.045764142760662756,-0.02924739689901765
1.5032897891266233,0.01497089818834955,0.031247706147126474,0.012350463029946239,0.04621578272633727,-0.02839908938237826
1.5033613062815498,0.015499460648454992,0.034081948126819084,0.013981854206916533,0.044398574794277564,-0.025958686161026395
1.5034328234364764,0.01793079665045714,0.03395797016698136,0.01416864675154985,0.03863193633661069,-0.02133251052209588
1.503504340591403,0.021792554285279486,0.03260710924556052,0.013806564009865633,0.030129386134710123,-0.014912329584419518
1.5035758577463296,0.026283745634476982,0.03450407236700335,0.015751292513310384,0.02450987462831361,-0.009305855294293829
1.5036473749012562,0.03053094650102892,0.039385177549074404,0.019003856556851165,0.025932730482514165,-0.008384943413831414
1.5037188920561828,0.03389868374654469,0.04660880980455307,0.02304438568669538,0.03495328730376297,-0.012909057047753568
1.5037904092111094,0.03619247413189749,0.0560079946121142,0.02836367437687625,0.04993885798468214,-0.021302182048184147
1.503861926366036,0.03764566473947448,0.0637261848223785,0.03246316988130233,0.06773023693512206,-0.032669100758765994
1.5039334435209626,0.038716510453014726,0.06807348390870281,0.03408384953452373,0.08435209321024753,-0.044693901275405346
1.5040049606758892,0.0398171228344044,0.07067066340144713,0.03557140334761458,0.09754097809008262,-0.05412785978673168
1.5040764778308158,0.041095739566223526,0.07454558129331511,0.037525773851031737,0.10683665886532431,-0.06022145697536186
1.5041479949857424,0.04234364882306056,0.07788611453892977,0.038887791087543686,0.1120723612647535,-0.06349463739419625
1.504219512140669,0.043051695709888996,0.07908897565148348,0.03921573232033744,0.11354644404372283,-0.06445157196275213
1.5042910292955955,0.04260283060723393,0.07443117609623186,0.036347749549566495,0.1105716981779904,-0.0639016927772186
1.5043625464505221,0.04053910287302065,0.0637571106702699,0.030363706364527798,0.10275090378139147,-0.06148499150794334
1.5044340636054487,0.03679439695722014,0.05042439652486498,0.02344001313236871,0.09130199240403068,-0.05680861000655514
1.5045055807603753,0.03178229372791513,0.038745629559131585,0.01698689592080203,0.0814665252020079,-0.053115865509492065
1.504577097915302,0.026296542555493532,0.03057037345420574,0.012446934359831944,0.07234627770421352,-0.048797452390643176
1.5046486150702285,0.021278189004975218,0.027451454886593674,0.011187449324425095,0.06580165529999539,-0.04445554889108232
1.504720132225155,0.017555651134353225,0.026324929503561655,0.011283372248322305,0.06097881891186017,-0.04061868651290485
1.5047916493800817,0.01564621916050789,0.024843943476409735,0.010644076718018416,0.0566054936873487,-0.037594117175106655
1.5048631665350083,0.015656872938766518,0.02204631559920279,0.009217644422453899,0.048702709594049015,-0.032300865924607965
1.5049346836899349,0.017286051262519187,0.019703497473641744,0.008230188330603324,0.038487597930916134,-0.02492896322819908
1.5050062008448615,0.019918755698584013,0.01873112062030467,0.007905738300784866,0.028707026285257124,-0.017486875455450912
1.505077717999788,0.022804926807040774,0.020117836017375844,0.009361654152707073,0.02066182943218376,-0.010291378950785586
1.5051492351547147,0.025289013466251117,0.024515799303685238,0.011726326065843064,0.021108041521838927,-0.00916278952160736
1.5052207523096413,0.027015644551186973,0.029514029758383242,0.014241445734319206,0.02752628759196328,-0.012606311892062405
1.5052922694645678,0.028012475009877,0.03254580191970815,0.015961322224474977,0.03528946656152286,-0.01759925235598045
1.5053637866194944,0.028596359216805502,0.030350250919908308,0.014919408532213189,0.04226092513414326,-0.02370113890763094
1.505435303774421,0.02915112616185344,0.025183612198957272,0.013309044659559194,0.04721671060209315,-0.0285832954496549
1.5055068209293476,0.029900153036102176,0.021457454748891852,0.012321918805932341,0.04995869620287899,-0.03134495784134359
1.5055783380842742,0.030782681811496897,0.020991875480895344,0.01250866989698158,0.05091555345514027,-0.03197697974719583
1.5056498552392008,0.03146961942071043,0.023124948005195555,0.013496870470295333,0.052059842293774604,-0.03225516580990347
1.5057213723941274,0.03149161794629547,0.02407371646339745,0.013134126432083434,0.05247282529442753,-0.032804893357076086
1.505792889549054,0.030427310908792447,0.02337920993559317,0.011855838401314541,0.050218940154470856,-0.03183964936130923
1.5058644067039806,0.02809465201809536,0.02101111496298539,0.009674998552531539,0.0454508293778701,-0.029471674295579526
1.5059359238589072,0.024683284499830333,0.01719693195806254,0.006168765257997816,0.04106163872993908,-0.028228649400129906
1.5060074410138338,0.020766913938386953,0.014799686898907575,0.003987129865862614,0.03706633562890876,-0.026467280595070336
1.5060789581687604,0.017165658691511196,0.01581977385487354,0.004506773893992003,0.03444899712089538,-0.024097000877346033
1.506150475323687,0.014695536880755058,0.018120228438955447,0.005603202541494299,0.03357145939666611,-0.022726494767791955
1.5062219924786135,0.013907828977730352,0.0199789005520294,0.006474304461408025,0.0325815479380397,-0.021408831703633762
1.5062935096335401,0.014929925183180436,0.019943565154941265,0.007024475314287043,0.0280864218231859,-0.017552306808890736
1.5063650267884667,0.01746107614733839,0.018192532592868307,0.006681651925523114,0.020959878995164206,-0.012198208238548117
1.5064365439433933,0.020900617081537138,0.01894231464061473,0.008103902228742074,0.014561528778635527,-0.0063115928320668525
1.50650806109832,0.024545654709518663,0.022416415371570422,0.01119024144466396,0.01010224516905346,-0.0009006133020218472
1.5065795782532465,0.027795889555703463,0.029262280413753984,0.015188716512202768,0.013519757490366035,-0.001071845487516921
1.506651095408173,0.030315638754338018,0.03865797580211323,0.02020329875354711,0.022281303787245684,-0.004782282879667169
1.5067226125630997,0.03210575674634778,0.04843833799869121,0.02516307524326057,0.034902254341985524,-0.011544288839029077
1.5067941297180263,0.03344435853615213,0.05462929665838886,0.02809340030703321,0.048132141465785025,-0.020057616028097327
1.5068656468729529,0.03469846610783441,0.05608814362604256,0.028836225363534616,0.05813028853202631,-0.027418452477075653
1.5069371640278795,0.03608805388876267,0.05582853925436809,0.029158238083419115,0.06449666440405376,-0.032203479854465936
1.507008681182806,0.03753193323000867,0.05603112369282325,0.029645090979329304,0.06885761121057878,-0.03531634727517322
1.5070801983377327,0.038657419159163646,0.05609358795769661,0.03000532215028713,0.06876392659646499,-0.035017518833687374
1.5071517154926592,0.038950459296790155,0.05478742113446625,0.029635790998015537,0.06642493233680749,-0.033415600081890165
1.5072232326475858,0.03795818995272562,0.04920022132712888,0.026170643808596194,0.061291674413967864,-0.031561694043130334
1.5072947498025124,0.035465807062779846,0.042021248267220396,0.02167628316777021,0.053502573467331484,-0.028273368377568518
1.507366266957439,0.03160750390290827,0.03606479451540764,0.01779655130545853,0.04617326844684799,-0.024963360608988534
1.5074377841123656,0.02689036393457737,0.030969139409815237,0.014369878001425985,0.04036974885116594,-0.02256559235108347
1.5075093012672922,0.022110982309926926,0.026682983270631577,0.012274203971852665,0.03591891907830189,-0.020394982225301634
1.5075808184222188,0.018158898886019043,0.023987791954961372,0.010838451012952628,0.03440236638781496,-0.020106351823076594
1.5076523355771454,0.015750547010193554,0.02226831861685463,0.009985828883372298,0.033401404701095844,-0.01985652050143754
1.507723852732072,0.015198153002695225,0.0189371820266896,0.008495434228764531,0.02928752645957671,-0.017572206641916655
1.5077953698869986,0.01632710132796861,0.014332180526694084,0.006411917338543193,0.021366099861019974,-0.012684037623455095
1.5078668870419252,0.01858159605132472,0.010738890465354685,0.00521914285473996,0.012883811221142582,-0.006802945518700691
1.5079384041968518,0.02125563485920751,0.008463884117727395,0.005152249488431391,0.004603801638865076,-0.0003777012042323861
1.5080099213517784,0.023737553869918368,0.008146604259410557,0.0057615299185219465,0.0009070309243540914,0.002889977589743136
1.508081438506705,0.025680396681245936,0.010225764064546798,0.007453924502377228,0.0018535911507964083,0.0032077612822224125
1.5081529556616315,0.027059576075294776,0.01249022354677809,0.008842952470356694,0.006410563821319014,0.0005164158261095995
1.5082244728165581,0.028112039179855254,0.012421461067435668,0.008942296206187028,0.011630449320279804,-0.0034984466048969694
1.5082959899714847,0.029172386947160022,0.010991153706240334,0.008780907310022895,0.0164446379600381,-0.00735967549321328
1.5083675071264113,0.03045818310099522,0.011483285273590575,0.010026451111954632,0.02129659916901005,-0.010372019821858982
1.508439024281338,0.03190386747651281,0.015698908373193567,0.012747040105629182,0.026970031640254764,-0.01310532021859011
1.5085105414362645,0.03314377564440417,0.021644266131977816,0.01600259242207933,0.032068306577788544,-0.01505556781702123
1.508582058591191,0.03366149064758627,0.026544450047111954,0.0186299276568245,0.03595047027959987,-0.01644825844584804
1.5086535757461177,0.03301661123576188,0.026275135555404176,0.017302793300784304,0.03640024848557153,-0.01762931942362757
1.5087250929010443,0.031031763736761156,0.0221098329200326,0.013978643770450466,0.033018103304172916,-0.017062600185154573
1.5087966100559709,0.02787943173947238,0.016597839774757813,0.009773118861112214,0.026741806251052967,-0.014784799422495937
1.5088681272108975,0.024071143965329337,0.011439643562967906,0.005405399448016361,0.02123103159396335,-0.013207145141526228
1.508939644365824,0.020368522042175177,0.007444712067728325,0.002619426200917792,0.016527464055827935,-0.011272693970360514
1.5090111615207507,0.017622660517009992,0.005507303560049138,0.001280243020763253,0.014388104348909908,-0.010437939702741943
1.5090826786756772,0.016549556574789192,0.0048290812406354,0.001094148915450876,0.014018478684885467,-0.010265444698367855
1.5091541958306038,0.01749078347259404,0.004685989819887839,0.001728275756159572,0.011917960329246174,-0.008228755347959242
1.5092257129855304,0.02026609634215111,0.004984805057142359,0.002622344403247119,0.007912623330857885,-0.004542022425920594
1.509297230140457,0.024225306810832306,0.008042454311949327,0.005090188490138515,0.003962068137844997,8.473092935138502e-05
1.5093687472953836,0.028505184243561566,0.015692695357413394,0.010396256019729185,0.0029040918683474427,0.0042251485315475575
1.5094402644503102,0.032363241212534366,0.026592092154018948,0.017181792517199104,0.0067364845624926055,0.005471223207946939
1.5095117816052368,0.035420479974014,0.03878473766808345,0.023785576506019895,0.014860244476158526,0.003253886875601999
1.5095832987601634,0.03772295943106026,0.04797384483709065,0.028541189697550762,0.023268617920988065,-0.0003402820158768389
1.50965481591509,0.039632532833370364,0.050981035141383434,0.030196375009199177,0.03016735707350212,-0.004695063897079257
1.5097263330700166,0.041605230836871475,0.046787380888206456,0.028415936049993602,0.03350813272091531,-0.00841991926565702
1.5097978502249432,0.04392716574129624,0.039913775753613705,0.026087173799228647,0.03134396335052777,-0.008185068728395781
1.5098693673798698,0.04649881119729661,0.03577897819420428,0.025125670272120693,0.026972416847325886,-0.0053701447665321375
1.5099408845347964,0.048782229516577,0.035731463352711275,0.025898717163670308,0.024173607198065192,-0.002699928502591303
1.510012401689723,0.04998265464348263,0.03836222993424626,0.027970420605425636,0.022691658210002966,-0.00024654865060494543
1.5100839188446495,0.04939582665258717,0.038619700777806694,0.02744804663090382,0.020852412320877128,0.0008635182486695301
1.5101554359995761,0.046726633743720845,0.03601882940370497,0.024915387052692306,0.018088446501367202,0.0014388204406389944
1.5102269531545027,0.04221494386441091,0.033010238161555926,0.022036546886626967,0.01434695034477135,0.002561476552867127
1.5102984703094293,0.0365554045951188,0.03133038715703761,0.019143160662124768,0.013966415110486375,0.0010503277208498
1.510369987464356,0.030705701566729478,0.03135897910480943,0.01712115674686206,0.015383171069840173,-0.001319852437852544
1.5104415046192825,0.025671938650474672,0.03268668165859546,0.016152578444133103,0.0187347029747495,-0.004543135483760417
1.510513021774209,0.02230380117340663,0.03445391513238004,0.01595046449902194,0.022885211239107865,-0.007912000171315806
1.5105845389291357,0.02110478427342222,0.03287543217913949,0.014310671393420193,0.023296629669658477,-0.009258076464564531
1.5106560560840623,0.022087028251984653,0.027494547539536954,0.011927341615445858,0.0180069228052526,-0.006614542995660934
1.5107275732389889,0.02474352062355467,0.019003999082359332,0.008315005741078718,0.009419683456105719,-0.002163544574193352
1.5107990903939155,0.028206425428266402,0.012531202818622038,0.006455089330600415,0.001515895042798392,0.002847642917303986
1.510870607548842,0.03156791810921427,0.009635279885252509,0.006924877381908108,-0.0024240427536463016,0.0062180304294166995
1.5109421247037687,0.034217944840168574,0.010328034089088297,0.0085255112555674,0.00041155424749607144,0.005003243427753833
1.5110136418586952,0.036025983655989566,0.014294102114174962,0.01161661354179527,0.007722186870854491,0.001224613012786475
1.5110851590136218,0.03729532439305516,0.016721918150857776,0.013294021431409462,0.01669775543998273,-0.004738021851267295
1.5111566761685484,0.03854470610167679,0.0162344836216139,0.013163190298163863,0.025887311646583786,-0.011999271996366424
1.511228193323475,0.04022460916569971,0.015556071680809495,0.013651672900344249,0.03134473004396761,-0.015958964108120158
1.5112997104784016,0.04246467581659284,0.01663422591076061,0.01442102957265151,0.0339869317701854,-0.01754349173654789
1.5113712276333282,0.04493429586497486,0.021427493871359053,0.016921655013448497,0.03584913187116472,-0.017436656667711763
1.5114427447882548,0.04689231770787431,0.026880179448672024,0.019784155718843215,0.03629173017428334,-0.015993600323997787
1.5115142619431814,0.047454803887083834,0.02894856226504202,0.02007376929597759,0.03494362890129689,-0.014758676065655516
1.511585779098108,0.04599085839647899,0.025566812304876507,0.017243949592298295,0.03116033751150647,-0.013570154080122953
