freq,gls,usurper,pdc_unbiased,shape_periodogram,shift_periodogram
1.5,0.031605246424144244,0.03127496652615694,0.022003088454338578,0.042104122554796404,-0.007772203355833678
1.5000715171549266,0.028595336453250155,0.024395029111296488,0.01679692217781675,0.034573118391667546,-0.007397030974166062
1.5001430343098532,0.024797888546036324,0.01850645289645857,0.011419584810450916,0.028217199271374734,-0.007865847782966279
1.5002145514647798,0.020789812632417533,0.016626951603717122,0.008796510756732951,0.02222687233558654,-0.006354079240868629
1.5002860686197064,0.017345459787468324,0.019249539886130065,0.009479677332466734,0.019153229012493455,-0.0039577522670100895
1.500357585774633,0.015271945925960987,0.023894656377089964,0.011714688134418397,0.018502556742211487,-0.001780573173559132
1.5004291029295596,0.015165201318802408,0.029334317536981826,0.01415548030345099,0.021805920459890212,-0.0018192146126155418
1.5005006200844861,0.01716595655706576,0.034432075366537376,0.016954003693511403,0.02423001476747835,-0.0010423923656850459
1.5005721372394127,0.02086274426290797,0.03830720525353274,0.019187221778694714,0.02653314472816238,-0.0006441973606899612
1.5006436543943393,0.02544081002802935,0.04164050947841064,0.02137618975240262,0.028909883941225963,-0.0003254264792128067
1.500715171549266,0.03000884122307953,0.04523217870789709,0.02421994995090846,0.030516202878761275,0.0009811466501994182
1.5007866887041925,0.03391266896856934,0.04943964038882349,0.02666061786266369,0.036803915300483575,-0.0008532927701682199
1.500858205859119,0.0368882624749449,0.054222197431753695,0.029368029530911475,0.045694001041607424,-0.004042932083437688
1.5009297230140457,0.0390355018056212,0.059433140491296686,0.03287087235373193,0.05735278938216145,-0.00826775299826901
1.5010012401689723,0.04067274274449097,0.06129410166256914,0.0349635290275476,0.0674830551863637,-0.012705422638272727
1.5010727573238989,0.04213722341942038,0.061493275921730435,0.036798409825528795,0.07499525489403201,-0.015773172157235213
1.5011442744788255,0.043587855733941964,0.061453551660201174,0.03793328428010061,0.08142208185840405,-0.018749603402845868
1.501215791633752,0.044880915226329254,0.06106533924713207,0.03824814004694497,0.08593472337987863,-0.021228440406575295
1.5012873087886787,0.045592465454410994,0.061983771656090994,0.03896037083855539,0.08997904248907884,-0.02310636747609085
1.5013588259436053,0.04519857422015515,0.06124063630525422,0.038338310339186395,0.0907050392379316,-0.02404582681673882
1.5014303430985318,0.04331902735671992,0.057449358931893985,0.03525172960142179,0.09007766145021676,-0.026143344138459187
1.5015018602534584,0.03989064242203222,0.04941883144515139,0.029380562295107576,0.08582654561169668,-0.02827645131636035
1.501573377408385,0.035207008956161204,0.03998760682519121,0.02275340008029923,0.07998595766730832,-0.03004867001580241
1.5016448945633116,0.029854908046904056,0.03137663969971204,0.01716592382272006,0.07096341772661884,-0.029061328016882805
1.5017164117182382,0.02460404968418353,0.024186242677250346,0.01272729457488559,0.06087591557670081,-0.026514644192671834
1.5017879288731648,0.020274028275387688,0.019896318520657836,0.010756457121333964,0.05201313898869194,-0.022739646664863205
1.5018594460280914,0.01756978332877583,0.017844123210985895,0.009814843547662735,0.04640388980427327,-0.02010837297126452
1.501930963183018,0.016887968997375314,0.017462809000807888,0.009773529530205848,0.04030506562620476,-0.01646420712593394
1.5020024803379446,0.018154766828972088,0.016698866072895384,0.009545857603491862,0.03427984975162934,-0.013015038884333054
1.5020739974928712,0.020807783027131654,0.01730602499200006,0.00997328939183271,0.02932588343773399,-0.00968915689125078
1.5021455146477978,0.023992628107040868,0.01988788285143216,0.01144212206274167,0.02669416068456816,-0.006930586131204329
1.5022170318027244,0.026898257150269028,0.024518544944977787,0.014028974316248104,0.02862350368913428,-0.006025515179548391
1.502288548957651,0.029041972437567,0.029421707658337654,0.016679671046279716,0.03336257182066572,-0.006761501531746886
1.5023600661125776,0.03036170293294545,0.03465917265214417,0.019990738498687276,0.04041499938779642,-0.00836356196449019
1.5024315832675041,0.031115659296329378,0.035467630714793176,0.02077896981185265,0.04676800697998678,-0.011562731510163547
1.5025031004224307,0.031680428730509906,0.03266353031562349,0.019519808615351825,0.05072265734896942,-0.01495479480507321
1.5025746175773573,0.032340192227813126,0.02894439598836108,0.018649627815208736,0.051155340993930695,-0.015911756108687208
1.502646134732284,0.033131945974426154,0.026300635879998178,0.017871043624403338,0.04897666304693803,-0.015220236288938973
1.5027176518872105,0.033797027787609374,0.025802665031170083,0.01799769758677829,0.04764720155288826,-0.01431716745033924
1.502789169042137,0.033871437590867574,0.0245148417204096,0.017486670760106647,0.04526193211346535,-0.013287485602810933
1.5028606861970637,0.03289397904446062,0.021169319763259187,0.015274482970942199,0.042368153558801525,-0.013311478216629308
1.5029322033519903,0.030638444170610023,0.017324858760558635,0.012011118949132128,0.039623530064152764,-0.01426537262784496
1.5030037205069169,0.02725242384486997,0.015207617109751343,0.009441040885373031,0.0372397319851369,-0.014882355123758264
1.5030752376618435,0.023245599290448483,0.01657245940880936,0.008606550278537486,0.03546465972370498,-0.014479403513367666
1.50314675481677,0.019358366958489085,0.019954932135937294,0.008953985446160287,0.0340335935630634,-0.013339543391669624
1.5032182719716967,0.01638051368297583,0.02436934946364462,0.010426555451109277,0.033179450939868266,-0.011648391622676058
1.5032897891266233,0.01497089818834955,0.028670816676513063,0.012350463029946239,0.03299243255186925,-0.009998432788120574
1.5033613062815498,0.015499460648454992,0.03209263925326832,0.013981854206916533,0.032217399322612375,-0.00822785516299817
1.5034328234364764,0.01793079665045714,0.03253798085187886,0.01416864675154985,0.028845773912281537,-0.006047765374738727
1.503504340591403,0.021792554285279486,0.03194881088132871,0.013806564009865633,0.02458963354122404,-0.003774062479410947
1.5035758577463296,0.026283745634476982,0.03463522489050611,0.015751292513310384,0.02304735810887135,-0.0012914823158549087
1.5036473749012562,0.03053094650102892,0.04003920027434766,0.019003856556851165,0.02713110907499306,-0.0011508058838283098
1.5037188920561828,0.03389868374654469,0.04730914037541978,0.02304438568669538,0.03654771250364808,-0.003591467907244553
1.5037904092111094,0.03619247413189749,0.05625666783825274,0.02836367437687625,0.04842468239971521,-0.0064928178307377404
1.503861926366036,0.03764566473947448,0.06305205736055865,0.03246316988130233,0.06056822387418752,-0.010534574097621402
1.5039334435209626,0.038716510453014726,0.06631132626634151,0.03408384953452373,0.07225393669493903,-0.016293135568899983
1.5040049606758892,0.0398171228344044,0.06788479859473222,0.03557140334761458,0.08098588488846424,-0.020380835370646704
1.5040764778308158,0.041095739566223526,0.07135743054948257,0.037525773851031737,0.08768153855943349,-0.02286626952808827
1.5041479949857424,0.04234364882306056,0.0747295462335197,0.038887791087543686,0.09301000108530871,-0.025001723431923438
1.504219512140669,0.043051695709888996,0.07613339554258733,0.03921573232033744,0.09696802113361638,-0.027138798993504822
1.5042910292955955,0.04260283060723393,0.0714105324178224,0.036347749549566495,0.09786336416058858,-0.029985516270883333
1.5043625464505221,0.04053910287302065,0.06037663590789508,0.030363706364527798,0.09402465438381391,-0.03245817172401808
1.5044340636054487,0.03679439695722014,0.04647226749831231,0.02344001313236871,0.0851708528225321,-0.03263906900904811
1.5045055807603753,0.03178229372791513,0.034316783524707274,0.01698689592080203,0.07602123069397386,-0.032264109152442266
1.504577097915302,0.026296542555493532,0.025969325296922825,0.012446934359831944,0.06646404104763362,-0.030115015295359177
1.5046486150702285,0.021278189004975218,0.022874470868586176,0.011187449324425095,0.05830310905783867,-0.026191829579751254
1.504720132225155,0.017555651134353225,0.02198534720557735,0.011283372248322305,0.051908524097264645,-0.022255405513445077
1.5047916493800817,0.01564621916050789,0.02094765023510247,0.010644076718018416,0.04692137776653855,-0.019757820135745698
1.5048631665350083,0.015656872938766518,0.018719959966857002,0.009217644422453899,0.04018654876827855,-0.0168369283715488
1.5049346836899349,0.017286051262519187,0.01713698781182139,0.008230188330603324,0.03329928346684346,-0.013475374233052319
1.5050062008448615,0.019918755698584013,0.01706568383851562,0.007905738300784866,0.027044642784538647,-0.009966909141296772
1.505077717999788,0.022804926807040774,0.01931578099014616,0.009361654152707073,0.02245055681181715,-0.006037303801420945
1.5051492351547147,0.025289013466251117,0.024337083285952636,0.011726326065843064,0.025227984437109094,-0.005820577202965305
1.5052207523096413,0.027015644551186973,0.02954614841391424,0.014241445734319206,0.030547903824070195,-0.0070147708976899675
1.5052922694645678,0.028012475009877,0.03226801237331162,0.015961322224474977,0.034805315381373395,-0.008204831651674776
1.5053637866194944,0.028596359216805502,0.029113266592749897,0.014919408532213189,0.03642345696725512,-0.01001255530222095
1.505435303774421,0.02915112616185344,0.022554825844845503,0.013309044659559194,0.03498302919201126,-0.01043168666673249
1.5055068209293476,0.029900153036102176,0.0180083677300619,0.012321918805932341,0.032763062827420225,-0.00988306164730583
1.5055783380842742,0.030782681811496897,0.017339204789715974,0.01250866989698158,0.03140974111117516,-0.00891858508254562
1.5056498552392008,0.03146961942071043,0.01965409259747131,0.013496870470295333,0.032885923261540585,-0.009018153623159771
1.5057213723941274,0.03149161794629547,0.020826978203445708,0.013134126432083434,0.03539839312981766,-0.010821738668549982
1.505792889549054,0.030427310908792447,0.020306622375661405,0.011855838401314541,0.03752171213551907,-0.013122738534126236
1.5058644067039806,0.02809465201809536,0.01806329822025145,0.009674998552531539,0.03743644431203389,-0.014813972441533336
1.5059359238589072,0.024683284499830333,0.014277207221835123,0.006168765257997816,0.035928059368925035,-0.01670613248200909
1.5060074410138338,0.020766913938386953,0.011881780211105164,0.003987129865862614,0.03308855802942453,-0.016737787390342183
1.5060789581687604,0.017165658691511196,0.012987955814062613,0.004506773893992003,0.02998139163967926,-0.014450841738058127
1.506150475323687,0.014695536880755058,0.015624058259687996,0.005603202541494299,0.028403397991037617,-0.012624557793601393
1.5062219924786135,0.013907828977730352,0.01800941789839648,0.006474304461408025,0.02682044223227493,-0.01097532683928086
1.5062935096335401,0.014929925183180436,0.01857230986585428,0.007024475314287043,0.022701191334978388,-0.008055199206708748
1.5063650267884667,0.01746107614733839,0.01756938747374964,0.006681651925523114,0.018555620728105175,-0.005832981453525128
1.5064365439433933,0.020900617081537138,0.01921683434054479,0.008103902228742074,0.015216230483081974,-0.002686599888362121
1.50650806109832,0.024545654709518663,0.02350336987537357,0.01119024144466396,0.01266197295345343,0.0013162165837431441
1.5065795782532465,0.027795889555703463,0.03092670283626214,0.015188716512202768,0.01710984829349611,0.0018333167203377608
1.506651095408173,0.030315638754338018,0.040711180621406086,0.02020329875354711,0.025507250859109893,0.0007856455218149559
1.5067226125630997,0.03210575674634778,0.05052129590201448,0.02516307524326057,0.036261362268071314,-0.0017244309253786002
1.5067941297180263,0.03344435853615213,0.056283279837053765,0.02809340030703321,0.046372554673611704,-0.005472120840743364
1.5068656468729529,0.03469846610783441,0.05692508268736948,0.028836225363534616,0.052642732331206005,-0.008657906123060942
1.5069371640278795,0.03608805388876267,0.05597171028295883,0.029158238083419115,0.05588780045422817,-0.010357493330440982
1.507008681182806,0.03753193323000867,0.05574060042720614,0.029645090979329304,0.05871570186761775,-0.011673939715605658
1.5070801983377327,0.038657419159163646,0.055875693345130754,0.03000532215028713,0.060157945049679466,-0.012255855315545159
1.5071517154926592,0.038950459296790155,0.05453571928498884,0.029635790998015537,0.059814633763325534,-0.012344610595988667
1.5072232326475858,0.03795818995272562,0.04877648412233535,0.026170643808596194,0.058370313720828,-0.014247478130955607
1.5072947498025124,0.035465807062779846,0.041463827707526414,0.02167628316777021,0.05526383533308752,-0.01596955326791024
1.507366266957439,0.03160750390290827,0.03535245366440045,0.01779655130545853,0.051466066406477114,-0.016781431369397484
1.5074377841123656,0.02689036393457737,0.030098015822256692,0.014369878001425985,0.04759405303513383,-0.017185616202011263
1.5075093012672922,0.022110982309926926,0.025478644880970836,0.012274203971852665,0.04282097424745227,-0.015982548873302957
1.5075808184222188,0.018158898886019043,0.022485613861154153,0.010838451012952628,0.04006346740670418,-0.01546764290878151
1.5076523355771454,0.015750547010193554,0.020657607508027375,0.009985828883372298,0.03748665255039195,-0.014595873948869794
1.507723852732072,0.015198153002695225,0.017411203314899475,0.008495434228764531,0.03234362413546759,-0.012687711013428674
1.5077953698869986,0.01632710132796861,0.013038923335743345,0.006411917338543193,0.025018840934603902,-0.009940151280083956
1.5078668870419252,0.01858159605132472,0.009845662999567892,0.00521914285473996,0.017175454947896115,-0.0061701967304423734
1.5079384041968518,0.02125563485920751,0.008012528217392434,0.005152249488431391,0.009206824148850132,-0.0014267884279921858
1.5080099213517784,0.023737553869918368,0.007989109332557877,0.0057615299185219465,0.005137300734220817,0.0015092102645133968
1.508081438506705,0.025680396681245936,0.010174972073788917,0.007453924502377228,0.004380596903592746,0.0033162671472427127
1.5081529556616315,0.027059576075294776,0.012270421606492544,0.008842952470356694,0.005732115971938412,0.0036122255661855617
1.5082244728165581,0.028112039179855254,0.011682325665541652,0.008942296206187028,0.006766459757014494,0.0030690473981820703
1.5082959899714847,0.029172386947160022,0.009537721118248995,0.008780907310022895,0.007621642887682927,0.002425444826368816
1.5083675071264113,0.03045818310099522,0.009553753754602906,0.010026451111954632,0.008928761027228836,0.0026335732921918815
1.508439024281338,0.03190386747651281,0.013797914111469373,0.012747040105629182,0.011969549301354061,0.002976577984074795
1.5085105414362645,0.03314377564440417,0.02006299119828204,0.01600259242207933,0.016930521354617492,0.0025915384692667257
1.508582058591191,0.03366149064758627,0.025117988807678154,0.0186299276568245,0.021634227544479297,0.0018596937047452734
1.5086535757461177,0.03301661123576188,0.02481038825768988,0.017302793300784304,0.023972811068650325,-0.0006087946236595089
1.5087250929010443,0.031031763736761156,0.020441326901107216,0.013978643770450466,0.023736301132705927,-0.003122754348186475
1.5087966100559709,0.02787943173947238,0.014764583660575524,0.009773118861112214,0.02104997797655279,-0.004865305404484319
1.5088681272108975,0.024071143965329337,0.009529980298650518,0.005405399448016361,0.018335734226524274,-0.00671997245204588
1.508939644365824,0.020368522042175177,0.005385134079492493,0.002619426200917792,0.014521913690756026,-0.0066490291023867465
1.5090111615207507,0.017622660517009992,0.003393394055685675,0.001280243020763253,0.01275479031285492,-0.006654754384867923
1.5090826786756772,0.016549556574789192,0.0027820850292881176,0.001094148915450876,0.012651789803526528,-0.006741367295686979
1.5091541958306038,0.01749078347259404,0.0029443089463858335,0.001728275756159572,0.011204094189569457,-0.005363502261197697
1.5092257129855304,0.02026609634215111,0.003689189431593689,0.002622344403247119,0.007913210869984953,-0.0026686240515885512
1.509297230140457,0.024225306810832306,0.007424336315051851,0.005090188490138515,0.005172256222420239,0.0009520137476447036
1.5093687472953836,0.028505184243561566,0.015960970479952652,0.010396256019729185,0.004703198129012815,0.005472074447076723
1.5094402644503102,0.032363241212534366,0.027743345963381547,0.017181792517199104,0.008572626589342108,0.008563650269961658
1.5095117816052368,0.035420479974014,0.040704119250794805,0.023785576506019895,0.01602239481605501,0.009357714403368663
1.5095832987601634,0.03772295943106026,0.050377743634887076,0.028541189697550762,0.023005639766202665,0.008957623708476449
1.50965481591509,0.039632532833370364,0.05330176763241184,0.030196375009199177,0.027955492401562292,0.007302623934030187
1.5097263330700166,0.041605230836871475,0.048438336268801896,0.028415936049993602,0.029439487238005328,0.004985208777576851
1.5097978502249432,0.04392716574129624,0.04086878366979704,0.026087173799228647,0.026024700016598037,0.005178253099274432
1.5098693673798698,0.04649881119729661,0.03658861365804767,0.025125670272120693,0.021708451451826875,0.007007272575703794
1.5099408845347964,0.048782229516577,0.0368815890134872,0.025898717163670308,0.020740906007841495,0.008207573795660946
1.510012401689723,0.04998265464348263,0.0399500449889673,0.027970420605425636,0.021701251015888625,0.009286115816470347
1.5100839188446495,0.04939582665258717,0.04040172772862025,0.02744804663090382,0.02256488761906674,0.008348720416518749
1.5101554359995761,0.046726633743720845,0.03761046834286353,0.024915387052692306,0.02239112072918881,0.006428304077055202
1.5102269531545027,0.04221494386441091,0.03437331840526823,0.022036546886626967,0.021274988983900678,0.0047987005484583295
1.5102984703094293,0.0365554045951188,0.032393392000537195,0.019143160662124768,0.02149300970973323,0.0023548776045633447
1.510369987464356,0.030705701566729478,0.03211739575278807,0.01712115674686206,0.022425849806648766,0.0001773797388512952
1.5104415046192825,0.025671938650474672,0.033126646651831626,0.016152578444133103,0.024251908069672406,-0.0016960355984400452
1.510513021774209,0.02230380117340663,0.03472343337407749,0.01595046449902194,0.027171166657876764,-0.003615340012806287
1.5105845389291357,0.02110478427342222,0.03314765192336655,0.014310671393420193,0.027383926618729126,-0.0050538904940970195
1.5106560560840623,0.022087028251984653,0.027659243445593264,0.011927341615445858,0.022398413785185024,-0.003956181702617562
1.5107275732389889,0.02474352062355467,0.01889072703123482,0.008315005741078718,0.014330241903851038,-0.0019846438268221397
1.5107990903939155,0.028206425428266402,0.012189316558873287,0.006455089330600415,0.005839666258970366,0.0016403858793585255
1.510870607548842,0.03156791810921427,0.009029479725066139,0.006924877381908108,-0.0002501066414398252,0.005680727979227847
1.5109421247037687,0.034217944840168574,0.009394545387061198,0.0085255112555674,-0.001422573245581874,0.007664646053097504
1.5110136418586952,0.036025983655989566,0.01302887402432371,0.01161661354179527,0.0008643243706070534,0.008757020278567776
1.5110851590136218,0.03729532439305516,0.014972953494452093,0.013294021431409462,0.004729284200018883,0.007770870702203455
1.5111566761685484,0.03854470610167679,0.013634806912594824,0.013163190298163863,0.008747417437503962,0.005248236104987704
1.511228193323475,0.04022460916569971,0.012218630293867716,0.013651672900344249,0.010085526027674194,0.004833130331021894
1.5112997104784016,0.04246467581659284,0.013256433786267487,0.01442102957265151,0.01100342636059704,0.004895304059568737
1.5113712276333282,0.04493429586497486,0.018597033141890904,0.016921655013448497,0.013598667203108044,0.005331198244484227
1.5114427447882548,0.04689231770787431,0.02481912532117483,0.019784155718843215,0.016680930676639307,0.0057634877553192606
1.5115142619431814,0.047454803887083834,0.02752469105854544,0.02007376929597759,0.019051061977722883,0.004568467956662963
