freq,gls,usurper,pdc_unbiased,shape_periodogram,shift_periodogram
1.5,0.031605246424144244,0.02867641903850952,0.022003088454338578,0.013732649162619645,0.013637651691588247
1.5000715171549266,0.028595336453250155,0.021873372972845848,0.01679692217781675,0.009036600816541505,0.011050569309427305
1.5001430343098532,0.024797888546036324,0.016129910007013856,0.011419584810450916,0.005439300967422788,0.007824413714153525
1.5002145514647798,0.020789812632417533,0.014381695221808375,0.008796510756732951,0.0022908752755623598,0.0068689152237930064
1.5002860686197064,0.017345459787468324,0.017093401552910753,0.009479677332466734,0.0011445961095366227,0.007989484178804707
1.500357585774633,0.015271945925960987,0.021721999722586427,0.011714688134418397,0.002295258801032334,0.009482762950121425
1.5004291029295596,0.015165201318802408,0.027072711348764912,0.01415548030345099,0.005809420330067353,0.01011293387211639
1.5005006200844861,0.01716595655706576,0.03208647847013501,0.016954003693511403,0.008765368777084772,0.011311623883052279
1.5005721372394127,0.02086274426290797,0.0360837902808947,0.019187221778694714,0.012166491130234441,0.011806579096157956
1.5006436543943393,0.02544081002802935,0.03967963557280093,0.02137618975240262,0.01568909122908367,0.012208440812551432
1.500715171549266,0.03000884122307953,0.04351212216605148,0.02421994995090846,0.017611740988892996,0.01390708134260254
1.5007866887041925,0.03391266896856934,0.047696199050779514,0.02666061786266369,0.02176076756896868,0.014258278639067373
1.500858205859119,0.0368882624749449,0.052328621710153865,0.029368029530911475,0.026974833361001167,0.014377766187770945
1.5009297230140457,0.0390355018056212,0.05727204988706618,0.03287087235373193,0.033217239130634554,0.014756934571485834
1.5010012401689723,0.04067274274449097,0.059016223972697436,0.0349635290275476,0.037830260676155594,0.01459282182264247
1.5010727573238989,0.04213722341942038,0.05934648271382771,0.036798409825528795,0.040823559822734376,0.014915308708593963
1.5011442744788255,0.043587855733941964,0.059513110093888585,0.03793328428010061,0.04344166689215696,0.0147753531892547
1.501215791633752,0.044880915226329254,0.059442539022574896,0.03824814004694497,0.04579272682492199,0.014016714975204384
1.5012873087886787,0.045592465454410994,0.06055296549467496,0.03896037083855539,0.04775444377646059,0.013787803767462387
1.5013588259436053,0.04519857422015515,0.05989171191666174,0.038338310339186395,0.04753569445588959,0.013325438199741378
1.5014303430985318,0.04331902735671992,0.05601176947083853,0.03525172960142179,0.04808241720672979,0.010308307099331384
1.5015018602534584,0.03989064242203222,0.04790693211429328,0.029380562295107576,0.046405905687379866,0.005775673987878875
1.501573377408385,0.035207008956161204,0.038530386098880806,0.02275340008029923,0.0444983114111097,0.0006698581630624276
1.5016448945633116,0.029854908046904056,0.030030191359217254,0.01716592382272006,0.04004316911150693,-0.002368496670996739
1.5017164117182382,0.02460404968418353,0.022972847305871617,0.01272729457488559,0.034605385287830484,-0.003937617636108226
1.5017879288731648,0.020274028275387688,0.01880255914196342,0.010756457121333964,0.0301436531329506,-0.0037255044996322845
1.5018594460280914,0.01756978332877583,0.01669574063946734,0.009814843547662735,0.027968537714263282,-0.0036049051185637715
1.501930963183018,0.016887968997375314,0.016246573887573428,0.009773529530205848,0.025936983179806732,-0.0027406766520156386
1.5020024803379446,0.018154766828972088,0.015501045330025887,0.009545857603491862,0.02416681500472223,-0.0021595960719083627
1.5020739974928712,0.020807783027131654,0.016138294944586972,0.00997328939183271,0.022944721795328065,-0.0012342470813389438
1.5021455146477978,0.023992628107040868,0.018536109384143122,0.01144212206274167,0.02183083460496363,0.0005768880992361813
1.5022170318027244,0.026898257150269028,0.022702874307481895,0.014028974316248104,0.022301460255257515,0.002687959196854243
1.502288548957651,0.029041972437567,0.027034476260754465,0.016679671046279716,0.02341963893166138,0.004569432945407706
1.5023600661125776,0.03036170293294545,0.031588920782345584,0.019990738498687276,0.025342326418289474,0.006686999063238228
1.5024315832675041,0.031115659296329378,0.03186363123800214,0.02077896981185265,0.02589527815129468,0.007148988805062495
1.5025031004224307,0.031680428730509906,0.028823314873358145,0.019519808615351825,0.02550754536910684,0.006191285645642426
1.5025746175773573,0.032340192227813126,0.025253257183414677,0.018649627815208736,0.02326797355327558,0.0064036258095107775
1.502646134732284,0.033131945974426154,0.023002286475559103,0.017871043624403338,0.020334899452728636,0.007005609367990822
1.5027176518872105,0.033797027787609374,0.022824993507926848,0.01799769758677829,0.018169613784105178,0.008079066282377808
1.502789169042137,0.033871437590867574,0.021810666918375365,0.017486670760106647,0.015025919619046963,0.009014296727495895
1.5028606861970637,0.03289397904446062,0.01857016715326402,0.015274482970942199,0.012645983812008783,0.008085651757290467
1.5029322033519903,0.030638444170610023,0.014760637857399986,0.012011118949132128,0.011236131647635463,0.005784811927928052
1.5030037205069169,0.02725242384486997,0.01266101194322154,0.009441040885373031,0.010582710921391713,0.0037704311479976244
1.5030752376618435,0.023245599290448483,0.014010706581729643,0.008606550278537486,0.0099948478107934,0.0032829854481860846
1.50314675481677,0.019358366958489085,0.01737194315607374,0.008953985446160287,0.009978764115618249,0.0036015772122165706
1.5032182719716967,0.01638051368297583,0.02183547229951752,0.010426555451109277,0.010503282128955306,0.004689144089621662
1.5032897891266233,0.01497089818834955,0.02624712007897827,0.012350463029946239,0.012252410540122285,0.005638490051209745
1.5033613062815498,0.015499460648454992,0.029723544829729432,0.013981854206916533,0.013367474094357809,0.006606820692753653
1.5034328234364764,0.01793079665045714,0.03035417825191718,0.01416864675154985,0.01303379209115176,0.0069222274920657705
1.503504340591403,0.021792554285279486,0.030204269620438685,0.013806564009865633,0.012897189858425384,0.006658142009191514
1.5035758577463296,0.026283745634476982,0.03326285104011416,0.015751292513310384,0.014530288231787045,0.007677885168271043
1.5036473749012562,0.03053094650102892,0.038771656107268994,0.019003856556851165,0.01889289901770301,0.008660821304769894
1.5037188920561828,0.03389868374654469,0.04595474584477039,0.02304438568669538,0.02481171704225591,0.009661759551159266
1.5037904092111094,0.03619247413189749,0.05462421586724933,0.02836367437687625,0.030961155902738596,0.011709945189335226
1.503861926366036,0.03764566473947448,0.06103765016373254,0.03246316988130233,0.036190427265373276,0.013073516510094372
1.5039334435209626,0.038716510453014726,0.06399141420429777,0.03408384953452373,0.04194632763885644,0.011978662625320827
1.5040049606758892,0.0398171228344044,0.06554507590475056,0.03557140334761458,0.046032895743147874,0.01150419323419676
1.5040764778308158,0.041095739566223526,0.06906674549986648,0.037525773851031737,0.049895846359751014,0.011548811651607338
1.5041479949857424,0.04234364882306056,0.07242375997968417,0.038887791087543686,0.05368669276965723,0.011093142119888998
1.504219512140669,0.043051695709888996,0.07375101761218011,0.03921573232033744,0.056871199519965644,0.009976083879094376
1.5042910292955955,0.04260283060723393,0.06893602238294048,0.036347749549566495,0.058275391078230494,0.006773012166346695
1.5043625464505221,0.04053910287302065,0.05792216297502282,0.030363706364527798,0.05665616190676496,0.002110375360241572
1.5044340636054487,0.03679439695722014,0.044225437619581656,0.02344001313236871,0.05142491879341353,-0.0017884995496561494
1.5045055807603753,0.03178229372791513,0.03237267153615185,0.01698689592080203,0.04609973514249644,-0.005218093607203109
1.504577097915302,0.026296542555493532,0.024233961235759702,0.012446934359831944,0.04085491575384264,-0.006963324444591615
1.5046486150702285,0.021278189004975218,0.021212515343582542,0.011187449324425095,0.03623598092471466,-0.006042649740659207
1.504720132225155,0.017555651134353225,0.02031595002967277,0.011283372248322305,0.03317483766940755,-0.00459797133811007
1.5047916493800817,0.01564621916050789,0.019147465992429405,0.010644076718018416,0.031168753143505153,-0.004281153247781391
1.5048631665350083,0.015656872938766518,0.016786744679364574,0.009217644422453899,0.02843124622680953,-0.00434575542569425
1.5049346836899349,0.017286051262519187,0.015270764061770244,0.008230188330603324,0.02564440655599451,-0.003994821402753367
1.5050062008448615,0.019918755698584013,0.015191559791336224,0.007905738300784866,0.023030053341712035,-0.0031259922667544594
1.505077717999788,0.022804926807040774,0.017371042551872076,0.009361654152707073,0.02069108834487255,-0.0007831318478579067
1.5051492351547147,0.025289013466251117,0.022042490206527723,0.011726326065843064,0.02208790604791074,0.000717730618559912
1.5052207523096413,0.027015644551186973,0.026771928101535114,0.014241445734319206,0.023581762618932946,0.002310752269341256
1.5052922694645678,0.028012475009877,0.02896729769153347,0.015961322224474977,0.022696661923752432,0.0042457192813267165
1.5053637866194944,0.028596359216805502,0.025519241362394016,0.014919408532213189,0.01966288773689374,0.004656459638339893
1.505435303774421,0.02915112616185344,0.019196664917685693,0.013309044659559194,0.014707369706986493,0.0054095479514022025
1.5055068209293476,0.029900153036102176,0.015088505707196541,0.012321918805932341,0.010589688489873596,0.006350043224749512
1.5055783380842742,0.030782681811496897,0.014765307883133906,0.01250866989698158,0.008324098449173789,0.007521851855309381
1.5056498552392008,0.03146961942071043,0.017221024968676835,0.013496870470295333,0.008537295807401276,0.008313261180254704
1.5057213723941274,0.03149161794629547,0.01835473038612587,0.013134126432083434,0.009761561247451218,0.007445332870660847
1.505792889549054,0.030427310908792447,0.017637370579066204,0.011855838401314541,0.011829979052633482,0.005382319341725539
1.5058644067039806,0.02809465201809536,0.015294707771784708,0.009674998552531539,0.012798301976545141,0.002997818444756709
1.5059359238589072,0.024683284499830333,0.011597654652897312,0.006168765257997816,0.012458981088293956,5.018602617345323e-06
1.5060074410138338,0.020766913938386953,0.009402528450585958,0.003987129865862614,0.011261303318062169,-0.0014195507036705633
1.5060789581687604,0.017165658691511196,0.01065665882280898,0.004506773893992003,0.01009912450744757,-0.0004383932034055347
1.506150475323687,0.014695536880755058,0.013372324471467236,0.005603202541494299,0.010842757652046071,0.00021470889804774075
1.5062219924786135,0.013907828977730352,0.015850859578312622,0.006474304461408025,0.011646040867846371,0.0006393970436913734
1.5062935096335401,0.014929925183180436,0.01662597535199228,0.007024475314287043,0.010652864044123068,0.0015729800568296502
1.5063650267884667,0.01746107614733839,0.016076698761777815,0.006681651925523114,0.01081350573723306,0.0011944307638030215
1.5064365439433933,0.020900617081537138,0.01826854356561526,0.008103902228742074,0.01129078317004249,0.0022577778823280235
1.50650806109832,0.024545654709518663,0.022960481991550274,0.01119024144466396,0.010555643996686093,0.005350571603031427
1.5065795782532465,0.027795889555703463,0.030403320281634796,0.015188716512202768,0.012878217203693407,0.007905804657874162
1.506651095408173,0.030315638754338018,0.03997779535263212,0.02020329875354711,0.016930944661697624,0.01060616222339978
1.5067226125630997,0.03210575674634778,0.049336152463601644,0.02516307524326057,0.02175104092443136,0.012919005606730793
1.5067941297180263,0.03344435853615213,0.05466236034770746,0.02809340030703321,0.026262841725590787,0.013549249186370285
1.5068656468729529,0.03469846610783441,0.05517429746235487,0.028836225363534616,0.02875997949492978,0.01310950928795377
1.5069371640278795,0.03608805388876267,0.05431746839621938,0.029158238083419115,0.03001741379599152,0.012841387862584042
1.507008681182806,0.03753193323000867,0.05427431003348779,0.029645090979329304,0.03213736887215599,0.012339052662220568
1.5070801983377327,0.038657419159163646,0.054489651656162846,0.03000532215028713,0.03397979210324271,0.011846014515315972
1.5071517154926592,0.038950459296790155,0.05311336867897164,0.029635790998015537,0.034345748009554984,0.011352044353222901
1.5072232326475858,0.03795818995272562,0.04715604025684042,0.026170643808596194,0.03479663410133566,0.008041234068948282
1.5072947498025124,0.035465807062779846,0.039665950561432,0.02167628316777021,0.03454412983109673,0.0041191322226614745
1.507366266957439,0.03160750390290827,0.03338381049434938,0.01779655130545853,0.03325043895311743,0.0012114617948290334
1.5074377841123656,0.02689036393457737,0.028023013992919166,0.014369878001425985,0.03136168338432757,-0.0010248453713292758
1.5075093012672922,0.022110982309926926,0.023367124558992303,0.012274203971852665,0.028254582960753154,-0.0015261684951115063
1.5075808184222188,0.018158898886019043,0.020246816602617762,0.010838451012952628,0.026768306907700243,-0.002154472929854276
1.5076523355771454,0.015750547010193554,0.01829484006511955,0.009985828883372298,0.025741302749140712,-0.002463492297934892
1.507723852732072,0.015198153002695225,0.014953266966075433,0.008495434228764531,0.02305149426926557,-0.0026067570145294114
1.5077953698869986,0.01632710132796861,0.010650841921503399,0.006411917338543193,0.019571405520023788,-0.002931217244465109
1.5078668870419252,0.01858159605132472,0.007686705630222281,0.00521914285473996,0.01568600535812126,-0.0022773268727066718
1.5079384041968518,0.02125563485920751,0.006082806656328509,0.005152249488431391,0.010776811556189186,-0.00016029030395027947
1.5080099213517784,0.023737553869918368,0.006135311909962243,0.0057615299185219465,0.00695224763836847,0.0020817103038953174
1.508081438506705,0.025680396681245936,0.008329328630820079,0.007453924502377228,0.004039885390410856,0.004890019039223692
1.5081529556616315,0.027059576075294776,0.010309426560280211,0.008842952470356694,0.0017784638899204716,0.00713772315318962
1.5082244728165581,0.028112039179855254,0.009600738206806701,0.008942296206187028,-0.0009606638374980635,0.008441178404647153
1.5082959899714847,0.029172386947160022,0.007565257036431727,0.008780907310022895,-0.003103096526033144,0.009246403404132164
1.5083675071264113,0.03045818310099522,0.007808282023472957,0.010026451111954632,-0.004322979291473668,0.010903662252561288
1.508439024281338,0.03190386747651281,0.01216093806398671,0.012747040105629182,-0.0036592252949086673,0.013047883783786546
1.5085105414362645,0.03314377564440417,0.01843242687895108,0.01600259242207933,-0.0009882153312072563,0.014781914969405553
1.508582058591191,0.03366149064758627,0.02343389396558651,0.0186299276568245,0.0016583370411409955,0.015964037377878774
1.5086535757461177,0.03301661123576188,0.022921679032154904,0.017302793300784304,0.003250921677042374,0.014068462129178652
1.5087250929010443,0.031031763736761156,0.018446367432678124,0.013978643770450466,0.003994354702258575,0.01075899199733195
1.5087966100559709,0.02787943173947238,0.012749112621917962,0.009773118861112214,0.0035551042764633807,0.007183832132278406
1.5088681272108975,0.024071143965329337,0.007594717187505323,0.005405399448016361,0.003452155122886245,0.003314380632288613
1.508939644365824,0.020368522042175177,0.003615961573511382,0.002619426200917792,0.001621631769198599,0.0016288332779876844
1.5090111615207507,0.017622660517009992,0.0017889491317832707,0.001280243020763253,0.0011748897604273191,0.0006265690903679776
1.5090826786756772,0.016549556574789192,0.0013692924474283492,0.001094148915450876,0.0024549743894304735,-0.00010782094802262783
1.5091541958306038,0.01749078347259404,0.0017495052317179126,0.001728275756159572,0.0025670938034254346,0.0004108520625927881
1.5092257129855304,0.02026609634215111,0.002798090406376975,0.002622344403247119,0.0017063272094188634,0.0015938953925491177
1.509297230140457,0.024225306810832306,0.006937414189938089,0.005090188490138515,0.0015011710773974148,0.003896875565929139
1.5093687472953836,0.028505184243561566,0.01577767752420949,0.010396256019729185,0.0024424069638043027,0.008235704571422654
1.5094402644503102,0.032363241212534366,0.027592103843492557,0.017181792517199104,0.004999088425973616,0.013185158819566152
1.5095117816052368,0.035420479974014,0.04030242501536939,0.023785576506019895,0.008773951573762897,0.017433282373644114
1.5095832987601634,0.03772295943106026,0.0496390075788802,0.028541189697550762,0.012019902638824098,0.020260277836375563
1.50965481591509,0.039632532833370364,0.05223895207395856,0.030196375009199177,0.013605652068450502,0.021042646171996245
1.5097263330700166,0.041605230836871475,0.04742539720436107,0.028415936049993602,0.012776633444867515,0.019812762692275106
1.5097978502249432,0.04392716574129624,0.04020683869173686,0.026087173799228647,0.00901668402698942,0.019389680735734334
1.5098693673798698,0.04649881119729661,0.036286908053490656,0.025125670272120693,0.005567816913076675,0.02005537188978245
1.5099408845347964,0.048782229516577,0.03680205173876919,0.025898717163670308,0.005441945703808147,0.020804288891468653
1.510012401689723,0.04998265464348263,0.0398511369059154,0.027970420605425636,0.006597212179526259,0.022150228334716183
1.5100839188446495,0.04939582665258717,0.040021859538156616,0.02744804663090382,0.008265882197843603,0.02094266037395908
1.5101554359995761,0.046726633743720845,0.036837529910747714,0.024915387052692306,0.009557763814254086,0.018099159155876267
1.5102269531545027,0.04221494386441091,0.033211730190446195,0.022036546886626967,0.010590399112710742,0.015060052785174381
1.5102984703094293,0.0365554045951188,0.03081542362376526,0.019143160662124768,0.012228476571428129,0.011739597835797169
1.510369987464356,0.030705701566729478,0.030086364838137324,0.01712115674686206,0.013965108185501306,0.009156750897537388
1.5104415046192825,0.025671938650474672,0.030588474156567638,0.016152578444133103,0.01573584191613206,0.007503296969991506
1.510513021774209,0.02230380117340663,0.031671603058047545,0.01595046449902194,0.018392068565891616,0.00614450428977802
1.5105845389291357,0.02110478427342222,0.02967529315473322,0.014310671393420193,0.019039869451044324,0.004386807858050653
1.5106560560840623,0.022087028251984653,0.024145267554156278,0.011927341615445858,0.015975111176788587,0.0036086134364459615
1.5107275732389889,0.02474352062355467,0.015807778137890003,0.008315005741078718,0.01083751388773789,0.0026480014794176506
1.5107990903939155,0.028206425428266402,0.00964134499067261,0.006455089330600415,0.0051102664571828,0.0035201104534217783
1.510870607548842,0.03156791810921427,0.007025185517732121,0.006924877381908108,1.5128084434684814e-05,0.0062002576579791085
1.5109421247037687,0.034217944840168574,0.007704017894717711,0.0085255112555674,-0.0032449911615269438,0.009080400158503674
1.5110136418586952,0.036025983655989566,0.011448309812865804,0.01161661354179527,-0.004750034633284912,0.012518276874533467
1.5110851590136218,0.03729532439305516,0.013313807277398235,0.013294021431409462,-0.00520533776552995,0.014223603213909837
1.5111566761685484,0.03854470610167679,0.011969892375008062,0.013163190298163863,-0.0052404437429143655,0.014121903123228925
1.511228193323475,0.04022460916569971,0.010768559939716999,0.013651672900344249,-0.006733017983004717,0.015221461970253033
1.5112997104784016,0.04246467581659284,0.012039188888605246,0.01442102957265151,-0.007297680446739465,0.01616136776725887
1.5113712276333282,0.04493429586497486,0.01749848278301729,0.016921655013448497,-0.0058262406857037,0.017750316630544202
1.5114427447882548,0.04689231770787431,0.023747065974237994,0.019784155718843215,-0.003617417630944368,0.019336960842447664
1.5115142619431814,0.047454803887083834,0.026293615576328085,0.02007376929597759,-0.0007990085709716022,0.018347429822926056
