freq,gls,usurper,pdc_unbiased,shape_periodogram,shift_periodogram
1.5,0.031605246424144244,0.033109205271089084,0.022003088454338578,0.054132387805041066,-0.019041591805935797
1.5000715171549266,0.028595336453250155,0.02628906802736731,0.01679692217781675,0.044733862869376174,-0.01677545311457727
1.5001430343098532,0.024797888546036324,0.020508880560979957,0.011419584810450916,0.037160060691313196,-0.01584176137084581
1.5002145514647798,0.020789812632417533,0.018770564067203243,0.008796510756732951,0.031096364946794255,-0.013827119267838795
1.5002860686197064,0.017345459787468324,0.021556979118026353,0.009479677332466734,0.028554116096740953,-0.011639186574547466
1.500357585774633,0.015271945925960987,0.02636675915248045,0.011714688134418397,0.028281495677315832,-0.009775330066610006
1.5004291029295596,0.015165201318802408,0.03191997930476104,0.01415548030345099,0.032322587027165846,-0.010594981165513398
1.5005006200844861,0.01716595655706576,0.03695347955257997,0.016954003693511403,0.03519120151954788,-0.010373230481896877
1.5005721372394127,0.02086274426290797,0.04053674872031646,0.019187221778694714,0.03732961593389417,-0.01009685321758343
1.5006436543943393,0.02544081002802935,0.04358801760920215,0.02137618975240262,0.0400132848911181,-0.010212646789140052
1.500715171549266,0.03000884122307953,0.046894764361373284,0.02421994995090846,0.0424762408436697,-0.009688866237473491
1.5007866887041925,0.03391266896856934,0.050988814002650026,0.02666061786266369,0.04978922244407901,-0.012663788359907946
1.500858205859119,0.0368882624749449,0.055741776840111085,0.029368029530911475,0.06015246611109722,-0.017450846124947298
1.5009297230140457,0.0390355018056212,0.06093034660209698,0.03287087235373193,0.0737323177890336,-0.023767254566367503
1.5010012401689723,0.04067274274449097,0.06264734006723723,0.0349635290275476,0.08542747743448155,-0.029916763165329773
1.5010727573238989,0.04213722341942038,0.06261986754415146,0.036798409825528795,0.09380992658325953,-0.034078607292380235
1.5011442744788255,0.043587855733941964,0.06238905756432472,0.03793328428010061,0.10079021887675757,-0.03784725364333204
1.501215791633752,0.044880915226329254,0.06181403240203183,0.03824814004694497,0.10495349624926911,-0.040371787688661995
1.5012873087886787,0.045592465454410994,0.06266001126890611,0.03896037083855539,0.10828511578787012,-0.04204491860468666
1.5013588259436053,0.04519857422015515,0.061858380934891266,0.038338310339186395,0.10813298381391018,-0.042415054830771876
1.5014303430985318,0.04331902735671992,0.05816691149132901,0.03525172960142179,0.1058161772991073,-0.043213290842469006
1.5015018602534584,0.03989064242203222,0.0502761863876397,0.029380562295107576,0.09944732598604815,-0.04342726070780928
1.501573377408385,0.035207008956161204,0.04096002893180802,0.02275340008029923,0.09130549271640559,-0.04303653470902181
1.5016448945633116,0.029854908046904056,0.032376241633281205,0.01716592382272006,0.08099515582589495,-0.04042822843714022
1.5017164117182382,0.02460404968418353,0.025258766664504665,0.01272729457488559,0.07010260330883437,-0.036576014554306355
1.5017879288731648,0.020274028275387688,0.02100653795269394,0.010756457121333964,0.06033604735560144,-0.03161484781978075
1.5018594460280914,0.01756978332877583,0.01905982328285138,0.009814843547662735,0.05402929964321855,-0.028165177832888823
1.501930963183018,0.016887968997375314,0.018736262247107015,0.009773529530205848,0.04715988969141526,-0.023668707232278763
1.5020024803379446,0.018154766828972088,0.017855768356742487,0.009545857603491862,0.040365917073862174,-0.019364971856926837
1.5020739974928712,0.020807783027131654,0.018465861776127534,0.00997328939183271,0.03536333750622482,-0.01574895542249909
1.5021455146477978,0.023992628107040868,0.021226031216893027,0.01144212206274167,0.03373081783125519,-0.013567222864435144
1.5022170318027244,0.026898257150269028,0.026160213947768643,0.014028974316248104,0.037541188656963785,-0.014125680596695422
1.502288548957651,0.029041972437567,0.03140139439517328,0.016679671046279716,0.04467859186146765,-0.016827465452509058
1.5023600661125776,0.03036170293294545,0.03696775356614681,0.019990738498687276,0.05442899772866813,-0.020755513469708754
1.5024315832675041,0.031115659296329378,0.037913780188374636,0.02077896981185265,0.06323249803322688,-0.025967429832269146
1.5025031004224307,0.031680428730509906,0.03517927338397631,0.019519808615351825,0.06858344576207961,-0.03044978802383829
1.5025746175773573,0.032340192227813126,0.03136527488124091,0.018649627815208736,0.0697850831425783,-0.03189987156445489
1.502646134732284,0.033131945974426154,0.02849084971046242,0.017871043624403338,0.06725274444885175,-0.030815046956907597
1.5027176518872105,0.033797027787609374,0.02782807453683984,0.01799769758677829,0.06477833860742678,-0.029086058364878827
1.502789169042137,0.033871437590867574,0.02632261721986921,0.017486670760106647,0.061031266570173666,-0.026998849559908313
1.5028606861970637,0.03289397904446062,0.02289003240544622,0.015274482970942199,0.056139780389807305,-0.025440858081247415
1.5029322033519903,0.030638444170610023,0.019087565657114138,0.012011118949132128,0.05129167699163422,-0.024705026007518713
1.5030037205069169,0.02725242384486997,0.017094335022153326,0.009441040885373031,0.04761975450644817,-0.024222303885639826
1.5030752376618435,0.023245599290448483,0.018649404576363496,0.008606550278537486,0.045869627867818404,-0.023698087728037536
1.50314675481677,0.019358366958489085,0.02227248481834391,0.008953985446160287,0.044994097374319655,-0.022859449998468975
1.5032182719716967,0.01638051368297583,0.026859875438379848,0.010426555451109277,0.04487643497698807,-0.02167209952440791
1.5032897891266233,0.01497089818834955,0.03126546295120852,0.012350463029946239,0.04480401391571211,-0.020174194487458733
1.5033613062815498,0.015499460648454992,0.03463664519840423,0.013981854206916533,0.043684602781633934,-0.01820692209601739
1.5034328234364764,0.01793079665045714,0.03475440067839774,0.01416864675154985,0.03932986743636485,-0.015198117805993056
1.503504340591403,0.021792554285279486,0.03375873274671112,0.013806564009865633,0.03395537263081701,-0.011932731949160145
1.5035758577463296,0.026283745634476982,0.036167335824003194,0.015751292513310384,0.031710836698388686,-0.00898927482411034
1.5036473749012562,0.03053094650102892,0.04150544969010669,0.019003856556851165,0.03597207005517871,-0.009341461686409746
1.5037188920561828,0.03389868374654469,0.048813947705254705,0.02304438568669538,0.046500080579298504,-0.013226182021033756
1.5037904092111094,0.03619247413189749,0.05784269195107855,0.02836367437687625,0.0613127423116355,-0.018974780864741764
1.503861926366036,0.03764566473947448,0.06460025615524612,0.03246316988130233,0.07670312365075442,-0.026038410346766603
1.5039334435209626,0.038716510453014726,0.06791357655227906,0.03408384953452373,0.09055723794828127,-0.033978047907908294
1.5040049606758892,0.0398171228344044,0.06947108843352505,0.03557140334761458,0.10107664345062493,-0.03982535015956479
1.5040764778308158,0.041095739566223526,0.0729377718440278,0.037525773851031737,0.10860554413563372,-0.0433444023683832
1.5041479949857424,0.04234364882306056,0.0764112222055227,0.038887791087543686,0.1135790660823211,-0.04561876051296597
1.504219512140669,0.043051695709888996,0.07790673484162622,0.03921573232033744,0.11590149838978313,-0.04691520941454448
1.5042910292955955,0.04260283060723393,0.07316532268600073,0.036347749549566495,0.11370082516173684,-0.04762360630878486
1.5043625464505221,0.04053910287302065,0.06197791039936643,0.030363706364527798,0.10576324995067983,-0.04687610232420724
1.5044340636054487,0.03679439695722014,0.04781726098567092,0.02344001313236871,0.09317691798585917,-0.043758073240907185
1.5045055807603753,0.03178229372791513,0.03543644438800844,0.01698689592080203,0.08140095787634498,-0.040831695674500616
1.504577097915302,0.026296542555493532,0.027059852708864744,0.012446934359831944,0.07072964077500546,-0.037201530105889016
1.5046486150702285,0.021278189004975218,0.024071728192149415,0.011187449324425095,0.06260194351452056,-0.03278504030269435
1.504720132225155,0.017555651134353225,0.023340046262376412,0.011283372248322305,0.056519333366355985,-0.028700192613140954
1.5047916493800817,0.01564621916050789,0.022523626872015957,0.010644076718018416,0.05186349404556928,-0.026112396929612983
1.5048631665350083,0.015656872938766518,0.020471034368320304,0.009217644422453899,0.04528918606107672,-0.022855148121320862
1.5049346836899349,0.017286051262519187,0.018873869933281173,0.008230188330603324,0.03850978425795487,-0.019134213497589748
1.5050062008448615,0.019918755698584013,0.018811129801400733,0.007905738300784866,0.032671360860852136,-0.015535040469802967
1.505077717999788,0.022804926807040774,0.021165369324691742,0.009361654152707073,0.028785973836178914,-0.01188071041061692
1.5051492351547147,0.025289013466251117,0.026460730581660548,0.011726326065843064,0.032770932394886015,-0.012721179833892515
1.5052207523096413,0.027015644551186973,0.03189144658464181,0.014241445734319206,0.040317404988672895,-0.01579353070159124
1.5052922694645678,0.028012475009877,0.03468947873710397,0.015961322224474977,0.04703094480103548,-0.018918900515315584
1.5053637866194944,0.028596359216805502,0.03141817145398935,0.014919408532213189,0.050680089331412645,-0.02210926652374274
1.505435303774421,0.02915112616185344,0.024492432490146175,0.013309044659559194,0.050646749914100696,-0.023301470417930358
1.5055068209293476,0.029900153036102176,0.019624873018823066,0.012321918805932341,0.049121546241803545,-0.023040464883341442
1.5055783380842742,0.030782681811496897,0.018781382834707774,0.01250866989698158,0.04775036075757161,-0.02199611761374025
1.5056498552392008,0.03146961942071043,0.02109472994675703,0.013496870470295333,0.04854830194621381,-0.021776923938753044
1.5057213723941274,0.03149161794629547,0.022340779198331617,0.013134126432083434,0.04983274621591491,-0.022896859294828074
1.505792889549054,0.030427310908792447,0.02192866476546959,0.011855838401314541,0.049681461932423544,-0.023760808736315864
1.5058644067039806,0.02809465201809536,0.019695814903703077,0.009674998552531539,0.04697083930142856,-0.023618403680273604
1.5059359238589072,0.024683284499830333,0.015829537325517132,0.006168765257997816,0.04368240899777769,-0.024094181925528053
1.5060074410138338,0.020766913938386953,0.013380150507011716,0.003987129865862614,0.0401990427318649,-0.023443652699487026
1.5060789581687604,0.017165658691511196,0.01447116405447372,0.004506773893992003,0.037056158557335045,-0.02098267956668954
1.506150475323687,0.014695536880755058,0.01718286508883833,0.005603202541494299,0.03537219819884987,-0.019047933098313725
1.5062219924786135,0.013907828977730352,0.019610699990599417,0.006474304461408025,0.033388486279997,-0.01708571453485113
1.5062935096335401,0.014929925183180436,0.0200141405486196,0.007024475314287043,0.02858686624901593,-0.013510911023886274
1.5063650267884667,0.01746107614733839,0.018713982605326154,0.006681651925523114,0.02310377905814375,-0.010161415425994783
1.5064365439433933,0.020900617081537138,0.02008191779344135,0.008103902228742074,0.018984065779698713,-0.00637955580481438
1.50650806109832,0.024545654709518663,0.024150710739779504,0.01119024144466396,0.017009598859830406,-0.002755041078141341
1.5065795782532465,0.027795889555703463,0.03151131608217694,0.015188716512202768,0.02292916187870944,-0.003635187445586669
1.506651095408173,0.030315638754338018,0.04135834914265901,0.02020329875354711,0.033613284590849626,-0.006884269755781253
1.5067226125630997,0.03210575674634778,0.05129431645357775,0.02516307524326057,0.04716558870252432,-0.01206567820760384
1.5067941297180263,0.03344435853615213,0.05716970997563261,0.02809340030703321,0.05915873102340124,-0.017758176951561948
1.5068656468729529,0.03469846610783441,0.05776258244285558,0.028836225363534616,0.06638655296695258,-0.021965762045228186
1.5069371640278795,0.03608805388876267,0.05670654114984356,0.029158238083419115,0.06968004175954552,-0.02389677081430969
1.507008681182806,0.03753193323000867,0.05641857122412244,0.029645090979329304,0.0715599402109986,-0.02477038591578311
1.5070801983377327,0.038657419159163646,0.05656258923713335,0.03000532215028713,0.07082425585101229,-0.024012321179066546
1.5071517154926592,0.038950459296790155,0.0552024167035215,0.029635790998015537,0.0680065344692562,-0.022431055731708064
1.5072232326475858,0.03795818995272562,0.04943096148205973,0.026170643808596194,0.06324659675982115,-0.02190680854554372
1.5072947498025124,0.035465807062779846,0.042139053655799015,0.02167628316777021,0.056480086661597984,-0.020836093056277497
1.507366266957439,0.03160750390290827,0.03609958092838466,0.01779655130545853,0.05040326802745007,-0.019757060658772876
1.5074377841123656,0.02689036393457737,0.030965285296780786,0.014369878001425985,0.04579264748965716,-0.01930305333073058
1.5075093012672922,0.022110982309926926,0.02650377732334539,0.012274203971852665,0.041272196988461095,-0.01790536326227032
1.5075808184222188,0.018158898886019043,0.02388231099729024,0.010838451012952628,0.03941054790208691,-0.017761616424051652
1.5076523355771454,0.015750547010193554,0.022412193006627373,0.009985828883372298,0.03771506571878328,-0.017287825488342002
1.507723852732072,0.015198153002695225,0.01930982617571078,0.008495434228764531,0.03296310587109545,-0.015282692006533649
1.5077953698869986,0.01632710132796861,0.014872673671301843,0.006411917338543193,0.02551709932623336,-0.01195249001847398
1.5078668870419252,0.01858159605132472,0.01148862670471869,0.00521914285473996,0.017871622133907198,-0.007821429051763926
1.5079384041968518,0.02125563485920751,0.009469119653167449,0.005152249488431391,0.010643262467794496,-0.003117600293520876
1.5080099213517784,0.023737553869918368,0.009359909457105395,0.0057615299185219465,0.007808881281380055,-0.0007945387075536696
1.508081438506705,0.025680396681245936,0.011439245064481431,0.007453924502377228,0.009283539035302109,-0.000489195380357707
1.5081529556616315,0.027059576075294776,0.01342990604471647,0.008842952470356694,0.01340761913373434,-0.0021548114557428605
1.5082244728165581,0.028112039179855254,0.01267957966989072,0.008942296206187028,0.016688654175094603,-0.0042379361647639615
1.5082959899714847,0.029172386947160022,0.010284264640566794,0.008780907310022895,0.019079499818104244,-0.005932181564225058
1.5083675071264113,0.03045818310099522,0.010072445488508188,0.010026451111954632,0.02140321144488759,-0.006522161485180493
1.508439024281338,0.03190386747651281,0.014266894030982084,0.012747040105629182,0.025187925674186016,-0.006961677922734395
1.5085105414362645,0.03314377564440417,0.020615243089526183,0.01600259242207933,0.030085530534178766,-0.0077301897368777595
1.508582058591191,0.03366149064758627,0.025717666690146176,0.0186299276568245,0.03407279468119657,-0.008373281215197278
1.5086535757461177,0.03301661123576188,0.025448252095168784,0.017302793300784304,0.03502314849006248,-0.009999604277926552
1.5087250929010443,0.031031763736761156,0.02107865621441284,0.013978643770450466,0.03235063040482122,-0.010746747896052976
1.5087966100559709,0.02787943173947238,0.015391242764341524,0.009773118861112214,0.027132300052561717,-0.010482424636110557
1.5088681272108975,0.024071143965329337,0.010175575034687218,0.005405399448016361,0.0227708087494303,-0.010903983536245939
1.508939644365824,0.020368522042175177,0.006048778075993183,0.002619426200917792,0.018496098534001488,-0.01019087533284773
1.5090111615207507,0.017622660517009992,0.004165648803991065,0.001280243020763253,0.016754716806686297,-0.010054331146345772
1.5090826786756772,0.016549556574789192,0.003628613487517461,0.001094148915450876,0.01640691025700371,-0.009965753884817357
1.5091541958306038,0.01749078347259404,0.003699849094949747,0.001728275756159572,0.014596234650390085,-0.008297072083602013
1.5092257129855304,0.02026609634215111,0.004159237849641058,0.002622344403247119,0.01118114624099629,-0.0053774001524641065
1.509297230140457,0.024225306810832306,0.007556239242406193,0.005090188490138515,0.008819716266025051,-0.0019651019576808052
1.5093687472953836,0.028505184243561566,0.015887358055390172,0.010396256019729185,0.009527439396226836,0.001567426345234486
1.5094402644503102,0.032363241212534366,0.027661017434299925,0.017181792517199104,0.015193150957783839,0.0029553892037850636
1.5095117816052368,0.035420479974014,0.04080573281464136,0.023785576506019895,0.024982766480704043,0.0014960922571246192
1.5095832987601634,0.03772295943106026,0.05069552478191477,0.028541189697550762,0.034137196794544473,-0.0009384726733200214
1.50965481591509,0.039632532833370364,0.053687901825878924,0.030196375009199177,0.040177325310396216,-0.003664279244805454
1.5097263330700166,0.041605230836871475,0.048645678668396745,0.028415936049993602,0.041673919206337555,-0.00599365939490114
1.5097978502249432,0.04392716574129624,0.040667264104327666,0.026087173799228647,0.037145123734090575,-0.004770025026390809
1.5098693673798698,0.04649881119729661,0.03604469901161938,0.025125670272120693,0.030968500872434242,-0.001430795449093846
1.5099408845347964,0.048782229516577,0.036210035261391424,0.025898717163670308,0.02771347118006821,0.001293852988960521
1.510012401689723,0.04998265464348263,0.03930272802950388,0.027970420605425636,0.026374050254885418,0.003737888290700631
1.5100839188446495,0.04939582665258717,0.039980221986131124,0.02744804663090382,0.02498194966171827,0.004259359153546027
1.5101554359995761,0.046726633743720845,0.03750681511947107,0.024915387052692306,0.022559819275524372,0.003941851303811054
1.5102269531545027,0.04221494386441091,0.034633246062564925,0.022036546886626967,0.019500376743594432,0.0037828462841868623
1.5102984703094293,0.0365554045951188,0.03312820132154984,0.019143160662124768,0.019483311007276037,0.0016125116747712517
1.510369987464356,0.030705701566729478,0.033496436442001884,0.01712115674686206,0.02165468504588638,-0.001340065262185005
1.5104415046192825,0.025671938650474672,0.03515896787232268,0.016152578444133103,0.025402927242859353,-0.004536015063485696
1.510513021774209,0.02230380117340663,0.03733501776465399,0.01595046449902194,0.02988747464318723,-0.007639155881424321
1.5105845389291357,0.02110478427342222,0.03604505636956718,0.014310671393420193,0.030839683226696786,-0.009502019992991488
1.5106560560840623,0.022087028251984653,0.030428076161510727,0.011927341615445858,0.02583234612202308,-0.008003498345496221
1.5107275732389889,0.02474352062355467,0.021261901220915376,0.008315005741078718,0.017195403939705468,-0.0050439371301078265
1.5107990903939155,0.028206425428266402,0.014080926576330532,0.006455089330600415,0.008851325134653597,-0.0009575305079893218
1.510870607548842,0.03156791810921427,0.010497972279061286,0.006924877381908108,0.003807333750033907,0.002713396920806246
1.5109421247037687,0.034217944840168574,0.0105624569519743,0.0085255112555674,0.004783112582504663,0.0032777057990271367
1.5110136418586952,0.036025983655989566,0.014052018750024957,0.01161661354179527,0.010279647508717366,0.001992349008591054
1.5110851590136218,0.03729532439305516,0.015879710773051087,0.013294021431409462,0.01701236543440592,-0.001171366822871441
1.5111566761685484,0.03854470610167679,0.014345638281130654,0.013163190298163863,0.023411003640689078,-0.005478958889482829
1.511228193323475,0.04022460916569971,0.01259453160678267,0.013651672900344249,0.026375823984982033,-0.007061383758780143
1.5112997104784016,0.04246467581659284,0.013354235901518519,0.01442102957265151,0.027860170512987784,-0.0074581199496969956
1.5113712276333282,0.04493429586497486,0.018543648032823042,0.016921655013448497,0.030393018147987387,-0.00723960804528407
1.5114427447882548,0.04689231770787431,0.024722097591663203,0.019784155718843215,0.03252468467917275,-0.006483929947742415
1.5115142619431814,0.047454803887083834,0.027547192118920927,0.02007376929597759,0.03283057168434256,-0.00646682313526622
