freq,gls,usurper,pdc_unbiased,shape_periodogram,shift_periodogram
1.5,0.031605246424144244,0.031112687705775348,0.022003088454338578,0.03848974186373044,-0.00035273316946106957
1.5000715171549266,0.028595336453250155,0.024421278496504568,0.01679692217781675,0.03143170650907026,-0.001302401866147697
1.5001430343098532,0.024797888546036324,0.018654044391712022,0.011419584810450916,0.025917380216070558,-0.0031757584621665245
1.5002145514647798,0.020789812632417533,0.016882749228816458,0.008796510756732951,0.02139711615956586,-0.003167545084322965
1.5002860686197064,0.017345459787468324,0.01940577675664119,0.009479677332466734,0.01966527279959496,-0.0017051638133538276
1.500357585774633,0.015271945925960987,0.023833782985922446,0.011714688134418397,0.01993639459589718,9.040311614988396e-05
1.5004291029295596,0.015165201318802408,0.029090971408915593,0.01415548030345099,0.023516296370545555,0.0003985431325661584
1.5005006200844861,0.01716595655706576,0.03414015453094136,0.016954003693511403,0.02635748688872583,0.0013882066845725548
1.5005721372394127,0.02086274426290797,0.03814240015584459,0.019187221778694714,0.02907646594853059,0.0019509134754003116
1.5006436543943393,0.02544081002802935,0.041548779781766756,0.02137618975240262,0.03180441912550788,0.0024711692612152756
1.500715171549266,0.03000884122307953,0.04523474672807728,0.02421994995090846,0.03367335930150878,0.003990882446278955
1.5007866887041925,0.03391266896856934,0.04952262800886488,0.02666061786266369,0.03945205387075136,0.0031940011905276858
1.500858205859119,0.0368882624749449,0.05445531471184248,0.029368029530911475,0.04747153882210357,0.0014995931968269174
1.5009297230140457,0.0390355018056212,0.05975854199233846,0.03287087235373193,0.0577029998705093,-0.0006209672816254723
1.5010012401689723,0.04067274274449097,0.06166992867926494,0.0349635290275476,0.0655023522056629,-0.0027395087708631583
1.5010727573238989,0.04213722341942038,0.06173235354933804,0.036798409825528795,0.07043445433964222,-0.0036361628457603577
1.5011442744788255,0.043587855733941964,0.06150058193900574,0.03793328428010061,0.0745600374922123,-0.004733812594490882
1.501215791633752,0.044880915226329254,0.0610251645476024,0.03824814004694497,0.0774920174202204,-0.005941349767392715
1.5012873087886787,0.045592465454410994,0.061915789761118036,0.03896037083855539,0.08074167749708325,-0.006964767908779046
1.5013588259436053,0.04519857422015515,0.06128836607722,0.038338310339186395,0.08101455161168689,-0.007643174941601157
1.5014303430985318,0.04331902735671992,0.05761245333243926,0.03525172960142179,0.08049082028958818,-0.010059467694689789
1.5015018602534584,0.03989064242203222,0.0497106341921945,0.029380562295107576,0.07669205564489656,-0.013234801821915708
1.501573377408385,0.035207008956161204,0.04032574729847966,0.02275340008029923,0.07167754026772398,-0.016446029411119105
1.5016448945633116,0.029854908046904056,0.03182422977897307,0.01716592382272006,0.06411960399043799,-0.01746678494321637
1.5017164117182382,0.02460404968418353,0.02458128985199152,0.01272729457488559,0.055544814763723305,-0.01697871117402085
1.5017879288731648,0.020274028275387688,0.02007646513562698,0.010756457121333964,0.04793950946128667,-0.014846292519509871
1.5018594460280914,0.01756978332877583,0.017736080214457887,0.009814843547662735,0.0430355503468973,-0.013187734326253194
1.501930963183018,0.016887968997375314,0.01712680534421571,0.009773529530205848,0.038034030227911596,-0.010702398473240879
1.5020024803379446,0.018154766828972088,0.016259125591391203,0.009545857603491862,0.033457304574189536,-0.008593211117240427
1.5020739974928712,0.020807783027131654,0.016883810887957526,0.00997328939183271,0.03026345742529577,-0.006614834293189442
1.5021455146477978,0.023992628107040868,0.01952905733091968,0.01144212206274167,0.029362830190336406,-0.004891261167612468
1.5022170318027244,0.026898257150269028,0.024218634036604146,0.014028974316248104,0.03212893682635738,-0.004047433047463008
1.502288548957651,0.029041972437567,0.02920307550338222,0.016679671046279716,0.03695782203969456,-0.004187058761177922
1.5023600661125776,0.03036170293294545,0.03463869929927312,0.019990738498687276,0.04342013232078836,-0.004578130395501
1.5024315832675041,0.031115659296329378,0.035606348240802846,0.02077896981185265,0.048175781258800995,-0.006292845226391462
1.5025031004224307,0.031680428730509906,0.032773878319922164,0.019519808615351825,0.05011283787431301,-0.008359474576280834
1.5025746175773573,0.032340192227813126,0.028833791463211102,0.018649627815208736,0.048571762404513996,-0.00833560089446117
1.502646134732284,0.033131945974426154,0.026057419227893786,0.017871043624403338,0.04509132621233382,-0.007254785965255068
1.5027176518872105,0.033797027787609374,0.025665979588710523,0.01799769758677829,0.043399041029325736,-0.006292231593633764
1.502789169042137,0.033871437590867574,0.024484171857310926,0.017486670760106647,0.041010213045748985,-0.005530579761753242
1.5028606861970637,0.03289397904446062,0.021247446463743023,0.015274482970942199,0.038402971287308296,-0.006130670169865784
1.5029322033519903,0.030638444170610023,0.01753004426057037,0.012011118949132128,0.03605900020687606,-0.00777220395465995
1.5030037205069169,0.02725242384486997,0.015527985477539702,0.009441040885373031,0.03451206271492776,-0.0092152286767133
1.5030752376618435,0.023245599290448483,0.017063141923390836,0.008606550278537486,0.033978959027946336,-0.009668164981631104
1.50314675481677,0.019358366958489085,0.02045541698921239,0.008953985446160287,0.03378087611578105,-0.00926797264371774
1.5032182719716967,0.01638051368297583,0.02470113846547422,0.010426555451109277,0.03363628002881697,-0.00792187188162686
1.5032897891266233,0.01497089818834955,0.028797377579729756,0.012350463029946239,0.03351386182287852,-0.00619655841673236
1.5033613062815498,0.015499460648454992,0.032130250217871234,0.013981854206916533,0.03289434169225821,-0.0044736859557603596
1.5034328234364764,0.01793079665045714,0.03257401986985972,0.01416864675154985,0.02992989246570554,-0.0028191903104017183
1.503504340591403,0.021792554285279486,0.03193313746015425,0.013806564009865633,0.026310172840791228,-0.001309683403959832
1.5035758577463296,0.026283745634476982,0.034574471568209954,0.015751292513310384,0.02578402885628159,0.0006368228770614172
1.5036473749012562,0.03053094650102892,0.04001944543270697,0.019003856556851165,0.03042984584670196,0.00111095617569412
1.5037188920561828,0.03389868374654469,0.0473606648571483,0.02304438568669538,0.03944207902213748,6.880406120572065e-05
1.5037904092111094,0.03619247413189749,0.05645177547428011,0.02836367437687625,0.050001842294957397,-0.000645301792446692
1.503861926366036,0.03764566473947448,0.06340925768457632,0.03246316988130233,0.06015832391343304,-0.002212491490993163
1.5039334435209626,0.038716510453014726,0.0667094978857331,0.03408384953452373,0.06922116381352954,-0.005379536895197662
1.5040049606758892,0.0398171228344044,0.06819920911449055,0.03557140334761458,0.07549206819361516,-0.007255380878281949
1.5040764778308158,0.041095739566223526,0.07149069926487049,0.037525773851031737,0.0804660458978443,-0.008071796741136344
1.5041479949857424,0.04234364882306056,0.07475688659389088,0.038887791087543686,0.08507113689043061,-0.009216955232660086
1.504219512140669,0.043051695709888996,0.0761589951470902,0.03921573232033744,0.08879987191398264,-0.010818557266853972
1.5042910292955955,0.04260283060723393,0.07164943379394087,0.036347749549566495,0.08970170192811512,-0.013768145524366946
1.5043625464505221,0.04053910287302065,0.06084957369200144,0.030363706364527798,0.08614234310438662,-0.01716357524905234
1.5044340636054487,0.03679439695722014,0.04715396276487769,0.02344001313236871,0.07755592602458419,-0.0188239183818427
1.5045055807603753,0.03178229372791513,0.0351942071084778,0.01698689592080203,0.06918451796259427,-0.02018153399173325
1.504577097915302,0.026296542555493532,0.026918981807787488,0.012446934359831944,0.061100580425796316,-0.020026711283859498
1.5046486150702285,0.021278189004975218,0.023636818116759314,0.011187449324425095,0.05404881927284894,-0.017555931055897277
1.504720132225155,0.017555651134353225,0.022431476285508768,0.011283372248322305,0.04820625245082012,-0.014525049895365945
1.5047916493800817,0.01564621916050789,0.021123335905555665,0.010644076718018416,0.04373408403102195,-0.012822748274387157
1.5048631665350083,0.015656872938766518,0.018726191125202993,0.009217644422453899,0.03847823637704749,-0.011406949981645379
1.5049346836899349,0.017286051262519187,0.017123367034708584,0.008230188330603324,0.03338027542049375,-0.009691942573587124
1.5050062008448615,0.019918755698584013,0.017026400274517867,0.007905738300784866,0.029213644787264688,-0.007873579232644552
1.505077717999788,0.022804926807040774,0.01921390249643925,0.009361654152707073,0.026544678650415304,-0.005270800870949899
1.5051492351547147,0.025289013466251117,0.02429319126593296,0.011726326065843064,0.030383156260349372,-0.005159381680224002
1.5052207523096413,0.027015644551186973,0.029652693593335493,0.014241445734319206,0.035829627440675124,-0.005727738412547174
1.5052922694645678,0.028012475009877,0.03250209243998138,0.015961322224474977,0.03934572852289799,-0.006011531878122305
1.5053637866194944,0.028596359216805502,0.02947518674967232,0.014919408532213189,0.038931073077096555,-0.006703906629761377
1.505435303774421,0.02915112616185344,0.022943593761287105,0.013309044659559194,0.03526536026574742,-0.006249889015190557
1.5055068209293476,0.029900153036102176,0.018283746200036904,0.012321918805932341,0.031409835607389365,-0.005161458654943613
1.5055783380842742,0.030782681811496897,0.017469874732594797,0.01250866989698158,0.029132326597134318,-0.003852977174325138
1.5056498552392008,0.03146961942071043,0.019767277038549625,0.013496870470295333,0.03028676918064322,-0.0035798314721309193
1.5057213723941274,0.03149161794629547,0.021042759033623,0.013134126432083434,0.03274258744064355,-0.005130369922151797
1.505792889549054,0.030427310908792447,0.02074474287809304,0.011855838401314541,0.03521921855758884,-0.007483394045281246
1.5058644067039806,0.02809465201809536,0.018833166795821126,0.009674998552531539,0.035650457289819505,-0.009586502632455283
1.5059359238589072,0.024683284499830333,0.015337123504574699,0.006168765257997816,0.03506607875423407,-0.012323528401898912
1.5060074410138338,0.020766913938386953,0.013112392978824657,0.003987129865862614,0.03351522645358139,-0.013428017813499303
1.5060789581687604,0.017165658691511196,0.014167700595183077,0.004506773893992003,0.03132683060122867,-0.01187627544485551
1.506150475323687,0.014695536880755058,0.01653217278361237,0.005603202541494299,0.029987532177006924,-0.01025383707717043
1.5062219924786135,0.013907828977730352,0.018557531438651943,0.006474304461408025,0.028124895047878202,-0.008562646505782655
1.5062935096335401,0.014929925183180436,0.018902054102890833,0.007024475314287043,0.023959324628939186,-0.0059893380035771025
1.5063650267884667,0.01746107614733839,0.017800302253732903,0.006681651925523114,0.020133482216199265,-0.00435941252322662
1.5064365439433933,0.020900617081537138,0.019283826942416597,0.008103902228742074,0.017329286905641752,-0.0017184548856410842
1.50650806109832,0.024545654709518663,0.02352060484257335,0.01119024144466396,0.015429116618106942,0.0019056938512227919
1.5065795782532465,0.027795889555703463,0.031025269058110618,0.015188716512202768,0.019762922923807796,0.00318112761599433
1.506651095408173,0.030315638754338018,0.040871305503992574,0.02020329875354711,0.02748830721979215,0.003629242708370433
1.5067226125630997,0.03210575674634778,0.05082563280068576,0.02516307524326057,0.037250949764736085,0.003005969467249026
1.5067941297180263,0.03344435853615213,0.05664367289645026,0.02809340030703321,0.04566506081970912,0.0013055943180968596
1.5068656468729529,0.03469846610783441,0.05724182008607205,0.028836225363534616,0.0500241325181748,-0.00024717469618567813
1.5069371640278795,0.03608805388876267,0.05613114886426733,0.029158238083419115,0.051492370972535464,-0.0007081082157968615
1.507008681182806,0.03753193323000867,0.05576253917059981,0.029645090979329304,0.052938736187396175,-0.0010152495126734982
1.5070801983377327,0.038657419159163646,0.055958154738631354,0.03000532215028713,0.05371967996557474,-0.0010967300511258585
1.5071517154926592,0.038950459296790155,0.05479317211284496,0.029635790998015537,0.052828069740381324,-0.0009675292098565532
1.5072232326475858,0.03795818995272562,0.04930666409416638,0.026170643808596194,0.05124665023520762,-0.003172300062985195
1.5072947498025124,0.035465807062779846,0.042291561139612,0.02167628316777021,0.048417299006620895,-0.005637812765166111
1.507366266957439,0.03160750390290827,0.036449106365808066,0.01779655130545853,0.04521350646177737,-0.00738083596261844
1.5074377841123656,0.02689036393457737,0.03145951715678632,0.014369878001425985,0.04242777212080332,-0.008941462228530171
1.5075093012672922,0.022110982309926926,0.026822817071332022,0.012274203971852665,0.03872175701676545,-0.008886385821201215
1.5075808184222188,0.018158898886019043,0.02355027317507118,0.010838451012952628,0.036798695532331276,-0.009159005028796005
1.5076523355771454,0.015750547010193554,0.021435707533355636,0.009985828883372298,0.034710667071811696,-0.008844230139498326
1.507723852732072,0.015198153002695225,0.017965960365881956,0.008495434228764531,0.03022624188184952,-0.007873797378489264
1.5077953698869986,0.01632710132796861,0.013498175778820957,0.006411917338543193,0.024009510777099608,-0.00654409559768965
1.5078668870419252,0.01858159605132472,0.010250762240280674,0.00521914285473996,0.017506538335985224,-0.004301001696110932
1.5079384041968518,0.02125563485920751,0.008398991622573916,0.005152249488431391,0.011031342866687029,-0.0010995021669236353
1.5080099213517784,0.023737553869918368,0.008293293672053358,0.0057615299185219465,0.007728018039245362,0.0010895724945218798
1.508081438506705,0.025680396681245936,0.010582775992947496,0.007453924502377228,0.0071173577250289366,0.0028594733347655863
1.5081529556616315,0.027059576075294776,0.012838343364241344,0.008842952470356694,0.00830835280521952,0.0034605443623257205
1.5082244728165581,0.028112039179855254,0.012290966648750673,0.008942296206187028,0.008706650561915316,0.0033459597199182794
1.5082959899714847,0.029172386947160022,0.010049328848444079,0.008780907310022895,0.008472581630075084,0.00332427423167707
1.5083675071264113,0.03045818310099522,0.009957985398748863,0.010026451111954632,0.00879983277432537,0.004236060361810137
1.508439024281338,0.03190386747651281,0.014011872835295595,0.012747040105629182,0.011026283573978465,0.005467089777050248
1.5085105414362645,0.03314377564440417,0.020198614659349218,0.01600259242207933,0.015427289760235866,0.0060666666570480905
1.508582058591191,0.03366149064758627,0.025376265052114003,0.0186299276568245,0.019575767967352865,0.006250724040832054
1.5086535757461177,0.03301661123576188,0.02538798930590511,0.017302793300784304,0.021673674112600738,0.0040473851280560524
1.5087250929010443,0.031031763736761156,0.021378690529710875,0.013978643770450466,0.02157998703818506,0.0012203418891524934
1.5087966100559709,0.02787943173947238,0.016036877170484923,0.009773118861112214,0.019314759357314887,-0.0012750643243944172
1.5088681272108975,0.024071143965329337,0.011070877157165681,0.005405399448016361,0.017452492399008444,-0.00411281753590705
1.508939644365824,0.020368522042175177,0.006951064095118239,0.002619426200917792,0.014581384862119922,-0.005075271864674069
1.5090111615207507,0.017622660517009992,0.004796285744301253,0.001280243020763253,0.01308868426985396,-0.005481193998335074
1.5090826786756772,0.016549556574789192,0.0038615384763354935,0.001094148915450876,0.012804047801439372,-0.005498736250572735
1.5091541958306038,0.01749078347259404,0.0036832247595939465,0.001728275756159572,0.011385044869263764,-0.004236497333026977
1.5092257129855304,0.02026609634215111,0.004215771235116012,0.002622344403247119,0.008363492252292618,-0.001943078929583225
1.509297230140457,0.024225306810832306,0.007857442341099278,0.005090188490138515,0.006236726962504521,0.0012599294643027012
1.5093687472953836,0.028505184243561566,0.016258834157235193,0.010396256019729185,0.006612090169388867,0.005656596384314727
1.5094402644503102,0.032363241212534366,0.027872633337705673,0.017181792517199104,0.010777488773171159,0.009425681566652718
1.5095117816052368,0.035420479974014,0.040766748700209375,0.023785576506019895,0.017810430742069026,0.011597321827936729
1.5095832987601634,0.03772295943106026,0.05039566961936998,0.028541189697550762,0.023997353252439724,0.012598922503550491
1.50965481591509,0.039632532833370364,0.05326814050806818,0.030196375009199177,0.02798089831365659,0.01202749582909889
1.5097263330700166,0.041605230836871475,0.048402647605507686,0.028415936049993602,0.027968375552657274,0.01049296879929303
1.5097978502249432,0.04392716574129624,0.04091832783058272,0.026087173799228647,0.023292056994607235,0.010830581870166944
1.5098693673798698,0.04649881119729661,0.03659892447473534,0.025125670272120693,0.017946345196906178,0.012687939292756951
1.5099408845347964,0.048782229516577,0.03675867808691643,0.025898717163670308,0.016419229266578246,0.014124626001836536
1.510012401689723,0.04998265464348263,0.03982964369878741,0.027970420605425636,0.017022470248108792,0.015613072447988771
1.5100839188446495,0.04939582665258717,0.04043204526499542,0.02744804663090382,0.01757434562799935,0.014883702729389093
1.5101554359995761,0.046726633743720845,0.037898904934099274,0.024915387052692306,0.01712229284233183,0.012920568323382634
1.5102269531545027,0.04221494386441091,0.03494834473508886,0.022036546886626967,0.016211338317438543,0.010889236422908932
1.5102984703094293,0.0365554045951188,0.03324487498000204,0.019143160662124768,0.01724852884865312,0.00786553615967448
1.510369987464356,0.030705701566729478,0.03313181054779353,0.01712115674686206,0.019600215867405534,0.00493383125178806
1.5104415046192825,0.025671938650474672,0.03409962906219569,0.016152578444133103,0.022446345113155023,0.0026639156611080027
1.510513021774209,0.02230380117340663,0.035493952351829956,0.01595046449902194,0.025542467719120717,0.0009306598593459461
1.5105845389291357,0.02110478427342222,0.03376234819169334,0.014310671393420193,0.025983620240217168,-0.0007093833367842963
1.5106560560840623,0.022087028251984653,0.028254504595616736,0.011927341615445858,0.021451919590723793,-0.000488642268042217
1.5107275732389889,0.02474352062355467,0.01947081419294252,0.008315005741078718,0.014053628001355052,0.00011278288638430668
1.5107990903939155,0.028206425428266402,0.012679657995810518,0.006455089330600415,0.006448365585405127,0.0023329495144516024
1.510870607548842,0.03156791810921427,0.00938638412097963,0.006924877381908108,0.0011073338312412846,0.005426782382785384
1.5109421247037687,0.034217944840168574,0.009628230609816667,0.0085255112555674,-2.90327142890794e-05,0.0073818352224331515
1.5110136418586952,0.036025983655989566,0.013163554319646076,0.01161661354179527,0.0018778090213792727,0.009093552021478442
1.5110851590136218,0.03729532439305516,0.015008014683983077,0.013294021431409462,0.005044237909467237,0.00894994545705056
1.5111566761685484,0.03854470610167679,0.013610538748639597,0.013163190298163863,0.007970009913720655,0.007364694317254778
1.511228193323475,0.04022460916569971,0.012258737132816668,0.013651672900344249,0.008329747522511697,0.007605886621066783
1.5112997104784016,0.04246467581659284,0.013336345138365974,0.01442102957265151,0.008655282674926894,0.008107070261018002
1.5113712276333282,0.04493429586497486,0.018624028099902993,0.016921655013448497,0.011104553947415538,0.009036248981027341
1.5114427447882548,0.04689231770787431,0.024851061342154514,0.019784155718843215,0.014260303759820387,0.009923223935712511
1.5115142619431814,0.047454803887083834,0.02761263496410477,0.02007376929597759,0.016784236498841216,0.008903805484825495
