freq,gls,usurper,pdc_unbiased,shape_periodogram,shift_periodogram
1.5,0.031605246424144244,0.02594172343623167,0.022003088454338578,0.06083908922885198,-0.014261063014681944
1.5000715171549266,0.028595336453250155,0.020240160629001386,0.01679692217781675,0.05117650398477024,-0.013435214051411775
1.5001430343098532,0.024797888546036324,0.014619767976025226,0.011419584810450916,0.043661269910613615,-0.013913447435490967
1.5002145514647798,0.020789812632417533,0.012437946153511013,0.008796510756732951,0.03983409327250164,-0.014059567283619213
1.5002860686197064,0.017345459787468324,0.013927927901654504,0.009479677332466734,0.0410819451434561,-0.014157002907654509
1.500357585774633,0.015271945925960987,0.017409130892722915,0.011714688134418397,0.04461048274266655,-0.014176945065316535
1.5004291029295596,0.015165201318802408,0.021535018385667515,0.01415548030345099,0.050981923164766456,-0.015558457721952182
1.5005006200844861,0.01716595655706576,0.02565257471561218,0.016954003693511403,0.05622923369439102,-0.016031918166809836
1.5005721372394127,0.02086274426290797,0.028983215577482166,0.019187221778694714,0.06005536717839765,-0.016214772630767305
1.5006436543943393,0.02544081002802935,0.03186958381851039,0.02137618975240262,0.06308224270696972,-0.016002942080920946
1.500715171549266,0.03000884122307953,0.03513458448014091,0.02421994995090846,0.06683710873012323,-0.015631482471946158
1.5007866887041925,0.03391266896856934,0.038421099069899475,0.02666061786266369,0.0743332679134218,-0.01762488641877525
1.500858205859119,0.0368882624749449,0.041928906859845266,0.029368029530911475,0.08427066705075843,-0.02071836205073902
1.5009297230140457,0.0390355018056212,0.04604517495819327,0.03287087235373193,0.09553635826170326,-0.02386562796171485
1.5010012401689723,0.04067274274449097,0.04799151814157432,0.0349635290275476,0.104072412005743,-0.02673169859010602
1.5010727573238989,0.04213722341942038,0.048560118238311134,0.036798409825528795,0.1090985287129202,-0.02791086715487876
1.5011442744788255,0.043587855733941964,0.04858151734078445,0.03793328428010061,0.11275660374101043,-0.02894030238350087
1.501215791633752,0.044880915226329254,0.048279267959205355,0.03824814004694497,0.11513814812278948,-0.029970967436682018
1.5012873087886787,0.045592465454410994,0.048728934018806784,0.03896037083855539,0.11845692817155071,-0.03117611296430261
1.5013588259436053,0.04519857422015515,0.047804433474343246,0.038338310339186395,0.1184048478678725,-0.03167587941498918
1.5014303430985318,0.04331902735671992,0.044757854187966045,0.03525172960142179,0.1147336179333638,-0.03229308569703191
1.5015018602534584,0.03989064242203222,0.0385125899882218,0.029380562295107576,0.10736874905153312,-0.03325667879363762
1.501573377408385,0.035207008956161204,0.03102167973721359,0.02275340008029923,0.0977941282376638,-0.033655555293975355
1.5016448945633116,0.029854908046904056,0.024252297857433075,0.01716592382272006,0.08819665825312115,-0.033163661324701055
1.5017164117182382,0.02460404968418353,0.01844213054339302,0.01272729457488559,0.0783856521903285,-0.031588991637748164
1.5017879288731648,0.020274028275387688,0.015335243585100754,0.010756457121333964,0.0701342367524384,-0.028781703916573337
1.5018594460280914,0.01756978332877583,0.014104336420018942,0.009814843547662735,0.06482230972152646,-0.026700956911720954
1.501930963183018,0.016887968997375314,0.014311590638955946,0.009773529530205848,0.05919829784706811,-0.02369406104746908
1.5020024803379446,0.018154766828972088,0.01441046451806444,0.009545857603491862,0.054928960168967915,-0.021578414501402955
1.5020739974928712,0.020807783027131654,0.01561963361899208,0.00997328939183271,0.052170109341153195,-0.019727393471370383
1.5021455146477978,0.023992628107040868,0.01823241097867612,0.01144212206274167,0.05285434708830166,-0.018858360327792815
1.5022170318027244,0.026898257150269028,0.02212540988743164,0.014028974316248104,0.057388794809934,-0.01912647676974193
1.502288548957651,0.029041972437567,0.02585842915183942,0.016679671046279716,0.0644962662012348,-0.020732446998105697
1.5023600661125776,0.03036170293294545,0.03003380909099063,0.019990738498687276,0.07081939166622844,-0.021358248910464443
1.5024315832675041,0.031115659296329378,0.03083462394901617,0.02077896981185265,0.0745818308861137,-0.02272949250761463
1.5025031004224307,0.031680428730509906,0.028542033775046362,0.019519808615351825,0.07439180514429031,-0.023690122294406167
1.5025746175773573,0.032340192227813126,0.02590637601913041,0.018649627815208736,0.07103989909579146,-0.022610108814192828
1.502646134732284,0.033131945974426154,0.023754017165639595,0.017871043624403338,0.06578032252515476,-0.020421363911536015
1.5027176518872105,0.033797027787609374,0.023265338420298144,0.01799769758677829,0.06325410258945575,-0.018948166940716764
1.502789169042137,0.033871437590867574,0.02190935763395655,0.017486670760106647,0.060908821818809515,-0.018111471939813006
1.5028606861970637,0.03289397904446062,0.018946025702169134,0.015274482970942199,0.05645692747350823,-0.017572085084934765
1.5029322033519903,0.030638444170610023,0.01594291571592447,0.012011118949132128,0.05204374440262559,-0.017940605612353458
1.5030037205069169,0.02725242384486997,0.014152718631182457,0.009441040885373031,0.04952974873350513,-0.01875003915416918
1.5030752376618435,0.023245599290448483,0.014717328666687186,0.008606550278537486,0.05000666811775258,-0.019711210167384165
1.50314675481677,0.019358366958489085,0.016553796395257624,0.008953985446160287,0.051034000109301654,-0.01997316669754444
1.5032182719716967,0.01638051368297583,0.01934025822273171,0.010426555451109277,0.05341394288297274,-0.020017135248519044
1.5032897891266233,0.01497089818834955,0.022361320893247497,0.012350463029946239,0.05416961919085122,-0.01880284131118635
1.5033613062815498,0.015499460648454992,0.024839414457872567,0.013981854206916533,0.053467757333519335,-0.01704758955326803
1.5034328234364764,0.01793079665045714,0.025231332383038436,0.01416864675154985,0.051124369883563385,-0.015624281426472144
1.503504340591403,0.021792554285279486,0.0248993994254565,0.013806564009865633,0.04834503937321943,-0.014428878352317038
1.5035758577463296,0.026283745634476982,0.027608505271345677,0.015751292513310384,0.04979738917559464,-0.013572659372603293
1.5036473749012562,0.03053094650102892,0.03251085312968456,0.019003856556851165,0.05756525168809221,-0.015023855067270086
1.5037188920561828,0.03389868374654469,0.038340596208354574,0.02304438568669538,0.07058428794389994,-0.018651728969965517
1.5037904092111094,0.03619247413189749,0.04521968926738612,0.02836367437687625,0.0845794677074982,-0.02173542139313441
1.503861926366036,0.03764566473947448,0.050391793199028805,0.03246316988130233,0.09696507833990659,-0.024986964925917655
1.5039334435209626,0.038716510453014726,0.05265171703640617,0.03408384953452373,0.10592427309428801,-0.028484917907300702
1.5040049606758892,0.0398171228344044,0.05384595975620963,0.03557140334761458,0.1126195307780838,-0.030869537649533905
1.5040764778308158,0.041095739566223526,0.05600840294035855,0.037525773851031737,0.11692944572753539,-0.03156085297058297
1.5041479949857424,0.04234364882306056,0.05789338385846382,0.038887791087543686,0.12006795232471225,-0.03211678148146306
1.504219512140669,0.043051695709888996,0.05838454453519877,0.03921573232033744,0.1207840324809183,-0.03222910208946341
1.5042910292955955,0.04260283060723393,0.054796374312402876,0.036347749549566495,0.11627530571231193,-0.03220386929905759
1.5043625464505221,0.04053910287302065,0.04696331331054803,0.030363706364527798,0.10636584010797763,-0.03187775975054085
1.5044340636054487,0.03679439695722014,0.03696484293914623,0.02344001313236871,0.09152216907143508,-0.029666761901204392
1.5045055807603753,0.03178229372791513,0.028017668553509692,0.01698689592080203,0.07810501032004571,-0.02784085826936773
1.504577097915302,0.026296542555493532,0.021917980917627006,0.012446934359831944,0.06756375595561304,-0.02596401180798041
1.5046486150702285,0.021278189004975218,0.019804018348969523,0.011187449324425095,0.06124700910420891,-0.023609284702556393
1.504720132225155,0.017555651134353225,0.01958433190638163,0.011283372248322305,0.05666652598934151,-0.02105211541809106
1.5047916493800817,0.01564621916050789,0.019098812884937755,0.010644076718018416,0.05254486945243247,-0.019364187916510532
1.5048631665350083,0.015656872938766518,0.017634344168417755,0.009217644422453899,0.04696760237633442,-0.017554848432344894
1.5049346836899349,0.017286051262519187,0.016711261493271883,0.008230188330603324,0.04171487325427644,-0.015551891469958787
1.5050062008448615,0.019918755698584013,0.016992340494324236,0.007905738300784866,0.038902845191786044,-0.0143079710036831
1.505077717999788,0.022804926807040774,0.01903558438096992,0.009361654152707073,0.03814539254683291,-0.012672036005918583
1.5051492351547147,0.025289013466251117,0.022950717096711207,0.011726326065843064,0.0436179289437859,-0.013631412763236093
1.5052207523096413,0.027015644551186973,0.02665718908083548,0.014241445734319206,0.051340807258010844,-0.015679765452921546
1.5052922694645678,0.028012475009877,0.02837798993414856,0.015961322224474977,0.05542515618923014,-0.016435094051296808
1.5053637866194944,0.028596359216805502,0.025948046753525685,0.014919408532213189,0.0544553333503904,-0.01679018747151418
1.505435303774421,0.02915112616185344,0.021324984800618375,0.013309044659559194,0.05058132863894764,-0.016056061246719218
1.5055068209293476,0.029900153036102176,0.018092465232412067,0.012321918805932341,0.04628941510843987,-0.014571181737129322
1.5055783380842742,0.030782681811496897,0.017348480229122783,0.01250866989698158,0.04443314740564352,-0.013411708105356345
1.5056498552392008,0.03146961942071043,0.01875059204334121,0.013496870470295333,0.04620488147599906,-0.01353468130283393
1.5057213723941274,0.03149161794629547,0.01924938630215665,0.013134126432083434,0.04845349235834374,-0.015054572594228382
1.505792889549054,0.030427310908792447,0.0191588311655775,0.011855838401314541,0.048458238397310595,-0.016135170710275218
1.5058644067039806,0.02809465201809536,0.0178036577155942,0.009674998552531539,0.045432932454159705,-0.016340705166035273
1.5059359238589072,0.024683284499830333,0.014644998820289796,0.006168765257997816,0.04234924106849558,-0.01763188948141128
1.5060074410138338,0.020766913938386953,0.012448479817432577,0.003987129865862614,0.03985053156093881,-0.018122057569801904
1.5060789581687604,0.017165658691511196,0.01312421806700936,0.004506773893992003,0.03818217965594817,-0.016783887256153825
1.506150475323687,0.014695536880755058,0.014956001829296172,0.005603202541494299,0.03777406608421522,-0.015639652564657318
1.5062219924786135,0.013907828977730352,0.01670959318415123,0.006474304461408025,0.03656995470158114,-0.014255858387359432
1.5062935096335401,0.014929925183180436,0.017178005526624886,0.007024475314287043,0.03273871466482918,-0.011725620780151037
1.5063650267884667,0.01746107614733839,0.016814250247304506,0.006681651925523114,0.02877755947814011,-0.009878494666259719
1.5064365439433933,0.020900617081537138,0.01854575896597283,0.008103902228742074,0.02788677965610809,-0.00819959543625628
1.50650806109832,0.024545654709518663,0.022257021502043384,0.01119024144466396,0.03067854611781124,-0.007103433199367536
1.5065795782532465,0.027795889555703463,0.027816529701334084,0.015188716512202768,0.04067458892834496,-0.009123405527012591
1.506651095408173,0.030315638754338018,0.034626544076315595,0.02020329875354711,0.05434418690104696,-0.012271413336171547
1.5067226125630997,0.03210575674634778,0.0414367528760628,0.02516307524326057,0.06833467264107443,-0.01564463932741075
1.5067941297180263,0.03344435853615213,0.04577311385820437,0.02809340030703321,0.07826693852365935,-0.018543421127638748
1.5068656468729529,0.03469846610783441,0.04615862821411222,0.028836225363534616,0.08200615785351043,-0.019940888423973152
1.5069371640278795,0.03608805388876267,0.04546532790662546,0.029158238083419115,0.08090185701885118,-0.019070156123864652
1.507008681182806,0.03753193323000867,0.04530039036381156,0.029645090979329304,0.07876067112013427,-0.017498527448385596
1.5070801983377327,0.038657419159163646,0.04551540753854146,0.03000532215028713,0.07555251567770334,-0.015456881253817143
1.5071517154926592,0.038950459296790155,0.04460317931586353,0.029635790998015537,0.07032763488877165,-0.01294231027911701
1.5072232326475858,0.03795818995272562,0.04053514469498407,0.026170643808596194,0.06234626045080058,-0.011555725304887082
1.5072947498025124,0.035465807062779846,0.03544111900681017,0.02167628316777021,0.052648137713195924,-0.010112204115783644
1.507366266957439,0.03160750390290827,0.03090164185523929,0.01779655130545853,0.04443430359075715,-0.00895238177124186
1.5074377841123656,0.02689036393457737,0.026977315064214944,0.014369878001425985,0.03911486583225742,-0.008972498767481926
1.5075093012672922,0.022110982309926926,0.02376816264015725,0.012274203971852665,0.03500421964343213,-0.008522273656721074
1.5075808184222188,0.018158898886019043,0.021629107501008927,0.010838451012952628,0.033383607016000794,-0.008858648171215256
1.5076523355771454,0.015750547010193554,0.020532861177773688,0.009985828883372298,0.03090119588942561,-0.0082387206856798
1.507723852732072,0.015198153002695225,0.018368800397063283,0.008495434228764531,0.025373143406874934,-0.006514522148726909
1.5077953698869986,0.01632710132796861,0.01524242306348938,0.006411917338543193,0.017994662942468584,-0.00429345797981715
1.5078668870419252,0.01858159605132472,0.013009721752808723,0.00521914285473996,0.011167497549521952,-0.0016196511379633156
1.5079384041968518,0.02125563485920751,0.011981287642367545,0.005152249488431391,0.0066871432124713534,0.0007379196303405535
1.5080099213517784,0.023737553869918368,0.011844881793154061,0.0057615299185219465,0.006461382599864961,0.0013728792270571483
1.508081438506705,0.025680396681245936,0.013005241196262708,0.007453924502377228,0.010154107537921354,0.0008092924438582736
1.5081529556616315,0.027059576075294776,0.013975634140384068,0.008842952470356694,0.015161650177227608,-0.0007183488656955994
1.5082244728165581,0.028112039179855254,0.013203280503685858,0.008942296206187028,0.018361905486290984,-0.0023591076955902695
1.5082959899714847,0.029172386947160022,0.011633494227331776,0.008780907310022895,0.021056450810861924,-0.0039472406479257255
1.5083675071264113,0.03045818310099522,0.012013456350243997,0.010026451111954632,0.024713518976856804,-0.00486862570430065
1.508439024281338,0.03190386747651281,0.015030754454574982,0.012747040105629182,0.029545194273887875,-0.005180034962751883
1.5085105414362645,0.03314377564440417,0.019540447325784978,0.01600259242207933,0.035341211277037266,-0.005560328648498202
1.508582058591191,0.03366149064758627,0.023351138170882253,0.0186299276568245,0.039111407497849936,-0.005377760588807406
1.5086535757461177,0.03301661123576188,0.023107951734031566,0.017302793300784304,0.038703449355276136,-0.006277116463090088
1.5087250929010443,0.031031763736761156,0.020234533544344926,0.013978643770450466,0.03404397713893995,-0.00656739176440925
1.5087966100559709,0.02787943173947238,0.015968507792316077,0.009773118861112214,0.026553772712735742,-0.0060741262870582175
1.5088681272108975,0.024071143965329337,0.011733755414399295,0.005405399448016361,0.02045657643725577,-0.006468386804546757
1.508939644365824,0.020368522042175177,0.00847752041992222,0.002619426200917792,0.016717327828224715,-0.006800560020789735
1.5090111615207507,0.017622660517009992,0.006878987190806481,0.001280243020763253,0.01603179029412326,-0.007559404070773143
1.5090826786756772,0.016549556574789192,0.006766487885726539,0.001094148915450876,0.016400223763115323,-0.007914738115215533
1.5091541958306038,0.01749078347259404,0.007371351857923181,0.001728275756159572,0.01629311498304831,-0.007322762130076417
1.5092257129855304,0.02026609634215111,0.008053879016099656,0.002622344403247119,0.015485334997232552,-0.0061341863177005705
1.509297230140457,0.024225306810832306,0.010896093115601878,0.005090188490138515,0.017117620267084972,-0.004934516732939241
1.5093687472953836,0.028505184243561566,0.017568059955783106,0.010396256019729185,0.022991087464371493,-0.003628567642357583
1.5094402644503102,0.032363241212534366,0.026392047407900316,0.017181792517199104,0.033681428789088454,-0.0036709406751940284
1.5095117816052368,0.035420479974014,0.03539167148154186,0.023785576506019895,0.046863805300894096,-0.005209631971644324
1.5095832987601634,0.03772295943106026,0.041673657573239306,0.028541189697550762,0.05634597709124883,-0.00631189316024071
1.50965481591509,0.039632532833370364,0.04334360013205618,0.030196375009199177,0.05957343467391716,-0.00665623636342712
1.5097263330700166,0.041605230836871475,0.0398899731024489,0.028415936049993602,0.057661664168836085,-0.007128153081510756
1.5097978502249432,0.04392716574129624,0.03462309373103728,0.026087173799228647,0.050859522912320265,-0.005422809017092299
1.5098693673798698,0.04649881119729661,0.03156719128167191,0.025125670272120693,0.04326614508435547,-0.0021377258012403666
1.5099408845347964,0.048782229516577,0.03177697184171962,0.025898717163670308,0.0390904422708287,0.0007664366560712424
1.510012401689723,0.04998265464348263,0.034208219915451435,0.027970420605425636,0.036681179284615124,0.0038136266636953652
1.5100839188446495,0.04939582665258717,0.034630889389123926,0.02744804663090382,0.03273959357219387,0.005496912604333521
1.5101554359995761,0.046726633743720845,0.03302832410895845,0.024915387052692306,0.027056691456509067,0.006422090821270638
1.5102269531545027,0.04221494386441091,0.031022124181394006,0.022036546886626967,0.020535556024106304,0.007507213747859096
1.5102984703094293,0.0365554045951188,0.029343577951161614,0.019143160662124768,0.017352744233479794,0.006782340027125031
1.510369987464356,0.030705701566729478,0.028648963951696187,0.01712115674686206,0.017734487546123306,0.004872213274760586
1.5104415046192825,0.025671938650474672,0.028727839965665157,0.016152578444133103,0.020370470558828405,0.0026355637895069273
1.510513021774209,0.02230380117340663,0.02930632247472964,0.01595046449902194,0.022862808012323058,0.0011222203265244572
1.5105845389291357,0.02110478427342222,0.02778371906686849,0.014310671393420193,0.022220670715099058,8.596431482239079e-05
1.5106560560840623,0.022087028251984653,0.023690619245579296,0.011927341615445858,0.01613637671937115,0.0013556758550304223
1.5107275732389889,0.02474352062355467,0.017028603143700805,0.008315005741078718,0.007265166085504737,0.0030912456701073523
1.5107990903939155,0.028206425428266402,0.012299849074771897,0.006455089330600415,0.000578679496390993,0.005126451258380699
1.510870607548842,0.03156791810921427,0.010506468368040322,0.006924877381908108,-0.0012575048937637152,0.006511443690055399
1.5109421247037687,0.034217944840168574,0.010559205157582564,0.0085255112555674,0.0033123181016802227,0.005398108060930942
1.5110136418586952,0.036025983655989566,0.012907694582933772,0.01161661354179527,0.011890915715972675,0.003381152204144822
1.5110851590136218,0.03729532439305516,0.013988884614051551,0.013294021431409462,0.01961597742976149,0.0006326216389963117
1.5111566761685484,0.03854470610167679,0.01293509661469471,0.013163190298163863,0.025949883215095886,-0.0028911337682326755
1.511228193323475,0.04022460916569971,0.01209628765647152,0.013651672900344249,0.029912661363082755,-0.004615515475909095
1.5112997104784016,0.04246467581659284,0.012712992647352848,0.01442102957265151,0.03256211315118263,-0.005395341256007617
1.5113712276333282,0.04493429586497486,0.01621961050921147,0.016921655013448497,0.03719211110781474,-0.005783436435682339
1.5114427447882548,0.04689231770787431,0.02044945548027928,0.019784155718843215,0.04184807780077231,-0.005880235375531398
1.5115142619431814,0.047454803887083834,0.02214485363394723,0.02007376929597759,0.04262549357059722,-0.006055280951427463
