freq,gls,usurper,pdc_unbiased,shape_periodogram,shift_periodogram
1.5,0.031605246424144244,0.03322561177996218,0.022003088454338578,0.05060821696067667,-0.024425203658316463
1.5000715171549266,0.028595336453250155,0.026537732604321507,0.01679692217781675,0.04269219353945664,-0.021740668758516667
1.5001430343098532,0.024797888546036324,0.020751123664522714,0.011419584810450916,0.036372220186596346,-0.02038784666456141
1.5002145514647798,0.020789812632417533,0.0188076762407691,0.008796510756732951,0.030901741599072583,-0.017904620594453233
1.5002860686197064,0.017345459787468324,0.021256850152406324,0.009479677332466734,0.02843011688472903,-0.015575553653003978
1.500357585774633,0.015271945925960987,0.025646719845489593,0.011714688134418397,0.028121898572071764,-0.01389558410942529
1.5004291029295596,0.015165201318802408,0.03087323220496251,0.01415548030345099,0.032605737847990146,-0.015742179009589546
1.5005006200844861,0.01716595655706576,0.03568434558006382,0.016954003693511403,0.03532434022350651,-0.016009421034241304
1.5005721372394127,0.02086274426290797,0.039350845274564734,0.019187221778694714,0.03736276634898521,-0.016122518683365235
1.5006436543943393,0.02544081002802935,0.04259483977268925,0.02137618975240262,0.03945743859674611,-0.016307117103276644
1.500715171549266,0.03000884122307953,0.046171153225449665,0.02421994995090846,0.041432280479757916,-0.015976360141291862
1.5007866887041925,0.03391266896856934,0.05040634753778371,0.02666061786266369,0.04802368028314716,-0.019435144171035614
1.500858205859119,0.0368882624749449,0.05526934783496569,0.029368029530911475,0.057438463370352404,-0.02488331698491592
1.5009297230140457,0.0390355018056212,0.06072155357318336,0.03287087235373193,0.06988920937069404,-0.03214723094183479
1.5010012401689723,0.04067274274449097,0.06296498812071442,0.0349635290275476,0.08116287422892074,-0.03943387918710127
1.5010727573238989,0.04213722341942038,0.06356511984765426,0.036798409825528795,0.08933421401496366,-0.04451653964987144
1.5011442744788255,0.043587855733941964,0.06384685948006033,0.03793328428010061,0.096606167118019,-0.049368348411992904
1.501215791633752,0.044880915226329254,0.06357034317449743,0.03824814004694497,0.10177959238196231,-0.05314291005470317
1.5012873087886787,0.045592465454410994,0.06455419771845657,0.03896037083855539,0.10645709960411076,-0.05628121816281778
1.5013588259436053,0.04519857422015515,0.06390863773802935,0.038338310339186395,0.10796471991446975,-0.05784534865261279
1.5014303430985318,0.04331902735671992,0.060311107991241855,0.03525172960142179,0.10674329816305611,-0.058904782034688
1.5015018602534584,0.03989064242203222,0.05258060508244345,0.029380562295107576,0.10153576744239387,-0.058698233250642176
1.501573377408385,0.035207008956161204,0.04344352549380172,0.02275340008029923,0.094580432986376,-0.05763725202169044
1.5016448945633116,0.029854908046904056,0.035040151264510995,0.01716592382272006,0.08530937870070832,-0.0541299010939877
1.5017164117182382,0.02460404968418353,0.02794492810968361,0.01272729457488559,0.07538618086269779,-0.04938817786237275
1.5017879288731648,0.020274028275387688,0.023602578949441077,0.010756457121333964,0.0662018905858415,-0.0436266274719358
1.5018594460280914,0.01756978332877583,0.021392542002818603,0.009814843547662735,0.06002712666834869,-0.039508976813275955
1.501930963183018,0.016887968997375314,0.020547528608163824,0.009773529530205848,0.052147347875258133,-0.03350839683565237
1.5020024803379446,0.018154766828972088,0.01930655629282132,0.009545857603491862,0.04406967793777614,-0.027480407208876994
1.5020739974928712,0.020807783027131654,0.019441537388409844,0.00997328939183271,0.036945220983993186,-0.021760343861940423
1.5021455146477978,0.023992628107040868,0.021671339375202932,0.01144212206274167,0.0333654304801967,-0.018076434465509866
1.5022170318027244,0.026898257150269028,0.026096634755956524,0.014028974316248104,0.03503936663551045,-0.017682907330436
1.502288548957651,0.029041972437567,0.0310139076652763,0.016679671046279716,0.0403143997881304,-0.019999371821055916
1.5023600661125776,0.03036170293294545,0.03643985081071277,0.019990738498687276,0.04825991541346806,-0.023931286577524604
1.5024315832675041,0.031115659296329378,0.03764833769856717,0.02077896981185265,0.05642701908518978,-0.02966772778445174
1.5025031004224307,0.031680428730509906,0.035349653074009946,0.019519808615351825,0.06147169225480548,-0.03434233955468715
1.5025746175773573,0.032340192227813126,0.032016053086037714,0.018649627815208736,0.06268443350245001,-0.035833255769483346
1.502646134732284,0.033131945974426154,0.029403091073475905,0.017871043624403338,0.06068119221428051,-0.034803391415343755
1.5027176518872105,0.033797027787609374,0.028856958549042792,0.01799769758677829,0.05934926835681645,-0.033702227143311905
1.502789169042137,0.033871437590867574,0.02750715772672123,0.017486670760106647,0.05710523233001251,-0.032315604947397485
1.5028606861970637,0.03289397904446062,0.02426341929383907,0.015274482970942199,0.05337472318995403,-0.030892085055714433
1.5029322033519903,0.030638444170610023,0.02057850290282083,0.012011118949132128,0.04992698528791453,-0.030364789556264985
1.5030037205069169,0.02725242384486997,0.018550834367178373,0.009441040885373031,0.04728610669475568,-0.030006579372549004
1.5030752376618435,0.023245599290448483,0.019887081071211607,0.008606550278537486,0.04641172207704108,-0.029877383262526265
1.50314675481677,0.019358366958489085,0.023112299658682563,0.008953985446160287,0.04636782316077042,-0.029619348641191996
1.5032182719716967,0.01638051368297583,0.027240141545540046,0.010426555451109277,0.046879072855224975,-0.029058636780214482
1.5032897891266233,0.01497089818834955,0.031214762054419774,0.012350463029946239,0.04737872587921547,-0.028197277522967433
1.5033613062815498,0.015499460648454992,0.03419714022374143,0.013981854206916533,0.04603783632677364,-0.0261178051002528
1.5034328234364764,0.01793079665045714,0.03422010666611653,0.01416864675154985,0.04119490347876164,-0.022295662579584877
1.503504340591403,0.021792554285279486,0.033100307379123034,0.013806564009865633,0.03442226827772979,-0.017355293102505914
1.5035758577463296,0.026283745634476982,0.03523447935751272,0.015751292513310384,0.030660315125004414,-0.013224574939126101
1.5036473749012562,0.03053094650102892,0.04023281384172044,0.019003856556851165,0.03341010772554982,-0.01322157004770042
1.5037188920561828,0.03389868374654469,0.047368987859489314,0.02304438568669538,0.04300937743880713,-0.017942273306331837
1.5037904092111094,0.03619247413189749,0.056434983659026695,0.02836367437687625,0.05697031794535473,-0.025175392539888958
1.503861926366036,0.03764566473947448,0.06364705692019781,0.03246316988130233,0.0726483535825554,-0.03452547861514042
1.5039334435209626,0.038716510453014726,0.06748091460471338,0.03408384953452373,0.08701014027648629,-0.04449112111946528
1.5040049606758892,0.0398171228344044,0.06961148824294343,0.03557140334761458,0.09826222138346778,-0.05217229247555071
1.5040764778308158,0.041095739566223526,0.07322148471965476,0.037525773851031737,0.10637523490529416,-0.057148054555887125
1.5041479949857424,0.04234364882306056,0.07649514263569474,0.038887791087543686,0.11166762547226029,-0.060341708362092725
1.504219512140669,0.043051695709888996,0.07772567327856346,0.03921573232033744,0.11397788331543787,-0.06190974203973385
1.5042910292955955,0.04260283060723393,0.07306046337448789,0.036347749549566495,0.1117821299065107,-0.06207585998980471
1.5043625464505221,0.04053910287302065,0.062364163025964224,0.030363706364527798,0.10440976610952699,-0.06027319299610685
1.5044340636054487,0.03679439695722014,0.048956793212657924,0.02344001313236871,0.09287573282394919,-0.055883857073537296
1.5045055807603753,0.03178229372791513,0.037231877405343984,0.01698689592080203,0.08263156264624937,-0.052191356293483364
1.504577097915302,0.026296542555493532,0.029142034879520322,0.012446934359831944,0.07323251826251367,-0.047919106607555634
1.5046486150702285,0.021278189004975218,0.026153822671991053,0.011187449324425095,0.06629792182809663,-0.043421771438061633
1.504720132225155,0.017555651134353225,0.025194288603826148,0.011283372248322305,0.06095460117857132,-0.039270023600869314
1.5047916493800817,0.01564621916050789,0.023932550881125322,0.010644076718018416,0.056218658721155154,-0.03605969522250154
1.5048631665350083,0.015656872938766518,0.021438651876979666,0.009217644422453899,0.048655416812596136,-0.031197688805407398
1.5049346836899349,0.017286051262519187,0.019468207797034127,0.008230188330603324,0.03986042380640692,-0.025114007091235867
1.5050062008448615,0.019918755698584013,0.01891539958447781,0.007905738300784866,0.031739557288398265,-0.019120148519596602
1.505077717999788,0.022804926807040774,0.020689573821745556,0.009361654152707073,0.025323296345003122,-0.013279465970164503
1.5051492351547147,0.025289013466251117,0.025316751452788777,0.011726326065843064,0.026960540730517298,-0.013001217095614557
1.5052207523096413,0.027015644551186973,0.03030703371638039,0.014241445734319206,0.033078173853264045,-0.016047458586304734
1.5052922694645678,0.028012475009877,0.03312424538021448,0.015961322224474977,0.03929255052390413,-0.019683028931686195
1.5053637866194944,0.028596359216805502,0.030501727550187017,0.014919408532213189,0.043680073610469376,-0.02370956990777934
1.505435303774421,0.02915112616185344,0.02477554940683197,0.013309044659559194,0.045768508918988766,-0.026346828123847008
1.5055068209293476,0.029900153036102176,0.020679827077141926,0.012321918805932341,0.04630065177992344,-0.027391612296408383
1.5055783380842742,0.030782681811496897,0.02007656562294592,0.01250866989698158,0.046449523583012214,-0.027384711898268244
1.5056498552392008,0.03146961942071043,0.0222402505878117,0.013496870470295333,0.04811194595438312,-0.028016859092484053
1.5057213723941274,0.03149161794629547,0.023274707705598172,0.013134126432083434,0.049605987034915845,-0.02939357910421881
1.505792889549054,0.030427310908792447,0.022748667839060894,0.011855838401314541,0.048845274219237955,-0.029638107357413065
1.5058644067039806,0.02809465201809536,0.020525386771506088,0.009674998552531539,0.04550966772414285,-0.02849754175178513
1.5059359238589072,0.024683284499830333,0.01678223693083286,0.006168765257997816,0.04209324980821132,-0.028151980573565914
1.5060074410138338,0.020766913938386953,0.014448026259827194,0.003987129865862614,0.03886688407981854,-0.02709624537263951
1.5060789581687604,0.017165658691511196,0.015531253979898975,0.004506773893992003,0.03656595946066175,-0.025002818532541347
1.506150475323687,0.014695536880755058,0.017943603367499027,0.005603202541494299,0.035768857374842374,-0.023685566045912983
1.5062219924786135,0.013907828977730352,0.01994661751319104,0.006474304461408025,0.03463338985083727,-0.022255402739009413
1.5062935096335401,0.014929925183180436,0.02004990301832253,0.007024475314287043,0.030111903587180088,-0.018446567366038065
1.5063650267884667,0.01746107614733839,0.018496298572325112,0.006681651925523114,0.023893283883429723,-0.01391962310454109
1.5064365439433933,0.020900617081537138,0.01948828306707844,0.008103902228742074,0.018777106684713135,-0.009094567907487196
1.50650806109832,0.024545654709518663,0.02315868166402188,0.01119024144466396,0.015391266242224212,-0.004515192215193034
1.5065795782532465,0.027795889555703463,0.030061881407315694,0.015188716512202768,0.019549483717120297,-0.005104589015489932
1.506651095408173,0.030315638754338018,0.039406668309513296,0.02020329875354711,0.028306455311454346,-0.008547964060258591
1.5067226125630997,0.03210575674634778,0.049012603765967354,0.02516307524326057,0.040196369877839803,-0.014421622200637642
1.5067941297180263,0.03344435853615213,0.05491757696835261,0.02809340030703321,0.05182107567052566,-0.021411429726413474
1.5068656468729529,0.03469846610783441,0.05599646287993858,0.028836225363534616,0.05990542445512411,-0.027115477887600794
1.5069371640278795,0.03608805388876267,0.05541856954939875,0.029158238083419115,0.06454520766316206,-0.030458756311818883
1.507008681182806,0.03753193323000867,0.05542033166164219,0.029645090979329304,0.06805802255427486,-0.03283368969864284
1.5070801983377327,0.038657419159163646,0.05549588806350833,0.03000532215028713,0.06837044411495198,-0.03283973796725302
1.5071517154926592,0.038950459296790155,0.05418827228545746,0.029635790998015537,0.06650047714190006,-0.03164680056650775
1.5072232326475858,0.03795818995272562,0.0486342229627036,0.026170643808596194,0.06203912655182602,-0.030474128976988524
1.5072947498025124,0.035465807062779846,0.04154458583029061,0.02167628316777021,0.05503474047136631,-0.028022199898553646
1.507366266957439,0.03160750390290827,0.035675391518787763,0.01779655130545853,0.048386984685031276,-0.025447428523874452
1.5074377841123656,0.02689036393457737,0.0306557671332139,0.014369878001425985,0.043159496401710164,-0.023666955658716453
1.5075093012672922,0.022110982309926926,0.026359106223442095,0.012274203971852665,0.03863465623473966,-0.021563946816103383
1.5075808184222188,0.018158898886019043,0.02366815674781351,0.010838451012952628,0.03689424508575927,-0.02116225303685568
1.5076523355771454,0.015750547010193554,0.022009503799160925,0.009985828883372298,0.03537751916285074,-0.020554630852966847
1.507723852732072,0.015198153002695225,0.018789732810030678,0.008495434228764531,0.030727703609756622,-0.01796627802140921
1.5077953698869986,0.01632710132796861,0.014366684234250231,0.006411917338543193,0.023035251851856044,-0.013438834299070243
1.5078668870419252,0.01858159605132472,0.010987291057542488,0.00521914285473996,0.015095705318410703,-0.00814868666964621
1.5079384041968518,0.02125563485920751,0.00891354302824335,0.005152249488431391,0.007309875435608176,-0.002249368442049209
1.5080099213517784,0.023737553869918368,0.008694180473734655,0.0057615299185219465,0.0037256890781473518,0.0008797797584491076
1.508081438506705,0.025680396681245936,0.010732419446896695,0.007453924502377228,0.004289806977025811,0.0015429520315048747
1.5081529556616315,0.027059576075294776,0.012828440402724142,0.008842952470356694,0.007734304129298951,-0.00018814646091428757
1.5082244728165581,0.028112039179855254,0.012498930308625894,0.008942296206187028,0.011230366517581827,-0.0027922068680012262
1.5082959899714847,0.029172386947160022,0.01076310841921105,0.008780907310022895,0.014527480845249411,-0.0054131060017750185
1.5083675071264113,0.03045818310099522,0.011021359160230835,0.010026451111954632,0.018142246304686926,-0.007367352705000934
1.508439024281338,0.03190386747651281,0.01517212507009065,0.012747040105629182,0.023299566405927605,-0.009546059479922757
1.5085105414362645,0.03314377564440417,0.021185366091098105,0.01600259242207933,0.02892632821429073,-0.011737833680773805
1.508582058591191,0.03366149064758627,0.026110261493480936,0.0186299276568245,0.033603694569760485,-0.013611269872157222
1.5086535757461177,0.03301661123576188,0.02587371468832634,0.017302793300784304,0.03482817160807963,-0.015404851490627309
1.5087250929010443,0.031031763736761156,0.02174694015834632,0.013978643770450466,0.03222493807069195,-0.015565645770262667
1.5087966100559709,0.02787943173947238,0.016290112051057334,0.009773118861112214,0.026807895309313576,-0.014147132148890625
1.5088681272108975,0.024071143965329337,0.011199441176077355,0.005405399448016361,0.022104139751917263,-0.01337839191336081
1.508939644365824,0.020368522042175177,0.007213418725613378,0.002619426200917792,0.017787821148641362,-0.011883581563502305
1.5090111615207507,0.017622660517009992,0.0052657750424369345,0.001280243020763253,0.016015889491413603,-0.011396346165324991
1.5090826786756772,0.016549556574789192,0.004580807370157126,0.001094148915450876,0.01574416966850925,-0.01130918652846699
1.5091541958306038,0.01749078347259404,0.0044915592581219665,0.001728275756159572,0.013801158795869154,-0.009416362446777234
1.5092257129855304,0.02026609634215111,0.0048925985664340765,0.002622344403247119,0.010192822274576636,-0.006084552990102815
1.509297230140457,0.024225306810832306,0.008138363229078684,0.005090188490138515,0.007265790124592021,-0.0022558280482462383
1.5093687472953836,0.028505184243561566,0.016021898763394597,0.010396256019729185,0.00721445878003965,0.001212495954379938
1.5094402644503102,0.032363241212534366,0.027108149387139624,0.017181792517199104,0.011711263306865548,0.0021668079253058686
1.5095117816052368,0.035420479974014,0.03938333555228118,0.023785576506019895,0.01988334902634624,0.00020001139321864725
1.5095832987601634,0.03772295943106026,0.04852958845218534,0.028541189697550762,0.02739669776966716,-0.0024587242304133557
1.50965481591509,0.039632532833370364,0.05134447345783115,0.030196375009199177,0.03273938204796538,-0.005467100240021618
1.5097263330700166,0.041605230836871475,0.04683963617387118,0.028415936049993602,0.034547078944660047,-0.008000349635660618
1.5097978502249432,0.04392716574129624,0.039668220150331876,0.026087173799228647,0.03099438024341465,-0.006794119347142386
1.5098693673798698,0.04649881119729661,0.03543094214062539,0.025125670272120693,0.025922696501341293,-0.0035435322630249333
1.5099408845347964,0.048782229516577,0.03546926203308665,0.025898717163670308,0.023462371213449726,-0.0011650017639001275
1.510012401689723,0.04998265464348263,0.038244909322518617,0.027970420605425636,0.022768398318650872,0.0007053021903067992
1.5100839188446495,0.04939582665258717,0.038656052879688374,0.02744804663090382,0.021636505069711712,0.0012312946446614752
1.5101554359995761,0.046726633743720845,0.03617613538405933,0.024915387052692306,0.01941937996852905,0.0012850279520061777
1.5102269531545027,0.04221494386441091,0.033281170017058825,0.022036546886626967,0.01621315629261753,0.0018701080005704739
1.5102984703094293,0.0365554045951188,0.03167479340389233,0.019143160662124768,0.016038249177425495,0.0001324892311868098
1.510369987464356,0.030705701566729478,0.03178183746985246,0.01712115674686206,0.017686860595553956,-0.0024333288192981053
1.5104415046192825,0.025671938650474672,0.033133619238753714,0.016152578444133103,0.021006190350908123,-0.005593476729953434
1.510513021774209,0.02230380117340663,0.03493068720564896,0.01595046449902194,0.02500143862946282,-0.008774459538613543
1.5105845389291357,0.02110478427342222,0.03340731010349754,0.014310671393420193,0.02535909391883686,-0.01010772939219023
1.5106560560840623,0.022087028251984653,0.028014050782944725,0.011927341615445858,0.019989889621927784,-0.007549141707276505
1.5107275732389889,0.02474352062355467,0.019474967202105047,0.008315005741078718,0.011601433693298406,-0.0034808397109837535
1.5107990903939155,0.028206425428266402,0.012958005246356609,0.006455089330600415,0.003834917749566004,0.001244620136841661
1.510870607548842,0.03156791810921427,0.009973860257498262,0.006924877381908108,-0.0003617161406902716,0.004750914432030932
1.5109421247037687,0.034217944840168574,0.01048275484548178,0.0085255112555674,0.0016029248189003463,0.004285982632371699
1.5110136418586952,0.036025983655989566,0.01420718628790683,0.01161661354179527,0.0074597107162998975,0.0018140729938509704
1.5110851590136218,0.03729532439305516,0.01633205292540728,0.013294021431409462,0.014587157819068374,-0.0025415364474389596
1.5111566761685484,0.03854470610167679,0.015469465437502727,0.013163190298163863,0.02203070333898282,-0.008308288300871427
1.511228193323475,0.04022460916569971,0.014475909388356216,0.013651672900344249,0.02623725274778577,-0.011204302203143758
1.5112997104784016,0.04246467581659284,0.015464804028963748,0.01442102957265151,0.028512328994960867,-0.012444223102648271
1.5113712276333282,0.04493429586497486,0.020379132723916494,0.016921655013448497,0.031234660062076612,-0.012906478266619854
1.5114427447882548,0.04689231770787431,0.026048048886775556,0.019784155718843215,0.03330285257247321,-0.012634981439018792
1.5115142619431814,0.047454803887083834,0.028350976017689808,0.02007376929597759,0.03341988038384304,-0.012537054083826453
