freq,gls,usurper,pdc_unbiased,shape_periodogram,shift_periodogram
1.5,0.031605246424144244,0.03421791922097002,0.022003088454338578,0.05744443674547016,-0.025894034519050535
1.5000715171549266,0.028595336453250155,0.027428276342018828,0.01679692217781675,0.04857951729314698,-0.023153631824349066
1.5001430343098532,0.024797888546036324,0.021616629856833228,0.011419584810450916,0.04122373211215437,-0.02161904153073776
1.5002145514647798,0.020789812632417533,0.019737100581125735,0.008796510756732951,0.034824683259165615,-0.018852874779623417
1.5002860686197064,0.017345459787468324,0.02230166693799325,0.009479677332466734,0.03134962220907015,-0.01588222065192068
1.500357585774633,0.015271945925960987,0.026873810917681568,0.011714688134418397,0.029914630478536673,-0.013294222075731624
1.5004291029295596,0.015165201318802408,0.03222840312774762,0.01415548030345099,0.033076826112747745,-0.01386213082793724
1.5005006200844861,0.01716595655706576,0.036935451365546296,0.016954003693511403,0.034230725303692346,-0.012738862628647327
1.5005721372394127,0.02086274426290797,0.040010227286664014,0.019187221778694714,0.03319201706354543,-0.010435594894429223
1.5006436543943393,0.02544081002802935,0.042640195623938545,0.02137618975240262,0.032707915849552835,-0.008561069517826236
1.500715171549266,0.03000884122307953,0.045679479667609234,0.02421994995090846,0.03304595659324327,-0.006819447646912738
1.5007866887041925,0.03391266896856934,0.04971463508173565,0.02666061786266369,0.039349675402219404,-0.009641204067097339
1.500858205859119,0.0368882624749449,0.05467330983950128,0.029368029530911475,0.05020537380653762,-0.015548305910729962
1.5009297230140457,0.0390355018056212,0.06038488969970559,0.03287087235373193,0.06605176303525584,-0.024496645669231116
1.5010012401689723,0.04067274274449097,0.06284099882939674,0.0349635290275476,0.081572510832323,-0.03421469076238921
1.5010727573238989,0.04213722341942038,0.06352472898087722,0.036798409825528795,0.0936742287846376,-0.04166561389715963
1.5011442744788255,0.043587855733941964,0.06379756675145765,0.03793328428010061,0.10340398121845647,-0.04790584675397052
1.501215791633752,0.044880915226329254,0.06343706653217686,0.03824814004694497,0.10861097765186167,-0.05145476841137929
1.5012873087886787,0.045592465454410994,0.06420448274965118,0.03896037083855539,0.11082608662944352,-0.052560856036467464
1.5013588259436053,0.04519857422015515,0.06335719392501299,0.038338310339186395,0.1102596918369549,-0.052585871860223274
1.5014303430985318,0.04331902735671992,0.059701347804488,0.03525172960142179,0.10785850249786369,-0.05300603764077894
1.5015018602534584,0.03989064242203222,0.05192220366904577,0.029380562295107576,0.10183531083082117,-0.05275043933004686
1.501573377408385,0.035207008956161204,0.04273199820355443,0.02275340008029923,0.094138300534738,-0.05181318597639405
1.5016448945633116,0.029854908046904056,0.03422346089641761,0.01716592382272006,0.08437179980519192,-0.04866044581486259
1.5017164117182382,0.02460404968418353,0.027115826698456528,0.01272729457488559,0.0740457104686279,-0.044311368924704206
1.5017879288731648,0.020274028275387688,0.022829073653938742,0.010756457121333964,0.06440131282620423,-0.03874161673679434
1.5018594460280914,0.01756978332877583,0.02078436461055157,0.009814843547662735,0.057841900919460384,-0.03467954840326845
1.501930963183018,0.016887968997375314,0.020106056256800123,0.009773529530205848,0.04921597956022372,-0.028507821942631125
1.5020024803379446,0.018154766828972088,0.018636441534538712,0.009545857603491862,0.03913222302205395,-0.021423247063877437
1.5020739974928712,0.020807783027131654,0.01858924450307126,0.00997328939183271,0.030342126771376304,-0.014815019976477745
1.5021455146477978,0.023992628107040868,0.0208449135158881,0.01144212206274167,0.026025950834785466,-0.010693594728948234
1.5022170318027244,0.026898257150269028,0.025656066205768685,0.014028974316248104,0.02932545759472671,-0.011257817572193438
1.502288548957651,0.029041972437567,0.031126522987525204,0.016679671046279716,0.038005156678403935,-0.01563999611628761
1.5023600661125776,0.03036170293294545,0.03730433427963701,0.019990738498687276,0.051704897449673486,-0.023171818308149662
1.5024315832675041,0.031115659296329378,0.03912084336198778,0.02077896981185265,0.06633875277369866,-0.0331472028320123
1.5025031004224307,0.031680428730509906,0.03721604807159759,0.019519808615351825,0.07703933379102494,-0.04173231137997642
1.5025746175773573,0.032340192227813126,0.03399593949346108,0.018649627815208736,0.08215533385057974,-0.046027299724012406
1.502646134732284,0.033131945974426154,0.0312275809260609,0.017871043624403338,0.08076396520226087,-0.04556701716976614
1.5027176518872105,0.033797027787609374,0.030274016593019388,0.01799769758677829,0.07664273976370488,-0.042508141591143814
1.502789169042137,0.033871437590867574,0.028450919627362833,0.017486670760106647,0.07099091558705861,-0.03879315193452163
1.5028606861970637,0.03289397904446062,0.024827224697008408,0.015274482970942199,0.0645229375602993,-0.035679723551151274
1.5029322033519903,0.030638444170610023,0.020949923883497493,0.012011118949132128,0.05887868941508967,-0.033894378492290704
1.5030037205069169,0.02725242384486997,0.01891977357770092,0.009441040885373031,0.054760340723428995,-0.032724446292349635
1.5030752376618435,0.023245599290448483,0.020444805558777018,0.008606550278537486,0.05308057070903607,-0.03209852104207117
1.50314675481677,0.019358366958489085,0.024018181034692408,0.008953985446160287,0.05247153022118012,-0.031418638262421354
1.5032182719716967,0.01638051368297583,0.02858271564241808,0.010426555451109277,0.052773815701940986,-0.03060959581706174
1.5032897891266233,0.01497089818834955,0.03295747795318704,0.012350463029946239,0.052872088014042425,-0.029339142408054956
1.5033613062815498,0.015499460648454992,0.03607073186713132,0.013981854206916533,0.050284642150436334,-0.026342065413533625
1.5034328234364764,0.01793079665045714,0.035680554473627224,0.01416864675154985,0.042822248393595386,-0.020850437375275147
1.503504340591403,0.021792554285279486,0.033928824903136534,0.013806564009865633,0.03251490741401109,-0.013702073712854656
1.5035758577463296,0.026283745634476982,0.03560328810880694,0.015751292513310384,0.025384870797701672,-0.007229074714751407
1.5036473749012562,0.03053094650102892,0.040483559516211146,0.019003856556851165,0.026545228106022483,-0.005793323679564477
1.5037188920561828,0.03389868374654469,0.0477317283956974,0.02304438568669538,0.03629545406122563,-0.009972338221709605
1.5037904092111094,0.03619247413189749,0.057320658577555444,0.02836367437687625,0.054417374781108384,-0.01927709720011198
1.503861926366036,0.03764566473947448,0.06501313800682618,0.03246316988130233,0.07568092109223133,-0.03171587060523605
1.5039334435209626,0.038716510453014726,0.0693526373781778,0.03408384953452373,0.09576551329346313,-0.04507512815676682
1.5040049606758892,0.0398171228344044,0.07173190353799135,0.03557140334761458,0.11116086781136637,-0.05517445972445167
1.5040764778308158,0.041095739566223526,0.0755566590670098,0.037525773851031737,0.12089243378077194,-0.06086482467937396
1.5041479949857424,0.04234364882306056,0.07888015300135956,0.038887791087543686,0.12458247333547363,-0.06259138993927504
1.504219512140669,0.043051695709888996,0.07993824458407246,0.03921573232033744,0.12350097297492964,-0.061576305971777934
1.5042910292955955,0.04260283060723393,0.07485473131182918,0.036347749549566495,0.1179743686837061,-0.05957129530015245
1.5043625464505221,0.04053910287302065,0.06354413351530187,0.030363706364527798,0.10768153281234227,-0.05629447973953633
1.5044340636054487,0.03679439695722014,0.04944483759165284,0.02344001313236871,0.09409601970162543,-0.051303543329605794
1.5045055807603753,0.03178229372791513,0.03720574913511501,0.01698689592080203,0.08250841597143604,-0.047441360108598354
1.504577097915302,0.026296542555493532,0.028954755169471033,0.012446934359831944,0.07263357205234654,-0.04348965001770528
1.5046486150702285,0.021278189004975218,0.0261554832340609,0.011187449324425095,0.06629841310567312,-0.03980644903881048
1.504720132225155,0.017555651134353225,0.02564148947681174,0.011283372248322305,0.062289221743040094,-0.036854794557994466
1.5047916493800817,0.01564621916050789,0.02492087231529188,0.010644076718018416,0.058964093749223706,-0.034908633953257585
1.5048631665350083,0.015656872938766518,0.022643959333976962,0.009217644422453899,0.05179990129657657,-0.030752168154464254
1.5049346836899349,0.017286051262519187,0.020442164119159816,0.008230188330603324,0.04179837116739544,-0.024254897879384344
1.5050062008448615,0.019918755698584013,0.019695974637085445,0.007905738300784866,0.03218453213854406,-0.01757857920687491
1.505077717999788,0.022804926807040774,0.02137557607232015,0.009361654152707073,0.024717867721586344,-0.011205290292972101
1.5051492351547147,0.025289013466251117,0.026260451859332883,0.011726326065843064,0.026601106467406252,-0.010908179837107729
1.5052207523096413,0.027015644551186973,0.03176952405361339,0.014241445734319206,0.035540430583978565,-0.015570727883147228
1.5052922694645678,0.028012475009877,0.035091635374656586,0.015961322224474977,0.04655176652727371,-0.02227943951894811
1.5053637866194944,0.028596359216805502,0.03275494325415967,0.014919408532213189,0.056702661331717676,-0.03030196663188048
1.505435303774421,0.02915112616185344,0.02679724967499245,0.013309044659559194,0.06325214854396131,-0.03613560367478548
1.5055068209293476,0.029900153036102176,0.02253497430285209,0.012321918805932341,0.06620364196491159,-0.038947572386634315
1.5055783380842742,0.030782681811496897,0.021772223842241395,0.01250866989698158,0.06574805968117615,-0.038489529856656754
1.5056498552392008,0.03146961942071043,0.02375770441800147,0.013496870470295333,0.06452558756879467,-0.03692096113208241
1.5057213723941274,0.03149161794629547,0.024608852469363576,0.013134126432083434,0.06295385998864961,-0.03604292655443243
1.505792889549054,0.030427310908792447,0.023862471038270845,0.011855838401314541,0.059531592133276585,-0.034472185088914135
1.5058644067039806,0.02809465201809536,0.02131714702280486,0.009674998552531539,0.053499020910304826,-0.031654688509344886
1.5059359238589072,0.024683284499830333,0.017251186029766247,0.006168765257997816,0.047823215245132514,-0.030019219338741375
1.5060074410138338,0.020766913938386953,0.014672658074869862,0.003987129865862614,0.04272832927426554,-0.02787954641604445
1.5060789581687604,0.017165658691511196,0.015719672096602796,0.004506773893992003,0.03914631458214818,-0.024945210111168386
1.506150475323687,0.014695536880755058,0.018459135779460078,0.005603202541494299,0.03768114376474782,-0.023129183820171543
1.5062219924786135,0.013907828977730352,0.02091025368438033,0.006474304461408025,0.03606831861194476,-0.021364195644637964
1.5062935096335401,0.014929925183180436,0.02115945330464136,0.007024475314287043,0.030712464940004763,-0.017136231347690246
1.5063650267884667,0.01746107614733839,0.019400494057066606,0.006681651925523114,0.022318602123123796,-0.011351846402404856
1.5064365439433933,0.020900617081537138,0.020224924560270075,0.008103902228742074,0.014675638627607426,-0.004877656554334864
1.50650806109832,0.024545654709518663,0.023795118080123898,0.01119024144466396,0.009909261195249047,0.000692317672720981
1.5065795782532465,0.027795889555703463,0.030866018557147504,0.015188716512202768,0.014348459773572783,0.0002959016931880314
1.506651095408173,0.030315638754338018,0.04066881269552713,0.02020329875354711,0.025314545909571235,-0.004073671294691214
1.5067226125630997,0.03210575674634778,0.05091966855423618,0.02516307524326057,0.04138692157390895,-0.012149438296451721
1.5067941297180263,0.03344435853615213,0.05744447314117045,0.02809340030703321,0.05781841631682593,-0.021911222948542648
1.5068656468729529,0.03469846610783441,0.058740347826553956,0.028836225363534616,0.06983423736526405,-0.03003873535968932
1.5069371640278795,0.03608805388876267,0.05822496071375591,0.029158238083419115,0.07663863974074417,-0.03471538456371661
1.507008681182806,0.03753193323000867,0.0581407522164874,0.029645090979329304,0.07933575720141009,-0.03631930853316032
1.5070801983377327,0.038657419159163646,0.0580511758213565,0.03000532215028713,0.07641469207874921,-0.033962201033546836
1.5071517154926592,0.038950459296790155,0.05643054761788471,0.029635790998015537,0.0712302898708397,-0.03048550379757382
1.5072232326475858,0.03795818995272562,0.05050658066295738,0.026170643808596194,0.0642618626123916,-0.027889137625936422
1.5072947498025124,0.035465807062779846,0.043091498671563505,0.02167628316777021,0.05531824758167334,-0.02459324481778053
1.507366266957439,0.03160750390290827,0.036961667017132674,0.01779655130545853,0.04763702056779835,-0.02177917765426467
1.5074377841123656,0.02689036393457737,0.03178684210509329,0.014369878001425985,0.04206761633683246,-0.020168114127762454
1.5075093012672922,0.022110982309926926,0.027478348959099213,0.012274203971852665,0.03812733770505274,-0.01879970922789493
1.5075808184222188,0.018158898886019043,0.025091205111056496,0.010838451012952628,0.03756490616090334,-0.01939681520204742
1.5076523355771454,0.015750547010193554,0.02386927731155232,0.009985828883372298,0.03764449850270945,-0.020048322363294003
1.507723852732072,0.015198153002695225,0.020874639139415656,0.008495434228764531,0.03415287589812307,-0.018580463179217705
1.5077953698869986,0.01632710132796861,0.016207942188964295,0.006411917338543193,0.025924451401677026,-0.014127091385294936
1.5078668870419252,0.01858159605132472,0.012423811636109063,0.00521914285473996,0.016578553460437604,-0.008253273680068339
1.5079384041968518,0.02125563485920751,0.010022499228009595,0.005152249488431391,0.007919696455459879,-0.002089212631837534
1.5080099213517784,0.023737553869918368,0.009691707729587972,0.0057615299185219465,0.004728512263701281,0.0006241069341177399
1.508081438506705,0.025680396681245936,0.011749894095450726,0.007453924502377228,0.00727808675266294,-2.488230024557539e-05
1.5081529556616315,0.027059576075294776,0.01401264592394576,0.008842952470356694,0.014344084189024903,-0.004124700108515356
1.5082244728165581,0.028112039179855254,0.013759210000330884,0.008942296206187028,0.021838100642880887,-0.00943139771756151
1.5082959899714847,0.029172386947160022,0.011869730351841287,0.008780907310022895,0.028213254671615222,-0.014118346851213793
1.5083675071264113,0.03045818310099522,0.011987367923500145,0.010026451111954632,0.03350435150338492,-0.017047723524191857
1.508439024281338,0.03190386747651281,0.016221132005668028,0.012747040105629182,0.038405870520934804,-0.018670043091608635
1.5085105414362645,0.03314377564440417,0.022332383903416284,0.01600259242207933,0.04193367939005933,-0.01893333967706604
1.508582058591191,0.03366149064758627,0.027167140983040308,0.0186299276568245,0.04385096978065002,-0.018477920116194594
1.5086535757461177,0.03301661123576188,0.02675512939305615,0.017302793300784304,0.04321740566951474,-0.018948551475198878
1.5087250929010443,0.031031763736761156,0.02231076157535955,0.013978643770450466,0.03884677576423959,-0.01812790193923177
1.5087966100559709,0.02787943173947238,0.016531183853928443,0.009773118861112214,0.03174221688039896,-0.015959458108462582
1.5088681272108975,0.024071143965329337,0.011240086528894806,0.005405399448016361,0.02576962219153849,-0.01471748301089116
1.508939644365824,0.020368522042175177,0.00713846422664373,0.002619426200917792,0.020839097488375542,-0.013121458995649643
1.5090111615207507,0.017622660517009992,0.005297836735866932,0.001280243020763253,0.018626921083990024,-0.012467699993644785
1.5090826786756772,0.016549556574789192,0.004896337506746141,0.001094148915450876,0.01821236649948618,-0.012299997238539197
1.5091541958306038,0.01749078347259404,0.004981690885595989,0.001728275756159572,0.015968905013517276,-0.010248786723973516
1.5092257129855304,0.02026609634215111,0.005210547344692785,0.002622344403247119,0.011173819226509231,-0.006186307767710454
1.509297230140457,0.024225306810832306,0.008139206716922203,0.005090188490138515,0.006246688898371756,-0.0009325873360222271
1.5093687472953836,0.028505184243561566,0.015999741189535878,0.010396256019729185,0.0046994553108216045,0.0038752013156770717
1.5094402644503102,0.032363241212534366,0.027421881911992244,0.017181792517199104,0.0091377035747959,0.0054225396202385034
1.5095117816052368,0.035420479974014,0.0404572572194783,0.023785576506019895,0.019400966145424244,0.00266743883981086
1.5095832987601634,0.03772295943106026,0.05058878412240601,0.028541189697550762,0.031234952354117988,-0.002503684355527209
1.50965481591509,0.039632532833370364,0.05411969757317622,0.030196375009199177,0.041234193984019035,-0.008525599439588223
1.5097263330700166,0.041605230836871475,0.04967959318318547,0.028415936049993602,0.046424902204295494,-0.013496994475083905
1.5097978502249432,0.04392716574129624,0.042084327892190694,0.026087173799228647,0.044275026071773096,-0.01357862069515033
1.5098693673798698,0.04649881119729661,0.03748354948566664,0.025125670272120693,0.03840403855901074,-0.010033674206112687
1.5099408845347964,0.048782229516577,0.037354531611495316,0.025898717163670308,0.03328749077553783,-0.005821200446523864
1.510012401689723,0.04998265464348263,0.0400538043823131,0.027970420605425636,0.029447442275344342,-0.0016194626304531334
1.5100839188446495,0.04939582665258717,0.04052312825559807,0.02744804663090382,0.026410205086287844,0.00019506637681989257
1.5101554359995761,0.046726633743720845,0.038091062618529146,0.024915387052692306,0.023245924564000084,0.0006977005344014494
1.5102269531545027,0.04221494386441091,0.03531420335744771,0.022036546886626967,0.019675220659412924,0.0012506465589068698
1.5102984703094293,0.0365554045951188,0.033979207391055144,0.019143160662124768,0.020061392191030016,-0.0010444309296628665
1.510369987464356,0.030705701566729478,0.0345096134317043,0.01712115674686206,0.022955756429506854,-0.004530948452121714
1.5104415046192825,0.025671938650474672,0.036377477109486925,0.016152578444133103,0.0279941032380682,-0.008821554684565877
1.510513021774209,0.02230380117340663,0.038752986334942834,0.01595046449902194,0.033668376233077085,-0.013035059466124451
1.5105845389291357,0.02110478427342222,0.03750552135451275,0.014310671393420193,0.03482138598473124,-0.015006252846365408
1.5106560560840623,0.022087028251984653,0.03179073999928857,0.011927341615445858,0.029089771818157896,-0.01255397668564388
1.5107275732389889,0.02474352062355467,0.02233547738787406,0.008315005741078718,0.018585596924211988,-0.007535256774149044
1.5107990903939155,0.028206425428266402,0.014853171153285202,0.006455089330600415,0.008633782057709417,-0.001693344020136078
1.510870607548842,0.03156791810921427,0.011090867309787162,0.006924877381908108,0.00324212125281034,0.002500884874588003
1.5109421247037687,0.034217944840168574,0.011195270961120692,0.0085255112555674,0.005790492200499291,0.0017888629493597534
1.5110136418586952,0.036025983655989566,0.015023829784969732,0.01161661354179527,0.01492375135257295,-0.002607053628709797
1.5110851590136218,0.03729532439305516,0.017434391760571634,0.013294021431409462,0.026554750505922323,-0.009781926905844864
1.5111566761685484,0.03854470610167679,0.016620827349186223,0.013163190298163863,0.0380344143833566,-0.018113172862193303
1.511228193323475,0.04022460916569971,0.015367118891457102,0.013651672900344249,0.04452924076309706,-0.0224370412151402
1.5112997104784016,0.04246467581659284,0.016182559137182948,0.01442102957265151,0.04683411523849092,-0.023556417912074214
1.5113712276333282,0.04493429586497486,0.020978757894257547,0.016921655013448497,0.047156715373129744,-0.022044311732141223
1.5114427447882548,0.04689231770787431,0.026487226201598046,0.019784155718843215,0.0450857716832835,-0.018559719389940867
1.5115142619431814,0.047454803887083834,0.028756373413102446,0.02007376929597759,0.04169420116623569,-0.015921579138831073
1.511585779098108,0.04599085839647899,0.025456632916183372,0.017243949592298295,0.03651505145859899,-0.014176564223908759
