freq,gls,usurper,pdc_unbiased,shape_periodogram,shift_periodogram
1.5,0.031605246424144244,0.031234509047415305,0.022003088454338578,0.05057716110540784,-0.014926005137899854
1.5000715171549266,0.028595336453250155,0.02459288499264678,0.01679692217781675,0.041965004910447024,-0.013513328769801007
1.5001430343098532,0.024797888546036324,0.018846635374949888,0.011419584810450916,0.03462172199636783,-0.01303700155489982
1.5002145514647798,0.020789812632417533,0.017005048288444357,0.008796510756732951,0.02780860435165119,-0.010761103437014027
1.5002860686197064,0.017345459787468324,0.01958712774979219,0.009479677332466734,0.02443218528656884,-0.008096335943125048
1.500357585774633,0.015271945925960987,0.02414466103592862,0.011714688134418397,0.02350857826825999,-0.005779604998205402
1.5004291029295596,0.015165201318802408,0.029493022077026976,0.01415548030345099,0.027027317327899935,-0.006112022721826217
1.5005006200844861,0.01716595655706576,0.03452097904348623,0.016954003693511403,0.02973578354858068,-0.005654480847297811
1.5005721372394127,0.02086274426290797,0.03831906536929949,0.019187221778694714,0.032299550737885284,-0.005543632354222286
1.5006436543943393,0.02544081002802935,0.04153610427942158,0.02137618975240262,0.034887290650088915,-0.005482078285037098
1.500715171549266,0.03000884122307953,0.04496635173401744,0.02421994995090846,0.03698431662095039,-0.0046016734020796115
1.5007866887041925,0.03391266896856934,0.0490004995978659,0.02666061786266369,0.044156389053945935,-0.007244870225810843
1.500858205859119,0.0368882624749449,0.05365023569875125,0.029368029530911475,0.05428593282223957,-0.011555433845086643
1.5009297230140457,0.0390355018056212,0.05867292676370901,0.03287087235373193,0.06744153092386909,-0.017171439542699424
1.5010012401689723,0.04067274274449097,0.060361665953914234,0.0349635290275476,0.07896648065356143,-0.022859447519562225
1.5010727573238989,0.04213722341942038,0.06040928913823392,0.036798409825528795,0.08754483250054335,-0.02688429403202044
1.5011442744788255,0.043587855733941964,0.06020124247147922,0.03793328428010061,0.09499350432265165,-0.03074148073965494
1.501215791633752,0.044880915226329254,0.05963885908231629,0.03824814004694497,0.10007545624591664,-0.03373440077657085
1.5012873087886787,0.045592465454410994,0.060398901940563375,0.03896037083855539,0.10465985806896806,-0.036103138035123966
1.5013588259436053,0.04519857422015515,0.059616688228173655,0.038338310339186395,0.10570339657154283,-0.037253932041731976
1.5014303430985318,0.04331902735671992,0.05598580962739102,0.03525172960142179,0.10445798701882672,-0.03886414197533778
1.5015018602534584,0.03989064242203222,0.04821527452666867,0.029380562295107576,0.09909173385549358,-0.040011476592718954
1.501573377408385,0.035207008956161204,0.039069136340332454,0.02275340008029923,0.09177121240074478,-0.04049885683430505
1.5016448945633116,0.029854908046904056,0.030660278469332843,0.01716592382272006,0.08143096168666425,-0.03825795487208535
1.5017164117182382,0.02460404968418353,0.023606630096165263,0.01272729457488559,0.07014779194020353,-0.03453342320618137
1.5017879288731648,0.020274028275387688,0.019429346409323197,0.010756457121333964,0.06015358378655459,-0.02972099955058347
1.5018594460280914,0.01756978332877583,0.017503320988875117,0.009814843547662735,0.05349041964362029,-0.026227584057395937
1.501930963183018,0.016887968997375314,0.017260321621642385,0.009773529530205848,0.04623873963517773,-0.02166614014271314
1.5020024803379446,0.018154766828972088,0.016558493871636663,0.009545857603491862,0.03936497049597742,-0.017491211160156596
1.5020739974928712,0.020807783027131654,0.017213527798753653,0.00997328939183271,0.03382561356159862,-0.013654730807456288
1.5021455146477978,0.023992628107040868,0.019777969871510686,0.01144212206274167,0.03096503512960102,-0.010706338531461246
1.5022170318027244,0.026898257150269028,0.024368011219486247,0.014028974316248104,0.033205276928254875,-0.010117470277811548
1.502288548957651,0.029041972437567,0.029244140214136648,0.016679671046279716,0.0385993509304522,-0.01147428347524922
1.5023600661125776,0.03036170293294545,0.03452684735645895,0.019990738498687276,0.04657182392863604,-0.01395154280157074
1.5024315832675041,0.031115659296329378,0.035380318752380534,0.02077896981185265,0.053942920525167956,-0.018008318118940336
1.5025031004224307,0.031680428730509906,0.03268153531015975,0.019519808615351825,0.05845013453241137,-0.02184209959536937
1.5025746175773573,0.032340192227813126,0.02902015680041518,0.018649627815208736,0.059262604626751716,-0.023032552078350872
1.502646134732284,0.033131945974426154,0.02634420548212787,0.017871043624403338,0.05713814273977927,-0.02229009237888306
1.5027176518872105,0.033797027787609374,0.025795094839524527,0.01799769758677829,0.055955085895183734,-0.02144199126261162
1.502789169042137,0.033871437590867574,0.02442957506245776,0.017486670760106647,0.053776467596184215,-0.020457991500978448
1.5028606861970637,0.03289397904446062,0.021170411790087,0.015274482970942199,0.05050246300800276,-0.02010018153820395
1.5029322033519903,0.030638444170610023,0.017499035146570734,0.012011118949132128,0.047003970491183815,-0.020415603058248244
1.5030037205069169,0.02725242384486997,0.015525887853875637,0.009441040885373031,0.04393220147953524,-0.02046350934195563
1.5030752376618435,0.023245599290448483,0.01692729942738054,0.008606550278537486,0.04178842997708735,-0.01975337204822995
1.50314675481677,0.019358366958489085,0.020235794314214604,0.008953985446160287,0.03997390996333468,-0.018335492757752828
1.5032182719716967,0.01638051368297583,0.0244835838564575,0.010426555451109277,0.03897015490760812,-0.0165584969804939
1.5032897891266233,0.01497089818834955,0.02867512296721894,0.012350463029946239,0.03833748336148859,-0.014666281092183969
1.5033613062815498,0.015499460648454992,0.03206993804127091,0.013981854206916533,0.03714649808497478,-0.01264748426800994
1.5034328234364764,0.01793079665045714,0.03248980783375518,0.01416864675154985,0.03346996449725102,-0.010176590069533628
1.503504340591403,0.021792554285279486,0.0317947750021404,0.013806564009865633,0.028966992028394093,-0.007609220697397842
1.5035758577463296,0.026283745634476982,0.03427857721154897,0.015751292513310384,0.02720665692744883,-0.0049879036251908844
1.5036473749012562,0.03053094650102892,0.039451764741846175,0.019003856556851165,0.03161648986500036,-0.005253869186432854
1.5037188920561828,0.03389868374654469,0.046441281237809134,0.02304438568669538,0.041951173341598674,-0.00865669105152311
1.5037904092111094,0.03619247413189749,0.05516585911542557,0.02836367437687625,0.05537096658796915,-0.013023098864003572
1.503861926366036,0.03764566473947448,0.061690018103658456,0.03246316988130233,0.06905270436245081,-0.01851060809740359
1.5039334435209626,0.038716510453014726,0.06477465807823732,0.03408384953452373,0.08167607687413242,-0.02526579198357371
1.5040049606758892,0.0398171228344044,0.06617427100591024,0.03557140334761458,0.09128707551717061,-0.030221033987519706
1.5040764778308158,0.041095739566223526,0.06945425142244882,0.037525773851031737,0.09855789633882377,-0.03332993098878576
1.5041479949857424,0.04234364882306056,0.07273647681408492,0.038887791087543686,0.10419381470250708,-0.03586236402892309
1.504219512140669,0.043051695709888996,0.07408408213147295,0.03921573232033744,0.10807812127283373,-0.038085857149592194
1.5042910292955955,0.04260283060723393,0.06954586614091186,0.036347749549566495,0.10841496266704816,-0.040536299670857485
1.5043625464505221,0.04053910287302065,0.058890568474091735,0.030363706364527798,0.10348981924338467,-0.042051861327224535
1.5044340636054487,0.03679439695722014,0.0453898447313247,0.02344001313236871,0.0934205741129206,-0.041015904539484005
1.5045055807603753,0.03178229372791513,0.03356989129378988,0.01698689592080203,0.08308353921317192,-0.039447823094947945
1.504577097915302,0.026296542555493532,0.025435897001250974,0.012446934359831944,0.07228935590859016,-0.036110664071511825
1.5046486150702285,0.021278189004975218,0.022415116553297452,0.011187449324425095,0.06328054453753858,-0.031369901714621576
1.504720132225155,0.017555651134353225,0.02156491913630409,0.011283372248322305,0.055933561879427995,-0.026637100869760632
1.5047916493800817,0.01564621916050789,0.02061958865590265,0.010644076718018416,0.05005550532742846,-0.023408402995264962
1.5048631665350083,0.015656872938766518,0.01850418192541526,0.009217644422453899,0.04241536600498403,-0.01967645191878953
1.5049346836899349,0.017286051262519187,0.0169930958620415,0.008230188330603324,0.03500013086090933,-0.015749199261371284
1.5050062008448615,0.019918755698584013,0.016939800056153538,0.007905738300784866,0.028395990730478653,-0.011823127914959207
1.505077717999788,0.022804926807040774,0.019175529605713473,0.009361654152707073,0.023710653543934732,-0.0077315998352619235
1.5051492351547147,0.025289013466251117,0.02419357400219394,0.011726326065843064,0.026908017215063248,-0.007920129500784651
1.5052207523096413,0.027015644551186973,0.029426453501120248,0.014241445734319206,0.03342117234570598,-0.010089267424998959
1.5052922694645678,0.028012475009877,0.032194951568080984,0.015961322224474977,0.03893536799939801,-0.012244138770139777
1.5053637866194944,0.028596359216805502,0.02913877291948223,0.014919408532213189,0.04155040028447471,-0.01470731306980612
1.505435303774421,0.02915112616185344,0.02261652491108644,0.013309044659559194,0.040936555191315796,-0.015567780957357506
1.5055068209293476,0.029900153036102176,0.01804176215707343,0.012321918805932341,0.03911409008281291,-0.015179881325954965
1.5055783380842742,0.030782681811496897,0.017284830457822475,0.01250866989698158,0.03789573946957747,-0.014264057049123953
1.5056498552392008,0.03146961942071043,0.019474442599725014,0.013496870470295333,0.039529634612068265,-0.014531675846369054
1.5057213723941274,0.03149161794629547,0.020597370447980785,0.013134126432083434,0.042129503574750066,-0.01645853066007941
1.505792889549054,0.030427310908792447,0.020258396693100356,0.011855838401314541,0.04364811139708785,-0.018411196538879498
1.5058644067039806,0.02809465201809536,0.018225966566151566,0.009674998552531539,0.04275728365026428,-0.01953829761991157
1.5059359238589072,0.024683284499830333,0.01458080367916602,0.006168765257997816,0.04067665747558969,-0.020939449908058343
1.5060074410138338,0.020766913938386953,0.012227816977186175,0.003987129865862614,0.03742907252928788,-0.020575090472775476
1.5060789581687604,0.017165658691511196,0.01328598579111287,0.004506773893992003,0.03402412242419481,-0.01801790433489148
1.506150475323687,0.014695536880755058,0.01584528991899902,0.005603202541494299,0.03192208307145549,-0.0158382693528459
1.5062219924786135,0.013907828977730352,0.01817474296178651,0.006474304461408025,0.029729126027883305,-0.013775911551822844
1.5062935096335401,0.014929925183180436,0.018667726196619383,0.007024475314287043,0.02500889648530982,-0.010364258559936062
1.5063650267884667,0.01746107614733839,0.017557688813454608,0.006681651925523114,0.02019664421536791,-0.007587283181082452
1.5064365439433933,0.020900617081537138,0.01898052058427436,0.008103902228742074,0.016471444946572614,-0.004129877452530621
1.50650806109832,0.024545654709518663,0.02298588632355474,0.01119024144466396,0.014012093254783684,-0.00018290765501048032
1.5065795782532465,0.027795889555703463,0.030089027202203668,0.015188716512202768,0.01925998527346458,-0.0004000782483671042
1.506651095408173,0.030315638754338018,0.03953355626147196,0.02020329875354711,0.02888142146222926,-0.002593768761815667
1.5067226125630997,0.03210575674634778,0.04909787817937574,0.02516307524326057,0.04120498335274948,-0.006539861040071025
1.5067941297180263,0.03344435853615213,0.05472746056166963,0.02809340030703321,0.052539563051167935,-0.011439548730503917
1.5068656468729529,0.03469846610783441,0.05530992676916704,0.028836225363534616,0.059541164359808,-0.015298454806067256
1.5069371640278795,0.03608805388876267,0.05431635605159928,0.029158238083419115,0.06302452514549538,-0.017256440527272855
1.507008681182806,0.03753193323000867,0.054061918654373285,0.029645090979329304,0.06571541762710595,-0.018584509788910398
1.5070801983377327,0.038657419159163646,0.054257948955985943,0.03000532215028713,0.06666338142794988,-0.01890578990860278
1.5071517154926592,0.038950459296790155,0.05300459384673215,0.029635790998015537,0.06565491267603421,-0.018553362578585912
1.5072232326475858,0.03795818995272562,0.04755333204707098,0.026170643808596194,0.062975791496101,-0.019546938985286564
1.5072947498025124,0.035465807062779846,0.040624536087392686,0.02167628316777021,0.05823645737891154,-0.020032627808993626
1.507366266957439,0.03160750390290827,0.03485572892682074,0.01779655130545853,0.053194791915894615,-0.01984898543703403
1.5074377841123656,0.02689036393457737,0.029844661879083738,0.014369878001425985,0.04855112543742352,-0.01956596201936731
1.5075093012672922,0.022110982309926926,0.025347549452517437,0.012274203971852665,0.0433672705483385,-0.017908964503418827
1.5075808184222188,0.018158898886019043,0.02241833922804956,0.010838451012952628,0.04031722800200651,-0.017091670048838572
1.5076523355771454,0.015750547010193554,0.020750494982263813,0.009985828883372298,0.037321917812984676,-0.015857170362612343
1.507723852732072,0.015198153002695225,0.017691995871833965,0.008495434228764531,0.03165985464944931,-0.013430407848970342
1.5077953698869986,0.01632710132796861,0.013503180286439999,0.006411917338543193,0.023915529145571813,-0.010147699286067012
1.5078668870419252,0.01858159605132472,0.010409944213404715,0.00521914285473996,0.015838965202038424,-0.005966032263548661
1.5079384041968518,0.02125563485920751,0.008591627118456424,0.005152249488431391,0.007911856085603897,-0.001007374178854213
1.5080099213517784,0.023737553869918368,0.008524049369238857,0.0057615299185219465,0.004382681428925115,0.0016952866280103304
1.508081438506705,0.025680396681245936,0.010648250768473864,0.007453924502377228,0.0048176768542028195,0.002732025807893249
1.5081529556616315,0.027059576075294776,0.012689819157495393,0.008842952470356694,0.0076979892035435584,0.001988284121402875
1.5082244728165581,0.028112039179855254,0.012041887996662655,0.008942296206187028,0.010046803406376403,0.0005808184887452222
1.5082959899714847,0.029172386947160022,0.009798254449452494,0.008780907310022895,0.012038804429076112,-0.00080328915492637
1.5083675071264113,0.03045818310099522,0.009675287604659435,0.010026451111954632,0.014388995350342913,-0.0013232839371219284
1.508439024281338,0.03190386747651281,0.013746919604743692,0.012747040105629182,0.018310053784371238,-0.0016927221814937747
1.5085105414362645,0.03314377564440417,0.0198724941160105,0.01600259242207933,0.023863468817077408,-0.0026791717965343634
1.508582058591191,0.03366149064758627,0.02479582731301464,0.0186299276568245,0.028763890718132394,-0.0037399481452128707
1.5086535757461177,0.03301661123576188,0.024609372153590704,0.017302793300784304,0.030810429764881138,-0.0060635870880317595
1.5087250929010443,0.031031763736761156,0.020494585283158333,0.013978643770450466,0.029618165952591986,-0.007887605562255135
1.5087966100559709,0.02787943173947238,0.015083672319190734,0.009773118861112214,0.025732303113625385,-0.008690960604985948
1.5088681272108975,0.024071143965329337,0.01005021716553572,0.005405399448016361,0.02189404656536131,-0.0096496821981918
1.508939644365824,0.020368522042175177,0.005929343421659887,0.002619426200917792,0.01735062455692861,-0.008936496852751016
1.5090111615207507,0.017622660517009992,0.0038367776623335756,0.001280243020763253,0.015192039470451028,-0.008609805767976443
1.5090826786756772,0.016549556574789192,0.003137997665566626,0.001094148915450876,0.014609195356958189,-0.008385595243928652
1.5091541958306038,0.01749078347259404,0.0032245673332043537,0.001728275756159572,0.012690687054381172,-0.006681464764833421
1.5092257129855304,0.02026609634215111,0.003846331517137092,0.002622344403247119,0.009230811090156697,-0.003801703773812551
1.509297230140457,0.024225306810832306,0.007363762293810753,0.005090188490138515,0.006603594509134986,-0.0002286314770017641
1.5093687472953836,0.028505184243561566,0.015510782187429056,0.010396256019729185,0.0064585552431892556,0.003975531668831205
1.5094402644503102,0.032363241212534366,0.02685115811782996,0.017181792517199104,0.01103079583920347,0.0063462445608605976
1.5095117816052368,0.035420479974014,0.039419270340793656,0.023785576506019895,0.019592533318465548,0.006057070667758219
1.5095832987601634,0.03772295943106026,0.04885495220662468,0.028541189697550762,0.02766684647333811,0.004644094188430951
1.50965481591509,0.039632532833370364,0.05170963446680209,0.030196375009199177,0.03330274013051321,0.0023662039849194835
1.5097263330700166,0.041605230836871475,0.04691330882569006,0.028415936049993602,0.035255049289141895,-0.00025067829725892353
1.5097978502249432,0.04392716574129624,0.03942691756679078,0.026087173799228647,0.03198538967751212,9.148109705929658e-06
1.5098693673798698,0.04649881119729661,0.03516822477738782,0.025125670272120693,0.027480767648629213,0.0021109596999871806
1.5099408845347964,0.048782229516577,0.03545683009048346,0.025898717163670308,0.026108178258808717,0.003578508830650667
1.510012401689723,0.04998265464348263,0.038535754829602906,0.027970420605425636,0.02648964383946339,0.004945166142426281
1.5100839188446495,0.04939582665258717,0.03914073433952695,0.02744804663090382,0.02639206056190962,0.004601425135976546
1.5101554359995761,0.046726633743720845,0.03667327979581521,0.024915387052692306,0.024898442769330113,0.0035801523490849208
1.5102269531545027,0.04221494386441091,0.03376744705291896,0.022036546886626967,0.022216253044873815,0.003042060402783079
1.5102984703094293,0.0365554045951188,0.03204397359210956,0.019143160662124768,0.021313657988723565,0.001368343535312755
1.510369987464356,0.030705701566729478,0.03194451366847523,0.01712115674686206,0.021489665730347458,-0.0003110458198603844
1.5104415046192825,0.025671938650474672,0.03305712472518113,0.016152578444133103,0.023095311367044728,-0.0020772165576891863
1.510513021774209,0.02230380117340663,0.03477425028920293,0.01595046449902194,0.025844421355772137,-0.003972078234690335
1.5105845389291357,0.02110478427342222,0.033422057751690465,0.014310671393420193,0.025856810549280053,-0.005251528211818331
1.5106560560840623,0.022087028251984653,0.028198696751904347,0.011927341615445858,0.020895837452905908,-0.003962865277620627
1.5107275732389889,0.02474352062355467,0.01965612947714166,0.008315005741078718,0.013055910914362144,-0.001807288666694305
1.5107990903939155,0.028206425428266402,0.013030035168419352,0.006455089330600415,0.005022231929510524,0.0018286202121454845
1.510870607548842,0.03156791810921427,0.009797991590182829,0.006924877381908108,-0.00027416559185593773,0.005539907038849454
1.5109421247037687,0.034217944840168574,0.009957721058475809,0.0085255112555674,2.4242911947497097e-05,0.006591815344417157
1.5110136418586952,0.036025983655989566,0.013406618449642247,0.01161661354179527,0.004144174630671446,0.0063839967644625404
1.5110851590136218,0.03729532439305516,0.015204084589713961,0.013294021431409462,0.009751244879917315,0.004140844360730974
1.5111566761685484,0.03854470610167679,0.013750436384013423,0.013163190298163863,0.015362440320536542,0.000493079162460369
1.511228193323475,0.04022460916569971,0.012231913314941929,0.013651672900344249,0.018181668083311016,-0.0009102026670153488
1.5112997104784016,0.04246467581659284,0.013121878188249456,0.01442102957265151,0.01998371472573889,-0.0014528179419882202
1.5113712276333282,0.04493429586497486,0.018294996188732815,0.016921655013448497,0.023295913502543116,-0.0016076225496411648
1.5114427447882548,0.04689231770787431,0.024317499150789134,0.019784155718843215,0.026818607005538515,-0.0016146060479316634
1.5115142619431814,0.047454803887083834,0.026971625795141785,0.02007376929597759,0.028789116047609874,-0.00263588527589111
