freq,gls,usurper,pdc_unbiased,shape_periodogram,shift_periodogram
1.5,0.031605246424144244,0.030103167378189414,0.022003088454338578,0.03099905910022448,0.0030846765663955
1.5000715171549266,0.028595336453250155,0.02361997723036686,0.01679692217781675,0.025649159012506494,0.0013386885354459655
1.5001430343098532,0.024797888546036324,0.018053312669626193,0.011419584810450916,0.021892149653297933,-0.0013667997965218998
1.5002145514647798,0.020789812632417533,0.016392387462321134,0.008796510756732951,0.019222778874374694,-0.002258476486460617
1.5002860686197064,0.017345459787468324,0.019052434578193986,0.009479677332466734,0.018934478883017053,-0.001523689339443191
1.500357585774633,0.015271945925960987,0.0236794171862328,0.011714688134418397,0.020573595972515332,-0.0004392177186056972
1.5004291029295596,0.015165201318802408,0.02907106881194802,0.01415548030345099,0.024338509724150678,-0.00026381120066266007
1.5005006200844861,0.01716595655706576,0.034272673082200354,0.016954003693511403,0.02707233090773221,0.000746560551505329
1.5005721372394127,0.02086274426290797,0.03842433831707448,0.019187221778694714,0.02956360165038754,0.0013949245823206692
1.5006436543943393,0.02544081002802935,0.04200844754000216,0.02137618975240262,0.03193085222115768,0.0020689350157142078
1.500715171549266,0.03000884122307953,0.04597449222013268,0.02421994995090846,0.033301733251122595,0.003816201266333913
1.5007866887041925,0.03391266896856934,0.05048850944509689,0.02666061786266369,0.03782269456021523,0.003607224514352387
1.500858205859119,0.0368882624749449,0.05540719816990763,0.029368029530911475,0.04392657019168101,0.0028192805190496877
1.5009297230140457,0.0390355018056212,0.06062711853530153,0.03287087235373193,0.05194113258636722,0.0017401452686698854
1.5010012401689723,0.04067274274449097,0.062276022011561655,0.0349635290275476,0.05774722906235348,0.0005746740039977238
1.5010727573238989,0.04213722341942038,0.06191662908898441,0.036798409825528795,0.06062669785802652,0.000684360096226966
1.5011442744788255,0.043587855733941964,0.06127236564066466,0.03793328428010061,0.06236361297776591,0.0007749218353479773
1.501215791633752,0.044880915226329254,0.06029431274844674,0.03824814004694497,0.0633821729512642,0.0005253762951184823
1.5012873087886787,0.045592465454410994,0.060844989764074785,0.03896037083855539,0.06531573457791386,0.00015048821114937197
1.5013588259436053,0.04519857422015515,0.06000587636663356,0.038338310339186395,0.06491626085637164,-0.0001820976121925384
1.5014303430985318,0.04331902735671992,0.056351069889564655,0.03525172960142179,0.06473046633923811,-0.002751360535863079
1.5015018602534584,0.03989064242203222,0.048728463998012644,0.029380562295107576,0.062144629872674655,-0.006492118899592345
1.501573377408385,0.035207008956161204,0.03969868593332788,0.02275340008029923,0.058948042354862236,-0.01056738743407263
1.5016448945633116,0.029854908046904056,0.0314382768913747,0.01716592382272006,0.05365069226778315,-0.012666778064758622
1.5017164117182382,0.02460404968418353,0.02438545209217414,0.01272729457488559,0.04741758472634048,-0.013296012860287856
1.5017879288731648,0.020274028275387688,0.020159922465798487,0.010756457121333964,0.04187450658480919,-0.012154798159287689
1.5018594460280914,0.01756978332877583,0.01795849516514782,0.009814843547662735,0.038172007800122906,-0.011070521918303227
1.501930963183018,0.016887968997375314,0.017361475236518282,0.009773529530205848,0.03432446469520501,-0.009138060388499035
1.5020024803379446,0.018154766828972088,0.016533214887594284,0.009545857603491862,0.031053585185444998,-0.007661279352429925
1.5020739974928712,0.020807783027131654,0.017121443871574177,0.00997328939183271,0.02924736222715732,-0.006370161914860222
1.5021455146477978,0.023992628107040868,0.01983193751946457,0.01144212206274167,0.029104975807912638,-0.005033982823721168
1.5022170318027244,0.026898257150269028,0.024622092651535445,0.014028974316248104,0.03152167656192332,-0.004044160483446351
1.502288548957651,0.029041972437567,0.029607031646561408,0.016679671046279716,0.03501954630971326,-0.003551797594158291
1.5023600661125776,0.03036170293294545,0.03498839668923648,0.019990738498687276,0.03940374592106293,-0.0029438474353223965
1.5024315832675041,0.031115659296329378,0.0358909579895724,0.02077896981185265,0.04221848312424358,-0.003704785460186159
1.5025031004224307,0.031680428730509906,0.032914614252834144,0.019519808615351825,0.042736073209039924,-0.005053589094348957
1.5025746175773573,0.032340192227813126,0.02881486290477567,0.018649627815208736,0.040165758065955216,-0.004487982114987687
1.502646134732284,0.033131945974426154,0.025747273815263993,0.017871043624403338,0.03623091235493068,-0.0031459106729295797
1.5027176518872105,0.033797027787609374,0.025033439510502728,0.01799769758677829,0.03421735027877828,-0.0020074315804325614
1.502789169042137,0.033871437590867574,0.02362602543520796,0.017486670760106647,0.031554007356917914,-0.00108569303543526
1.5028606861970637,0.03289397904446062,0.020331967351711888,0.015274482970942199,0.02940674379019518,-0.0018914858588610854
1.5029322033519903,0.030638444170610023,0.016681111165443806,0.012011118949132128,0.027726969183367256,-0.003840135890399462
1.5030037205069169,0.02725242384486997,0.014780456357340096,0.009441040885373031,0.02707684941075161,-0.005718334884375835
1.5030752376618435,0.023245599290448483,0.0163640964052504,0.008606550278537486,0.027782258776301565,-0.006796635076896277
1.50314675481677,0.019358366958489085,0.01986771839970187,0.008953985446160287,0.028706197569143138,-0.006970174683859728
1.5032182719716967,0.01638051368297583,0.024394465433632304,0.010426555451109277,0.029542540796423048,-0.006131210345327861
1.5032897891266233,0.01497089818834955,0.02868776608931839,0.012350463029946239,0.030006850791459948,-0.004713697112840856
1.5033613062815498,0.015499460648454992,0.03213971632038099,0.013981854206916533,0.029478565866057127,-0.0030402456084368933
1.5034328234364764,0.01793079665045714,0.03281513891989083,0.01416864675154985,0.02676956175459504,-0.0014948973329137792
1.503504340591403,0.021792554285279486,0.032423383055636905,0.013806564009865633,0.024084798621549136,-0.0004342821207340602
1.5035758577463296,0.026283745634476982,0.03521636414158522,0.015751292513310384,0.02472406436855698,0.0009118900143144631
1.5036473749012562,0.03053094650102892,0.04072382406889986,0.019003856556851165,0.029789703939118162,0.0011215867425104294
1.5037188920561828,0.03389868374654469,0.04795684949035783,0.02304438568669538,0.037759352379720584,0.0005257917127786493
1.5037904092111094,0.03619247413189749,0.056879740796395434,0.02836367437687625,0.04604661152885004,0.0008699446161109465
1.503861926366036,0.03764566473947448,0.06363983412405344,0.03246316988130233,0.05339955463412439,0.0006426047921916944
1.5039334435209626,0.038716510453014726,0.06666067107768774,0.03408384953452373,0.06004067078441492,-0.001357962177612084
1.5040049606758892,0.0398171228344044,0.0678244517368265,0.03557140334761458,0.06395622482813906,-0.0020789878063373554
1.5040764778308158,0.041095739566223526,0.07076869937226296,0.037525773851031737,0.06700612820604947,-0.0019537655670524975
1.5041479949857424,0.04234364882306056,0.07376392414626932,0.038887791087543686,0.07012351514634566,-0.0023743594588637165
1.504219512140669,0.043051695709888996,0.0750839558848449,0.03921573232033744,0.07299953608064332,-0.003564719663730574
1.5042910292955955,0.04260283060723393,0.07068799357795136,0.036347749549566495,0.07381472879587941,-0.0064599525812687976
1.5043625464505221,0.04053910287302065,0.060023481711208665,0.030363706364527798,0.07064708032920498,-0.01000154754270124
1.5044340636054487,0.03679439695722014,0.046520147630121626,0.02344001313236871,0.0629961565122977,-0.012049997550887315
1.5045055807603753,0.03178229372791513,0.03464116222891306,0.01698689592080203,0.05570996409703496,-0.01387575585055923
1.504577097915302,0.026296542555493532,0.026422640700350455,0.012446934359831944,0.04940964050664645,-0.014557223675008352
1.5046486150702285,0.021278189004975218,0.02322879819994712,0.011187449324425095,0.04408724083178099,-0.012916363812897473
1.504720132225155,0.017555651134353225,0.02206543052420603,0.011283372248322305,0.03997556042545423,-0.010729829267558283
1.5047916493800817,0.01564621916050789,0.020697396961253858,0.010644076718018416,0.03643112516203934,-0.009466657879316628
1.5048631665350083,0.015656872938766518,0.018298674899222593,0.009217644422453899,0.032195798218230993,-0.008527631173184716
1.5049346836899349,0.017286051262519187,0.016771074100986723,0.008230188330603324,0.028381192605951604,-0.0074265097599157245
1.5050062008448615,0.019918755698584013,0.01680156798864463,0.007905738300784866,0.025541419089927322,-0.006253828157307706
1.505077717999788,0.022804926807040774,0.01915902471246063,0.009361654152707073,0.023875463081634945,-0.004150240381553283
1.5051492351547147,0.025289013466251117,0.024382716455021568,0.011726326065843064,0.028202370420864847,-0.004328113382392008
1.5052207523096413,0.027015644551186973,0.029807147886552095,0.014241445734319206,0.03333940533451465,-0.004790708296331101
1.5052922694645678,0.028012475009877,0.032697311248350805,0.015961322224474977,0.035855191371410244,-0.0045972361610893105
1.5053637866194944,0.028596359216805502,0.0296992567865562,0.014919408532213189,0.03471735778394201,-0.004911954901563062
1.505435303774421,0.02915112616185344,0.023022308247807967,0.013309044659559194,0.029824643315935234,-0.0037959479853326007
1.5055068209293476,0.029900153036102176,0.018071079019775733,0.012321918805932341,0.02521175827226697,-0.0022872214477919427
1.5055783380842742,0.030782681811496897,0.016965925917134153,0.01250866989698158,0.02239642784272453,-0.0006878249224351383
1.5056498552392008,0.03146961942071043,0.019075632983386763,0.013496870470295333,0.023017998166925027,-0.000155505639107106
1.5057213723941274,0.03149161794629547,0.020248528608236005,0.013134126432083434,0.025251833495183354,-0.0016090942716979286
1.505792889549054,0.030427310908792447,0.019976558169176473,0.011855838401314541,0.02812662905835634,-0.004177995301271331
1.5058644067039806,0.02809465201809536,0.018219227425380794,0.009674998552531539,0.029032446947957997,-0.006516846050555912
1.5059359238589072,0.024683284499830333,0.014885963352066843,0.006168765257997816,0.02887523865433846,-0.00945189265820301
1.5060074410138338,0.020766913938386953,0.012746230476095615,0.003987129865862614,0.027998831725362935,-0.010879798425321245
1.5060789581687604,0.017165658691511196,0.013971602163179329,0.004506773893992003,0.02635838099020534,-0.009594283102782502
1.506150475323687,0.014695536880755058,0.016615921829834936,0.005603202541494299,0.025966787006948676,-0.008451295643587932
1.5062219924786135,0.013907828977730352,0.018914339636645034,0.006474304461408025,0.02460823004687969,-0.007007760778629097
1.5062935096335401,0.014929925183180436,0.01933814035508871,0.007024475314287043,0.020954395745183412,-0.004667158186561799
1.5063650267884667,0.01746107614733839,0.018253032166052317,0.006681651925523114,0.017872936559858953,-0.0033872114891603296
1.5064365439433933,0.020900617081537138,0.019679820515226633,0.008103902228742074,0.01594332708195282,-0.001178309531518966
1.50650806109832,0.024545654709518663,0.023869087727106685,0.01119024144466396,0.014585029456434516,0.0021695481740795558
1.5065795782532465,0.027795889555703463,0.03125684924400003,0.015188716512202768,0.018396999627929605,0.0036607195333225677
1.506651095408173,0.030315638754338018,0.04086455063649474,0.02020329875354711,0.024702542289477405,0.004753070882600728
1.5067226125630997,0.03210575674634778,0.05066460546238436,0.02516307524326057,0.03271855922526969,0.004926123453817681
1.5067941297180263,0.03344435853615213,0.05647856728912174,0.02809340030703321,0.03968819881630905,0.0038877588983685244
1.5068656468729529,0.03469846610783441,0.056965875510611955,0.028836225363534616,0.04248150290183951,0.0030998448556669154
1.5069371640278795,0.03608805388876267,0.05572395359631172,0.029158238083419115,0.04268491595973667,0.0032732797361949405
1.507008681182806,0.03753193323000867,0.055243376116333766,0.029645090979329304,0.04324186149986405,0.0034080251749649365
1.5070801983377327,0.038657419159163646,0.055300340176302955,0.03000532215028713,0.04339584210847163,0.0036396869409910087
1.5071517154926592,0.038950459296790155,0.054059733673659974,0.029635790998015537,0.04229455134037581,0.003884250873631887
1.5072232326475858,0.03795818995272562,0.048644035327414965,0.026170643808596194,0.04087746464372523,0.001623779368393146
1.5072947498025124,0.035465807062779846,0.041690649600817364,0.02167628316777021,0.0385154107540676,-0.0010385838888248727
1.507366266957439,0.03160750390290827,0.03582677114767199,0.01779655130545853,0.03622112901010114,-0.0032050178957683264
1.5074377841123656,0.02689036393457737,0.030747546687224417,0.014369878001425985,0.03435826029220525,-0.0052011616103416905
1.5075093012672922,0.022110982309926926,0.026127352784862563,0.012274203971852665,0.03145499434956994,-0.005519659227816291
1.5075808184222188,0.018158898886019043,0.022966375340938972,0.010838451012952628,0.03016761270358478,-0.006096492332547062
1.5076523355771454,0.015750547010193554,0.020987494240880596,0.009985828883372298,0.02847599039388506,-0.005965026621893788
1.507723852732072,0.015198153002695225,0.017593390378564448,0.008495434228764531,0.02429093904505783,-0.0051075296883304885
1.5077953698869986,0.01632710132796861,0.013252891213902064,0.006411917338543193,0.018917613440842886,-0.004152985988878403
1.5078668870419252,0.01858159605132472,0.010142895071553845,0.00521914285473996,0.013615169444727595,-0.002469068921978255
1.5079384041968518,0.02125563485920751,0.0084135950822644,0.005152249488431391,0.008668740745649444,6.281873512164289e-07
1.5080099213517784,0.023737553869918368,0.008377530471271674,0.0057615299185219465,0.00621292199302662,0.001779060627454369
1.508081438506705,0.025680396681245936,0.010632862671341548,0.007453924502377228,0.005628665591333178,0.0035325182900541176
1.5081529556616315,0.027059576075294776,0.012867395185063874,0.008842952470356694,0.006087802141572022,0.004492171026900469
1.5082244728165581,0.028112039179855254,0.012332051398559616,0.008942296206187028,0.006168601175251175,0.004536306665233231
1.5082959899714847,0.029172386947160022,0.010022110294637005,0.008780907310022895,0.005846065838157277,0.00456231566560508
1.5083675071264113,0.03045818310099522,0.009674086005914125,0.010026451111954632,0.006052164808163322,0.005527895827577779
1.508439024281338,0.03190386747651281,0.01345339903207678,0.012747040105629182,0.008170355553554696,0.006785061278303988
1.5085105414362645,0.03314377564440417,0.019426043630008945,0.01600259242207933,0.011880126858282478,0.0076896267198198025
1.508582058591191,0.03366149064758627,0.024510417523100764,0.0186299276568245,0.015284227000719016,0.008210567561306559
1.5086535757461177,0.03301661123576188,0.02467923333893482,0.017302793300784304,0.01730448298556898,0.006037156125706469
1.5087250929010443,0.031031763736761156,0.020900195180815356,0.013978643770450466,0.017657218357676,0.002997930080638156
1.5087966100559709,0.02787943173947238,0.015810399926653493,0.009773118861112214,0.01621693751401019,0.00011720298646918452
1.5088681272108975,0.024071143965329337,0.011087742965788662,0.005405399448016361,0.01538937925980754,-0.0032154791286712154
1.508939644365824,0.020368522042175177,0.0072282097818735635,0.002619426200917792,0.013634792647286193,-0.004714178440788659
1.5090111615207507,0.017622660517009992,0.005306894875799391,0.001280243020763253,0.012755085714056525,-0.0054159837174800815
1.5090826786756772,0.016549556574789192,0.0045356656791816635,0.001094148915450876,0.012746463480734516,-0.005571561463951984
1.5091541958306038,0.01749078347259404,0.004363690845172649,0.001728275756159572,0.011018401697820578,-0.0041434620923562725
1.5092257129855304,0.02026609634215111,0.004786528459426875,0.002622344403247119,0.007804309511599019,-0.001732713460215007
1.509297230140457,0.024225306810832306,0.008266694953633504,0.005090188490138515,0.005657224346920737,0.001485791242200557
1.5093687472953836,0.028505184243561566,0.016495626048053394,0.010396256019729185,0.006180529217898518,0.005780270730804161
1.5094402644503102,0.032363241212534366,0.027966331715606134,0.017181792517199104,0.009819155185040845,0.00975633409384518
1.5095117816052368,0.035420479974014,0.04077286671574333,0.023785576506019895,0.015480135303801138,0.012545417849250985
1.5095832987601634,0.03772295943106026,0.05032957254789287,0.028541189697550762,0.02014970381818117,0.014253216972841994
1.50965481591509,0.039632532833370364,0.05333286300824691,0.030196375009199177,0.022740567651252305,0.014355145250349609
1.5097263330700166,0.041605230836871475,0.04865017229654239,0.028415936049993602,0.022018018019605016,0.013191548630383687
1.5097978502249432,0.04392716574129624,0.04101591970227197,0.026087173799228647,0.016929359242955782,0.01378563642450856
1.5098693673798698,0.04649881119729661,0.03643371635663201,0.025125670272120693,0.011640335456960813,0.01565873905532538
1.5099408845347964,0.048782229516577,0.03633546682112634,0.025898717163670308,0.01022713190118368,0.017045181900748763
1.510012401689723,0.04998265464348263,0.03917829706472433,0.027970420605425636,0.010930886270011675,0.018468089895849336
1.5100839188446495,0.04939582665258717,0.039683376443147116,0.02744804663090382,0.011866837062183236,0.01754094274208564
1.5101554359995761,0.046726633743720845,0.0371714941722984,0.024915387052692306,0.012127868417138615,0.015228944397101497
1.5102269531545027,0.04221494386441091,0.034273708603759265,0.022036546886626967,0.012051763536963273,0.012791485386517188
1.5102984703094293,0.0365554045951188,0.03261134621773257,0.019143160662124768,0.013943613921161802,0.009336706294977386
1.510369987464356,0.030705701566729478,0.03255453414838632,0.01712115674686206,0.016938222090059053,0.006068018108305517
1.5104415046192825,0.025671938650474672,0.033664418829520766,0.016152578444133103,0.01983747898318584,0.0037538354952147577
1.510513021774209,0.02230380117340663,0.03523383906024849,0.01595046449902194,0.02302040280443313,0.0019537600517630306
1.5105845389291357,0.02110478427342222,0.033725257520813234,0.014310671393420193,0.023214944534754797,0.0004438343680216085
1.5106560560840623,0.022087028251984653,0.028350038843918506,0.011927341615445858,0.018806664821016714,0.0006465095949578575
1.5107275732389889,0.02474352062355467,0.019696697641008586,0.008315005741078718,0.011992169675706472,0.0010219364398682176
1.5107990903939155,0.028206425428266402,0.012970155721618503,0.006455089330600415,0.005181947868831039,0.0029020070714967728
1.510870607548842,0.03156791810921427,0.00974767107928565,0.006924877381908108,0.0002101662715436808,0.0058457001831247355
1.5109421247037687,0.034217944840168574,0.00994539724251377,0.0085255112555674,-0.001088782673861458,0.007885274914706081
1.5110136418586952,0.036025983655989566,0.013392377439688775,0.01161661354179527,0.0001754760020450968,0.009896856343029711
1.5110851590136218,0.03729532439305516,0.015192709950714851,0.013294021431409462,0.0022553100302827884,0.010276631852548285
1.5111566761685484,0.03854470610167679,0.013807156800255975,0.013163190298163863,0.004533491399065057,0.009000521605841536
1.511228193323475,0.04022460916569971,0.012224882435377407,0.013651672900344249,0.004357625252251468,0.009510339816361254
1.5112997104784016,0.04246467581659284,0.012971347642411292,0.01442102957265151,0.004301867303403676,0.010200307434065182
1.5113712276333282,0.04493429586497486,0.018002210730406372,0.016921655013448497,0.006499025495497911,0.011228286189360661
1.5114427447882548,0.04689231770787431,0.02408038700324973,0.019784155718843215,0.009622673182209652,0.012094670826785194
1.5115142619431814,0.047454803887083834,0.026853365660129275,0.02007376929597759,0.012994648109813394,0.010621768329930108
