freq,gls,usurper,pdc_unbiased,shape_periodogram,shift_periodogram
1.5,0.031605246424144244,0.02881125233171197,0.022003088454338578,0.03000870046384908,0.00531402117226892
1.5000715171549266,0.028595336453250155,0.022745088597173255,0.01679692217781675,0.024650555937127696,0.003235084718247618
1.5001430343098532,0.024797888546036324,0.017340246930297558,0.011419584810450916,0.02051427185899154,0.00043216101113096906
1.5002145514647798,0.020789812632417533,0.015531017064951398,0.008796510756732951,0.0169541539973203,-0.00020913743949130826
1.5002860686197064,0.017345459787468324,0.017763936253561322,0.009479677332466734,0.0156749799544253,0.0009955358516606724
1.500357585774633,0.015271945925960987,0.021711944494588634,0.011714688134418397,0.016036514408964614,0.0027985612815442738
1.5004291029295596,0.015165201318802408,0.026157703996013124,0.01415548030345099,0.01923769576473802,0.0034481115822271643
1.5005006200844861,0.01716595655706576,0.030421735774763918,0.016954003693511403,0.02167064067786686,0.004775170236619413
1.5005721372394127,0.02086274426290797,0.033755405824507576,0.019187221778694714,0.0244167350586917,0.0054561668180810995
1.5006436543943393,0.02544081002802935,0.036681062253585146,0.02137618975240262,0.027286950821313796,0.006040085144069504
1.500715171549266,0.03000884122307953,0.039882923703613966,0.02421994995090846,0.028958112298315665,0.007766789237717804
1.5007866887041925,0.03391266896856934,0.04326642847576638,0.02666061786266369,0.03386955468040333,0.007614393551999594
1.500858205859119,0.0368882624749449,0.04711235260655966,0.029368029530911475,0.04019564612520995,0.007033134851181789
1.5009297230140457,0.0390355018056212,0.051467987613892416,0.03287087235373193,0.04820093375897254,0.006366317149731168
1.5010012401689723,0.04067274274449097,0.05308585221432374,0.0349635290275476,0.05414667769320575,0.005420987561871765
1.5010727573238989,0.04213722341942038,0.05354677284322753,0.036798409825528795,0.057846715439201925,0.005304471063309987
1.5011442744788255,0.043587855733941964,0.05371230108910705,0.03793328428010061,0.061321762700041416,0.004673946353386103
1.501215791633752,0.044880915226329254,0.053440158165002374,0.03824814004694497,0.06427438615320469,0.003562560486980245
1.5012873087886787,0.045592465454410994,0.05429451723703436,0.03896037083855539,0.06756037973901158,0.002646001491115195
1.5013588259436053,0.04519857422015515,0.05365699621388436,0.038338310339186395,0.06785791441187763,0.001954328838575102
1.5014303430985318,0.04331902735671992,0.05032242423837336,0.03525172960142179,0.06792146394005766,-0.0008114899233158696
1.5015018602534584,0.03989064242203222,0.04321629312611218,0.029380562295107576,0.06510893527450318,-0.004686586914138162
1.501573377408385,0.035207008956161204,0.03501803219111965,0.02275340008029923,0.06139319231594058,-0.008800339207802934
1.5016448945633116,0.029854908046904056,0.02768095717740261,0.01716592382272006,0.054928289534294676,-0.010693623598059402
1.5017164117182382,0.02460404968418353,0.021636107993487582,0.01272729457488559,0.04760228583160311,-0.011163589171708604
1.5017879288731648,0.020274028275387688,0.018270914462551035,0.010756457121333964,0.0409996308029805,-0.009794211036085404
1.5018594460280914,0.01756978332877583,0.016664259022896998,0.009814843547662735,0.036907501367653105,-0.008698871082514244
1.501930963183018,0.016887968997375314,0.01644299017282225,0.009773529530205848,0.03284053762649953,-0.00682078361471294
1.5020024803379446,0.018154766828972088,0.015904594008563623,0.009545857603491862,0.02914586952759219,-0.00528298460652404
1.5020739974928712,0.020807783027131654,0.01649709803195878,0.00997328939183271,0.02656581641861895,-0.0036915526037478484
1.5021455146477978,0.023992628107040868,0.01875646864228724,0.01144212206274167,0.025435150332429185,-0.001862662669486673
1.5022170318027244,0.026898257150269028,0.022623930594787556,0.014028974316248104,0.02709984289587486,-0.0003614672740439842
1.502288548957651,0.029041972437567,0.026641453098248974,0.016679671046279716,0.030032805316443353,0.0005998819793445177
1.5023600661125776,0.03036170293294545,0.03109665145822301,0.019990738498687276,0.03388952444693307,0.001710592867379147
1.5024315832675041,0.031115659296329378,0.03165228269882276,0.02077896981185265,0.03624202107515794,0.0013002875591065395
1.5025031004224307,0.031680428730509906,0.02915951183584382,0.019519808615351825,0.03704000088684478,-0.00018787302827104327
1.5025746175773573,0.032340192227813126,0.026163857267767467,0.018649627815208736,0.03547075534947273,-0.0002183336779137003
1.502646134732284,0.033131945974426154,0.02399415584418518,0.017871043624403338,0.03264503081673427,0.0004233454964660411
1.5027176518872105,0.033797027787609374,0.023784768120365393,0.01799769758677829,0.031348952938823574,0.0011449888407906777
1.502789169042137,0.033871437590867574,0.0227938056901293,0.017486670760106647,0.029276123662349527,0.0016686689343655989
1.5028606861970637,0.03289397904446062,0.02002886729134689,0.015274482970942199,0.02756853469935643,0.0005180206826461489
1.5029322033519903,0.030638444170610023,0.01662337740941609,0.012011118949132128,0.0261294007437818,-0.0016868425641677006
1.5030037205069169,0.02725242384486997,0.01466383300880753,0.009441040885373031,0.02542162285999837,-0.003623163056598009
1.5030752376618435,0.023245599290448483,0.015602712423273666,0.008606550278537486,0.025141151114529872,-0.004227980769672721
1.50314675481677,0.019358366958489085,0.01820506673118677,0.008953985446160287,0.025412386752130783,-0.004048845046282178
1.5032182719716967,0.01638051368297583,0.02166817371404132,0.010426555451109277,0.025816135606021477,-0.002938621036896915
1.5032897891266233,0.01497089818834955,0.025084593199706177,0.012350463029946239,0.02650327951673165,-0.0015630817804120685
1.5033613062815498,0.015499460648454992,0.027828200214334884,0.013981854206916533,0.026456785913730754,-0.00010057166108437157
1.5034328234364764,0.01793079665045714,0.028071436231398322,0.01416864675154985,0.02441982335251167,0.0010225429556693524
1.503504340591403,0.021792554285279486,0.027335792432271612,0.013806564009865633,0.02192287562244117,0.001877223524185638
1.5035758577463296,0.026283745634476982,0.02951937239384928,0.015751292513310384,0.021933946416456296,0.0035892642278719557
1.5036473749012562,0.03053094650102892,0.03391676278099476,0.019003856556851165,0.02612735910974472,0.004489778613095072
1.5037188920561828,0.03389868374654469,0.039757578794651575,0.02304438568669538,0.033714568699348045,0.004491219466710643
1.5037904092111094,0.03619247413189749,0.0471600733513925,0.02836367437687625,0.04199133293725807,0.005300321731442557
1.503861926366036,0.03764566473947448,0.05268590139347134,0.03246316988130233,0.04948488707150554,0.005401421605371351
1.5039334435209626,0.038716510453014726,0.05509977105185733,0.03408384953452373,0.05683330589223983,0.0033774379865222615
1.5040049606758892,0.0398171228344044,0.05635899744968647,0.03557140334761458,0.0620657912108959,0.0022309453348200213
1.5040764778308158,0.041095739566223526,0.0591787738460135,0.037525773851031737,0.06652900621672911,0.001860218342098801
1.5041479949857424,0.04234364882306056,0.06191342339412712,0.038887791087543686,0.07085849310950545,0.0010274199492667085
1.504219512140669,0.043051695709888996,0.06307407427058902,0.03921573232033744,0.07436825648188684,-0.0003364657056705289
1.5042910292955955,0.04260283060723393,0.05924509872759987,0.036347749549566495,0.07533927880014325,-0.0033381496888366595
1.5043625464505221,0.04053910287302065,0.050184133562499185,0.030363706364527798,0.07235974499436197,-0.007236322472657132
1.5044340636054487,0.03679439695722014,0.03895562822698955,0.02344001313236871,0.06529137940889214,-0.010031644915742675
1.5045055807603753,0.03178229372791513,0.02909560686390361,0.01698689592080203,0.05808787429427686,-0.01234184309709333
1.504577097915302,0.026296542555493532,0.02238940818218985,0.012446934359831944,0.05133098893872293,-0.013168745720458324
1.5046486150702285,0.021278189004975218,0.020134560979041028,0.011187449324425095,0.04552247431819702,-0.01154406230772997
1.504720132225155,0.017555651134353225,0.01965103419747042,0.011283372248322305,0.0409091586127778,-0.0092861687240321
1.5047916493800817,0.01564621916050789,0.018761996476297886,0.010644076718018416,0.037509012504837104,-0.008249714652719058
1.5048631665350083,0.015656872938766518,0.01692187396663584,0.009217644422453899,0.03327226543707247,-0.00751488484481941
1.5049346836899349,0.017286051262519187,0.0156696211848324,0.008230188330603324,0.028965091624832018,-0.00635960548153785
1.5050062008448615,0.019918755698584013,0.015522983554094788,0.007905738300784866,0.025101633814577865,-0.004828118671162806
1.505077717999788,0.022804926807040774,0.01743820980821142,0.009361654152707073,0.022224252230709493,-0.0021890689745684543
1.5051492351547147,0.025289013466251117,0.0214693692659242,0.011726326065843064,0.024875495226109434,-0.0013484328419027193
1.5052207523096413,0.027015644551186973,0.025499512732524352,0.014241445734319206,0.02805872156521744,-0.0006249203906346633
1.5052922694645678,0.028012475009877,0.02754474668571177,0.015961322224474977,0.029135369055293365,0.0003875711179801429
1.5053637866194944,0.028596359216805502,0.024728666575172274,0.014919408532213189,0.027279441433223407,0.00034042292687011907
1.505435303774421,0.02915112616185344,0.01947414644609981,0.013309044659559194,0.022867814984473985,0.0009934809642355392
1.5055068209293476,0.029900153036102176,0.01585882894716682,0.012321918805932341,0.019114696105312762,0.0018870672381024515
1.5055783380842742,0.030782681811496897,0.015377034368672306,0.01250866989698158,0.017484789597951925,0.0028184562434668088
1.5056498552392008,0.03146961942071043,0.017303836227424447,0.013496870470295333,0.01901331430926836,0.002972119810251571
1.5057213723941274,0.03149161794629547,0.018149820934293376,0.013134126432083434,0.021556143981527456,0.0014559555298962424
1.505792889549054,0.030427310908792447,0.01774924865735572,0.011855838401314541,0.02445125193589961,-0.0010345035007489688
1.5058644067039806,0.02809465201809536,0.015948799951680172,0.009674998552531539,0.02552029534952894,-0.0034630193199745272
1.5059359238589072,0.024683284499830333,0.012617254256180427,0.006168765257997816,0.02541446663737532,-0.006508780651894657
1.5060074410138338,0.020766913938386953,0.010606218329990343,0.003987129865862614,0.02444135237018524,-0.007976786682310305
1.5060789581687604,0.017165658691511196,0.011705354290494744,0.004506773893992003,0.02293859744455942,-0.006811009553721399
1.506150475323687,0.014695536880755058,0.013799715539635157,0.005603202541494299,0.022559934193803068,-0.005664987228790347
1.5062219924786135,0.013907828977730352,0.01542642756540601,0.006474304461408025,0.02183993758968584,-0.00455727990163487
1.5062935096335401,0.014929925183180436,0.015702356132237253,0.007024475314287043,0.01901250575389887,-0.0027415565597198347
1.5063650267884667,0.01746107614733839,0.01466621315482184,0.006681651925523114,0.016967537514879533,-0.0020823018091973566
1.5064365439433933,0.020900617081537138,0.015908830415542835,0.008103902228742074,0.015773525745656238,-0.0002652705179581078
1.50650806109832,0.024545654709518663,0.019445503870307638,0.01119024144466396,0.014524001023865482,0.003046840497063051
1.5065795782532465,0.027795889555703463,0.02532840389985074,0.015188716512202768,0.018047870150597403,0.004919909150212801
1.506651095408173,0.030315638754338018,0.033011767260587105,0.02020329875354711,0.02375116495683223,0.0066665816618093465
1.5067226125630997,0.03210575674634778,0.04078196261746764,0.02516307524326057,0.030624155337681067,0.007816845385702438
1.5067941297180263,0.03344435853615213,0.04521409700874607,0.02809340030703321,0.03649730961901614,0.00764532649446798
1.5068656468729529,0.03469846610783441,0.0455584190200713,0.028836225363534616,0.03943127949426521,0.0069223508391031
1.5069371640278795,0.03608805388876267,0.044807312549074545,0.029158238083419115,0.040562227865948035,0.006675199432270288
1.507008681182806,0.03753193323000867,0.044754669506666726,0.029645090979329304,0.042244946503653236,0.006314295005026587
1.5070801983377327,0.038657419159163646,0.04504004285015637,0.03000532215028713,0.04365932662191148,0.005967601587681906
1.5071517154926592,0.038950459296790155,0.04424500194653022,0.029635790998015537,0.043499650322504656,0.005715862204459899
1.5072232326475858,0.03795818995272562,0.03967372203255743,0.026170643808596194,0.04284211988515088,0.00296075890417541
1.5072947498025124,0.035465807062779846,0.03380762855182646,0.02167628316777021,0.041302184468848896,-0.0002878906396578485
1.507366266957439,0.03160750390290827,0.029059068498041567,0.01779655130545853,0.03910866102183543,-0.0026841986211602197
1.5074377841123656,0.02689036393457737,0.02503369089825883,0.014369878001425985,0.03691417934351209,-0.004678681730193541
1.5075093012672922,0.022110982309926926,0.02174205719501959,0.012274203971852665,0.033716253273842235,-0.005024522138014853
1.5075808184222188,0.018158898886019043,0.01966511461160364,0.010838451012952628,0.03230303118430814,-0.0056273698374245135
1.5076523355771454,0.015750547010193554,0.018412784002858503,0.009985828883372298,0.030629790810670535,-0.0055928142363811835
1.507723852732072,0.015198153002695225,0.01585457309639162,0.008495434228764531,0.026729107567940596,-0.005073235411346004
1.5077953698869986,0.01632710132796861,0.012347556822220539,0.006411917338543193,0.021489040727688254,-0.004447277322567073
1.5078668870419252,0.01858159605132472,0.009833235505387514,0.00521914285473996,0.0159188829748918,-0.002880017443339408
1.5079384041968518,0.02125563485920751,0.008452419768672299,0.005152249488431391,0.010081597106173644,-0.00019374759196398052
1.5080099213517784,0.023737553869918368,0.008367565829450863,0.0057615299185219465,0.006695628061211946,0.001936278357056825
1.508081438506705,0.025680396681245936,0.010016460764047224,0.007453924502377228,0.0048548888254078834,0.004295547020582443
1.5081529556616315,0.027059576075294776,0.011508607196391627,0.008842952470356694,0.003934266919888991,0.0059543841842561555
1.5082244728165581,0.028112039179855254,0.010779605088008173,0.008942296206187028,0.002363036350798671,0.006780857513862311
1.5082959899714847,0.029172386947160022,0.008953561095791741,0.008780907310022895,0.0009671385702190482,0.007294772088004351
1.5083675071264113,0.03045818310099522,0.00914068893462046,0.010026451111954632,0.0005807966869673717,0.008575706886161197
1.508439024281338,0.03190386747651281,0.012721268418830983,0.012747040105629182,0.0024036058805397423,0.010119845862758431
1.5085105414362645,0.03314377564440417,0.017925835391384492,0.01600259242207933,0.006675997741298361,0.010984871739503835
1.508582058591191,0.03366149064758627,0.022269796015277458,0.0186299276568245,0.01079236503493958,0.011369269176256688
1.5086535757461177,0.03301661123576188,0.02190144082920115,0.017302793300784304,0.013139660468258122,0.009094132744694046
1.5087250929010443,0.031031763736761156,0.018248198197616864,0.013978643770450466,0.013854460034105056,0.005823292586466001
1.5087966100559709,0.02787943173947238,0.013492340642136707,0.009773118861112214,0.012777748460138492,0.0026170408875459644
1.5088681272108975,0.024071143965329337,0.008961361097466834,0.005405399448016361,0.012051034792626158,-0.0008965011643665238
1.508939644365824,0.020368522042175177,0.00551541402075503,0.002619426200917792,0.009966531301339614,-0.0023750972432390934
1.5090111615207507,0.017622660517009992,0.003862539200697719,0.001280243020763253,0.009198960170874496,-0.003196040035439673
1.5090826786756772,0.016549556574789192,0.0033589830174256315,0.001094148915450876,0.009702335116676612,-0.003597012512784511
1.5091541958306038,0.01749078347259404,0.003550080268334034,0.001728275756159572,0.009249493607011026,-0.002824387960200167
1.5092257129855304,0.02026609634215111,0.004173687000705984,0.002622344403247119,0.007201508681367649,-0.0010721947708267235
1.509297230140457,0.024225306810832306,0.007246760859059422,0.005090188490138515,0.005744547743295127,0.0017909992213736296
1.5093687472953836,0.028505184243561566,0.014316957005483709,0.010396256019729185,0.006388290632987066,0.00617149076143779
1.5094402644503102,0.032363241212534366,0.02395595592352654,0.017181792517199104,0.009880957603204718,0.010519214643774883
1.5095117816052368,0.035420479974014,0.03422595799666305,0.023785576506019895,0.015445093362353694,0.013734881192289713
1.5095832987601634,0.03772295943106026,0.041662199678520286,0.028541189697550762,0.019737988504332983,0.01591822265051552
1.50965481591509,0.039632532833370364,0.04363967103335971,0.030196375009199177,0.021780855901201206,0.016420819629686067
1.5097263330700166,0.041605230836871475,0.03940689424553922,0.028415936049993602,0.020708495624150915,0.015351568306513533
1.5097978502249432,0.04392716574129624,0.03334087876115347,0.026087173799228647,0.01584395209211402,0.01558017850370376
1.5098693673798698,0.04649881119729661,0.030037231771534095,0.025125670272120693,0.010909331418024727,0.017049743568958317
1.5099408845347964,0.048782229516577,0.0304665996357976,0.025898717163670308,0.009807688797341072,0.01824999690843028
1.510012401689723,0.04998265464348263,0.03331672815669799,0.027970420605425636,0.011035770110051295,0.019502478777429336
1.5100839188446495,0.04939582665258717,0.03379098330004178,0.02744804663090382,0.012526123489200054,0.018340975732644958
1.5101554359995761,0.046726633743720845,0.03166392792484292,0.024915387052692306,0.013307273703790383,0.015737270689397738
1.5102269531545027,0.04221494386441091,0.029200916990578904,0.022036546886626967,0.01363011924622321,0.013043329643904597
1.5102984703094293,0.0365554045951188,0.027635283165107022,0.019143160662124768,0.015190253677099887,0.009755098883520545
1.510369987464356,0.030705701566729478,0.027482087962543453,0.01712115674686206,0.017530077622851487,0.006869665892517397
1.5104415046192825,0.025671938650474672,0.028384503022718572,0.016152578444133103,0.02015181189267591,0.00478166729141527
1.510513021774209,0.02230380117340663,0.029744991582920856,0.01595046449902194,0.02300164305484083,0.0032630314034265673
1.5105845389291357,0.02110478427342222,0.028368894831192985,0.014310671393420193,0.02347732809763843,0.0015912603391235523
1.5106560560840623,0.022087028251984653,0.024086880931830236,0.011927341615445858,0.019372236892385635,0.0014175777219546744
1.5107275732389889,0.02474352062355467,0.0171584321097429,0.008315005741078718,0.012914122375385799,0.001265817282231136
1.5107990903939155,0.028206425428266402,0.012042910950869231,0.006455089330600415,0.006106406249364553,0.0028254843685771966
1.510870607548842,0.03156791810921427,0.009874628585432933,0.006924877381908108,0.0008416675548070933,0.005715710215477852
1.5109421247037687,0.034217944840168574,0.010218742983919261,0.0085255112555674,-0.0012401367176132104,0.008107245363552945
1.5110136418586952,0.036025983655989566,0.013192143138047101,0.01161661354179527,-0.0011605918404167148,0.010797901803784276
1.5110851590136218,0.03729532439305516,0.014575924216977117,0.013294021431409462,-0.00010420372628538525,0.011781659464509115
1.5111566761685484,0.03854470610167679,0.013255484303147753,0.013163190298163863,0.0012101045462967884,0.011048268322140358
1.511228193323475,0.04022460916569971,0.012195576543637319,0.013651672900344249,0.0006302759126878455,0.011752007112651142
1.5112997104784016,0.04246467581659284,0.0129606644454292,0.01442102957265151,0.0005640919663839474,0.012462158260400064
1.5113712276333282,0.04493429586497486,0.01728440081460345,0.016921655013448497,0.0026371142848435536,0.013694759674801623
1.5114427447882548,0.04689231770787431,0.022347118795502437,0.019784155718843215,0.005713584887491529,0.014775460651329364
1.5115142619431814,0.047454803887083834,0.02430315542120962,0.02007376929597759,0.008815466445429054,0.013573206220297193
