freq,gls,usurper,pdc_unbiased,shape_periodogram,shift_periodogram
1.5,0.031605246424144244,0.0314885554235428,0.022003088454338578,0.027377270995989047,0.0042439553598885155
1.5000715171549266,0.028595336453250155,0.02441118492054938,0.01679692217781675,0.02162459921123169,0.002855100003055111
1.5001430343098532,0.024797888546036324,0.018432272147831087,0.011419584810450916,0.017068547333158428,0.0006907242326155307
1.5002145514647798,0.020789812632417533,0.016572294172068937,0.008796510756732951,0.013138288483074115,0.000536913803559063
1.5002860686197064,0.017345459787468324,0.019284927659260216,0.009479677332466734,0.01156805821457691,0.0019461262562622873
1.500357585774633,0.015271945925960987,0.024043375235469632,0.011714688134418397,0.01210677726358984,0.003560518156538303
1.5004291029295596,0.015165201318802408,0.029634737543039382,0.01415548030345099,0.01550042912960441,0.0038430624566804105
1.5005006200844861,0.01716595655706576,0.03489352323490074,0.016954003693511403,0.018302270898288665,0.004742276064651721
1.5005721372394127,0.02086274426290797,0.03895999093185911,0.019187221778694714,0.021174371361138963,0.005124360597460457
1.5006436543943393,0.02544081002802935,0.042514249014299337,0.02137618975240262,0.024103527399702868,0.005439041499391858
1.500715171549266,0.03000884122307953,0.04636504302316033,0.02421994995090846,0.02579809606281353,0.006962488999160132
1.5007866887041925,0.03391266896856934,0.05083630745571134,0.02666061786266369,0.030565014689702654,0.0065221384373672945
1.500858205859119,0.0368882624749449,0.05582104555729214,0.029368029530911475,0.03662923494741379,0.005624308437668835
1.5009297230140457,0.0390355018056212,0.061245274296680204,0.03287087235373193,0.04431365406015456,0.004548472068816525
1.5010012401689723,0.04067274274449097,0.0631858807474841,0.0349635290275476,0.05033511592781322,0.0031502083498540327
1.5010727573238989,0.04213722341942038,0.06333111437368134,0.036798409825528795,0.054162275704120154,0.0026915651698589615
1.5011442744788255,0.043587855733941964,0.06324441467436719,0.03793328428010061,0.05725375617465233,0.0020251028127787
1.501215791633752,0.044880915226329254,0.06286817503510636,0.03824814004694497,0.05974715583188101,0.0009754483493286463
1.5012873087886787,0.045592465454410994,0.06389634676069586,0.03896037083855539,0.06253006923144151,0.0001113146893863657
1.5013588259436053,0.04519857422015515,0.06319979987150544,0.038338310339186395,0.062430056856282785,-0.0003663625969587863
1.5014303430985318,0.04331902735671992,0.05931080725448386,0.03525172960142179,0.06224258834516917,-0.0028992344225272724
1.5015018602534584,0.03989064242203222,0.051095100266769736,0.029380562295107576,0.05932375588590022,-0.00635858363099938
1.501573377408385,0.035207008956161204,0.04140690434059498,0.02275340008029923,0.05544419883155968,-0.009949151406002754
1.5016448945633116,0.029854908046904056,0.03260127279762928,0.01716592382272006,0.048843581439416875,-0.011211616401736768
1.5017164117182382,0.02460404968418353,0.025240643240883615,0.01272729457488559,0.04134618474187947,-0.011021590936931922
1.5017879288731648,0.020274028275387688,0.020753543472218222,0.010756457121333964,0.035030744265654806,-0.009358986657785834
1.5018594460280914,0.01756978332877583,0.01851057019240763,0.009814843547662735,0.03145135029164705,-0.008268044940527321
1.501930963183018,0.016887968997375314,0.017955165654885866,0.009773529530205848,0.02809195821582744,-0.006528589846115203
1.5020024803379446,0.018154766828972088,0.017119041976079136,0.009545857603491862,0.02498783034667713,-0.005082629948330024
1.5020739974928712,0.020807783027131654,0.017731129617973088,0.00997328939183271,0.022864159452574053,-0.0035980020051487073
1.5021455146477978,0.023992628107040868,0.020439269436258525,0.01144212206274167,0.02223665528564638,-0.002018595498177678
1.5022170318027244,0.026898257150269028,0.025225631723482064,0.014028974316248104,0.024165580096756047,-0.000838801504223157
1.502288548957651,0.029041972437567,0.030248070657033523,0.016679671046279716,0.02741875815810338,-0.00030361648269341523
1.5023600661125776,0.03036170293294545,0.035522153295334764,0.019990738498687276,0.031550024897139595,0.0003297479451216003
1.5024315832675041,0.031115659296329378,0.03626887859753455,0.02077896981185265,0.034521789343030816,-0.0005694317950549738
1.5025031004224307,0.031680428730509906,0.03324773097790491,0.019519808615351825,0.03574240251849023,-0.002284942174120631
1.5025746175773573,0.032340192227813126,0.029245936952995395,0.018649627815208736,0.03422233358106194,-0.0022219432620917846
1.502646134732284,0.033131945974426154,0.02642982427056376,0.017871043624403338,0.031440706300710684,-0.0014147481755317148
1.5027176518872105,0.033797027787609374,0.025926716073157156,0.01799769758677829,0.03028746851992722,-0.0006980338363213222
1.502789169042137,0.033871437590867574,0.02470549087273815,0.017486670760106647,0.028176910872997375,-1.795675966259462e-05
1.5028606861970637,0.03289397904446062,0.021323550283723014,0.015274482970942199,0.026123289204630157,-0.0008139516473458888
1.5029322033519903,0.030638444170610023,0.017387736551450046,0.012011118949132128,0.024473475970139633,-0.002716181630982102
1.5030037205069169,0.02725242384486997,0.015197584228392453,0.009441040885373031,0.023342701827078448,-0.004302935211283894
1.5030752376618435,0.023245599290448483,0.01660850446611825,0.008606550278537486,0.022626349249710218,-0.004633690959009361
1.50314675481677,0.019358366958489085,0.020114858684512328,0.008953985446160287,0.022205601169880344,-0.004116323368352646
1.5032182719716967,0.01638051368297583,0.024677265407850764,0.010426555451109277,0.022046943135806317,-0.0027813583425893716
1.5032897891266233,0.01497089818834955,0.029050243623563496,0.012350463029946239,0.02254996858353681,-0.0014121689005676757
1.5033613062815498,0.015499460648454992,0.03251787480023591,0.013981854206916533,0.02279331893816404,-0.00015431292313140206
1.5034328234364764,0.01793079665045714,0.0330204594931142,0.01416864675154985,0.02096052872922117,0.000972037223023201
1.503504340591403,0.021792554285279486,0.0325267652821301,0.013806564009865633,0.01871866401605687,0.0018478370105205434
1.5035758577463296,0.026283745634476982,0.03541369933283356,0.015751292513310384,0.019159843808023675,0.0032675321127483476
1.5036473749012562,0.03053094650102892,0.041090752787014344,0.019003856556851165,0.023549030188612527,0.003715046343363729
1.5037188920561828,0.03389868374654469,0.04869123932762024,0.02304438568669538,0.031112869904453253,0.003157264323011055
1.5037904092111094,0.03619247413189749,0.05790544578434805,0.02836367437687625,0.038868438965999126,0.0035872790164430614
1.503861926366036,0.03764566473947448,0.06495907160931648,0.03246316988130233,0.04622779161163716,0.0031902729830296014
1.5039334435209626,0.038716510453014726,0.06832098660557845,0.03408384953452373,0.0535073904211198,0.0007243591651791879
1.5040049606758892,0.0398171228344044,0.0699473387124083,0.03557140334761458,0.05861831462017125,-0.0007098268735369233
1.5040764778308158,0.041095739566223526,0.0734906920512241,0.037525773851031737,0.06300773180726368,-0.0013648928065823646
1.5041479949857424,0.04234364882306056,0.07695061500659837,0.038887791087543686,0.06747488436193484,-0.002566539951268234
1.504219512140669,0.043051695709888996,0.07848166658575986,0.03921573232033744,0.07142673487562011,-0.004378560836082396
1.5042910292955955,0.04260283060723393,0.07370080614209451,0.036347749549566495,0.07286124565658093,-0.007585691194471454
1.5043625464505221,0.04053910287302065,0.06237411303418644,0.030363706364527798,0.07033135587482246,-0.011348848607706548
1.5044340636054487,0.03679439695722014,0.04807920576856574,0.02344001313236871,0.06317236554804653,-0.013455495889295094
1.5045055807603753,0.03178229372791513,0.03554251215394554,0.01698689592080203,0.05580680083192436,-0.015048191994283484
1.504577097915302,0.026296542555493532,0.026922480427007,0.012446934359831944,0.04874674677897396,-0.015173530783707884
1.5046486150702285,0.021278189004975218,0.02366492613874036,0.011187449324425095,0.0426185261826193,-0.013003278942490605
1.504720132225155,0.017555651134353225,0.02262379552709515,0.011283372248322305,0.0380855139108889,-0.010525479878286184
1.5047916493800817,0.01564621916050789,0.02143631813926295,0.010644076718018416,0.03486703354757276,-0.009367993193599594
1.5048631665350083,0.015656872938766518,0.01911633379035708,0.009217644422453899,0.030741352756400844,-0.008400455711708296
1.5049346836899349,0.017286051262519187,0.017524576232033708,0.008230188330603324,0.026605871450317002,-0.0070550756605351345
1.5050062008448615,0.019918755698584013,0.01751758331794606,0.007905738300784866,0.02304555963690489,-0.005450488491052578
1.505077717999788,0.022804926807040774,0.019859533668540468,0.009361654152707073,0.020578581969505287,-0.0029108640708393296
1.5051492351547147,0.025289013466251117,0.024998520050672435,0.011726326065843064,0.02354103371677504,-0.0024658255808846018
1.5052207523096413,0.027015644551186973,0.030252015399161957,0.014241445734319206,0.02678557215224999,-0.0020416722530197393
1.5052922694645678,0.028012475009877,0.0329215053145752,0.015961322224474977,0.028061675218519593,-0.0012537190188684003
1.5053637866194944,0.028596359216805502,0.029575479204027963,0.014919408532213189,0.02657182959578975,-0.001352588648541629
1.505435303774421,0.02915112616185344,0.022788410351150108,0.013309044659559194,0.022467247892911282,-0.0005539147598918881
1.5055068209293476,0.029900153036102176,0.018041023521018447,0.012321918805932341,0.01882278155233437,0.0005313454416210538
1.5055783380842742,0.030782681811496897,0.017330425397989884,0.01250866989698158,0.017255104528443862,0.0015175927930173665
1.5056498552392008,0.03146961942071043,0.0198053014624957,0.013496870470295333,0.01892563282112043,0.0014754229734233292
1.5057213723941274,0.03149161794629547,0.02114951422340725,0.013134126432083434,0.021592291076661004,-0.0002406107805990167
1.505792889549054,0.030427310908792447,0.020638313452392743,0.011855838401314541,0.024636905972177867,-0.0029344349837820546
1.5058644067039806,0.02809465201809536,0.018367219090182307,0.009674998552531539,0.02574288712959133,-0.005371649817453915
1.5059359238589072,0.024683284499830333,0.014576079762912279,0.006168765257997816,0.02531192347690745,-0.008123116835966207
1.5060074410138338,0.020766913938386953,0.01220885138986092,0.003987129865862614,0.02370370113738927,-0.009127150501216817
1.5060789581687604,0.017165658691511196,0.01335661021926365,0.004506773893992003,0.02163052843319047,-0.007590873275918993
1.506150475323687,0.014695536880755058,0.01599400627033071,0.005603202541494299,0.021035434275575787,-0.006345195896981678
1.5062219924786135,0.013907828977730352,0.01833201900904154,0.006474304461408025,0.020391905265404336,-0.005265356828115538
1.5062935096335401,0.014929925183180436,0.018861310079463563,0.007024475314287043,0.017732807397023518,-0.0033939833921459244
1.5063650267884667,0.01746107614733839,0.017857332670473985,0.006681651925523114,0.01558712131871822,-0.002552416779744878
1.5064365439433933,0.020900617081537138,0.01962070852929667,0.008103902228742074,0.014182189933198619,-0.0006025241143526473
1.50650806109832,0.024545654709518663,0.024152209362242577,0.01119024144466396,0.01295878065185768,0.002665255934650879
1.5065795782532465,0.027795889555703463,0.03191305589965572,0.015188716512202768,0.016428354161832852,0.004231242155779666
1.506651095408173,0.030315638754338018,0.042034527680728635,0.02020329875354711,0.02202352127424347,0.0055398419173784425
1.5067226125630997,0.03210575674634778,0.052129165089628476,0.02516307524326057,0.02888077949320837,0.0061374377052420895
1.5067941297180263,0.03344435853615213,0.058024702266372415,0.02809340030703321,0.035167208100333434,0.005311581421513483
1.5068656468729529,0.03469846610783441,0.058644618685117264,0.028836225363534616,0.03845333981240513,0.004208622426578206
1.5069371640278795,0.03608805388876267,0.05759048795121874,0.029158238083419115,0.03976139429695928,0.0037919384235391602
1.507008681182806,0.03753193323000867,0.05729137027975259,0.029645090979329304,0.04179383437472406,0.003132957101499852
1.5070801983377327,0.038657419159163646,0.05736172827366146,0.03000532215028713,0.04365180819697889,0.002458252560678728
1.5071517154926592,0.038950459296790155,0.0559787335552532,0.029635790998015537,0.04407052891938239,0.001922487748752293
1.5072232326475858,0.03795818995272562,0.050035327728083306,0.026170643808596194,0.044058979770644546,-0.0010208444481824904
1.5072947498025124,0.035465807062779846,0.042470893733062724,0.02167628316777021,0.04293426190757999,-0.0042506589370831255
1.507366266957439,0.03160750390290827,0.03614052608239938,0.01779655130545853,0.040937949473777935,-0.0064955660437906815
1.5074377841123656,0.02689036393457737,0.030751579860627116,0.014369878001425985,0.03878594594717156,-0.008271896368327016
1.5075093012672922,0.022110982309926926,0.026036347001539242,0.012274203971852665,0.03526505398962001,-0.0081927909703794
1.5075808184222188,0.018158898886019043,0.022980883508137418,0.010838451012952628,0.03340153159387506,-0.008428458596485383
1.5076523355771454,0.015750547010193554,0.020982162453091237,0.009985828883372298,0.03159668534845389,-0.0081995194362988
1.507723852732072,0.015198153002695225,0.017535638415453116,0.008495434228764531,0.027778117470375473,-0.00744885469349717
1.5077953698869986,0.01632710132796861,0.012985427276224449,0.006411917338543193,0.02244869568443646,-0.00640444023428065
1.5078668870419252,0.01858159605132472,0.009682653947370626,0.00521914285473996,0.016850178626043516,-0.004461631182743254
1.5079384041968518,0.02125563485920751,0.007813674472083325,0.005152249488431391,0.010807548676544352,-0.0013284699250400024
1.5080099213517784,0.023737553869918368,0.007794326470399769,0.0057615299185219465,0.007107688562683545,0.0011420393092651474
1.508081438506705,0.025680396681245936,0.010020881515913616,0.007453924502377228,0.005052587608151724,0.0036643049853143502
1.5081529556616315,0.027059576075294776,0.012155005447610414,0.008842952470356694,0.0038394418604948285,0.005484463389801796
1.5082244728165581,0.028112039179855254,0.01154534135727917,0.008942296206187028,0.002251466027039671,0.0064069554356201925
1.5082959899714847,0.029172386947160022,0.009387555605225797,0.008780907310022895,0.0009360151852393268,0.006964144084175038
1.5083675071264113,0.03045818310099522,0.009408476024766401,0.010026451111954632,0.0004964140075826527,0.008254108456151966
1.508439024281338,0.03190386747651281,0.013724645339765014,0.012747040105629182,0.0023066586331468523,0.009609661408083729
1.5085105414362645,0.03314377564440417,0.0201159306113072,0.01600259242207933,0.006476290009212231,0.010174888954822487
1.508582058591191,0.03366149064758627,0.02537078309834624,0.0186299276568245,0.010743826357781218,0.010155278454118798
1.5086535757461177,0.03301661123576188,0.02512233620542122,0.017302793300784304,0.013191297674986304,0.007736064852785636
1.5087250929010443,0.031031763736761156,0.02066602194106935,0.013978643770450466,0.013900768523208486,0.004537124873153157
1.5087966100559709,0.02787943173947238,0.014859880366724563,0.009773118861112214,0.012772581851963482,0.0015596138781252243
1.5088681272108975,0.024071143965329337,0.009537755770484328,0.005405399448016361,0.011861411018402076,-0.0016697439924045806
1.508939644365824,0.020368522042175177,0.005387350127577252,0.002619426200917792,0.00946762838234626,-0.0027725679724095766
1.5090111615207507,0.017622660517009992,0.003448799725922349,0.001280243020763253,0.008567952851548514,-0.003435130623667729
1.5090826786756772,0.016549556574789192,0.0028239555985621234,0.001094148915450876,0.009065408887150154,-0.003855785258109982
1.5091541958306038,0.01749078347259404,0.0029580757222089854,0.001728275756159572,0.008500853985467214,-0.0030191649102667517
1.5092257129855304,0.02026609634215111,0.0037428942570280747,0.002622344403247119,0.006266020328182497,-0.0010800992133339227
1.509297230140457,0.024225306810832306,0.007632072991898284,0.005090188490138515,0.00473266210293659,0.0018254030621142378
1.5093687472953836,0.028505184243561566,0.016493707566626582,0.010396256019729185,0.005086096908945787,0.006145934203680182
1.5094402644503102,0.032363241212534366,0.028663837307715635,0.017181792517199104,0.008469301485964666,0.010125049252037905
1.5095117816052368,0.035420479974014,0.042001973009918606,0.023785576506019895,0.013725482967755828,0.012963475920060901
1.5095832987601634,0.03772295943106026,0.05185959308153743,0.028541189697550762,0.017743991757855987,0.014886308145164565
1.50965481591509,0.039632532833370364,0.05477644900185756,0.030196375009199177,0.020002012759593225,0.015102722667718787
1.5097263330700166,0.041605230836871475,0.049769306447589444,0.028415936049993602,0.019341907957082686,0.013936929435732603
1.5097978502249432,0.04392716574129624,0.04195397072818564,0.026087173799228647,0.014724147580542008,0.014392981994652958
1.5098693673798698,0.04649881119729661,0.03747932343106753,0.025125670272120693,0.010410698668865353,0.015851078960357666
1.5099408845347964,0.048782229516577,0.037635444534181994,0.025898717163670308,0.010112041910759163,0.01666561834022165
1.510012401689723,0.04998265464348263,0.040658957886557705,0.027970420605425636,0.011940729841918768,0.017461953257057874
1.5100839188446495,0.04939582665258717,0.04103817970357552,0.02744804663090382,0.013865922651123895,0.016002499735563936
1.5101554359995761,0.046726633743720845,0.03811003215277036,0.024915387052692306,0.015118406176628862,0.013188941588167276
1.5102269531545027,0.04221494386441091,0.034741070161302186,0.022036546886626967,0.015827415487548666,0.010367915550669498
1.5102984703094293,0.0365554045951188,0.032718604021875236,0.019143160662124768,0.01751707521602049,0.007017160781222432
1.510369987464356,0.030705701566729478,0.0324861880870664,0.01712115674686206,0.019734391429038208,0.004128424636946647
1.5104415046192825,0.025671938650474672,0.03359671969774614,0.016152578444133103,0.022033514110898048,0.002091613383643382
1.510513021774209,0.02230380117340663,0.03520105153476357,0.01595046449902194,0.024960688347211452,0.0003744512926566532
1.5105845389291357,0.02110478427342222,0.03353173858470777,0.014310671393420193,0.025679129634104455,-0.001398577985275667
1.5106560560840623,0.022087028251984653,0.027830211990798905,0.011927341615445858,0.021588148402101815,-0.001263887789234785
1.5107275732389889,0.02474352062355467,0.0188167667604409,0.008315005741078718,0.014835253110595211,-0.0007679334655138064
1.5107990903939155,0.028206425428266402,0.011982372490686776,0.006455089330600415,0.00762845950134842,0.0014562835084216397
1.510870607548842,0.03156791810921427,0.008804360083815879,0.006924877381908108,0.001970072795956768,0.004841890035480972
1.5109421247037687,0.034217944840168574,0.009271480613001678,0.0085255112555674,-0.0006597676267750792,0.0075894458126512
1.5110136418586952,0.036025983655989566,0.013001051376024298,0.01161661354179527,-0.001230162041635349,0.010515994179644526
1.5110851590136218,0.03729532439305516,0.015007923487758082,0.013294021431409462,-0.0007249607479918043,0.011674157068271837
1.5111566761685484,0.03854470610167679,0.01373403316915519,0.013163190298163863,0.00014157104457207477,0.011105734564037347
1.511228193323475,0.04022460916569971,0.012342191288274736,0.013651672900344249,-0.0010739389859904488,0.012162111919642737
1.5112997104784016,0.04246467581659284,0.013442525991173652,0.01442102957265151,-0.0015085384184713065,0.013044950318817748
1.5113712276333282,0.04493429586497486,0.018897951339505916,0.016921655013448497,0.000479896414321323,0.014119783006185677
1.5114427447882548,0.04689231770787431,0.025318392256152997,0.019784155718843215,0.003583312535862719,0.014914057966916059
1.5115142619431814,0.047454803887083834,0.028102032568677673,0.02007376929597759,0.00674800881840056,0.013490416870108957
