freq,gls,usurper,pdc_unbiased,shape_periodogram,shift_periodogram
1.5,0.031605246424144244,0.03512561651018323,0.022003088454338578,0.045962846498049686,-0.02144668900751455
1.5000715171549266,0.028595336453250155,0.0282906456112075,0.01679692217781675,0.039856882987981734,-0.02004925786466499
1.5001430343098532,0.024797888546036324,0.022304016823408306,0.011419584810450916,0.03465356374413831,-0.019457929277528686
1.5002145514647798,0.020789812632417533,0.019939238916902965,0.008796510756732951,0.029252282818189253,-0.016960213712553216
1.5002860686197064,0.017345459787468324,0.021903845625831884,0.009479677332466734,0.02576822164928616,-0.01383706643969879
1.500357585774633,0.015271945925960987,0.025754543726884717,0.011714688134418397,0.02381019331722806,-0.010903100917931573
1.5004291029295596,0.015165201318802408,0.03065270213053991,0.01415548030345099,0.026498117135983074,-0.011422109093525977
1.5005006200844861,0.01716595655706576,0.034951686132264424,0.016954003693511403,0.026766532019279584,-0.009846364331505859
1.5005721372394127,0.02086274426290797,0.037956751712639875,0.019187221778694714,0.024922463013304277,-0.007000736885917367
1.5006436543943393,0.02544081002802935,0.04072154219539021,0.02137618975240262,0.02327111317095826,-0.004331903519126428
1.500715171549266,0.03000884122307953,0.04413907492848735,0.02421994995090846,0.022889517139314728,-0.002225026213578167
1.5007866887041925,0.03391266896856934,0.048667407351392085,0.02666061786266369,0.02787794759337284,-0.004517226076954593
1.500858205859119,0.0368882624749449,0.0542954044538663,0.029368029530911475,0.03722808443873011,-0.010005974655030687
1.5009297230140457,0.0390355018056212,0.0610296954054773,0.03287087235373193,0.05129392938902293,-0.01863347077335734
1.5010012401689723,0.04067274274449097,0.06486927904045434,0.0349635290275476,0.06615716764116203,-0.02878966514887325
1.5010727573238989,0.04213722341942038,0.06694110308719199,0.036798409825528795,0.07818904462204383,-0.036933676186674876
1.5011442744788255,0.043587855733941964,0.06841083936030122,0.03793328428010061,0.088597012020792,-0.04427805657482071
1.501215791633752,0.044880915226329254,0.06887490844214571,0.03824814004694497,0.09539289794392407,-0.04935176026657044
1.5012873087886787,0.045592465454410994,0.07012695844679001,0.03896037083855539,0.0992071474112937,-0.05185960782608126
1.5013588259436053,0.04519857422015515,0.06970605297234662,0.038338310339186395,0.10112508042234628,-0.05374731168670339
1.5014303430985318,0.04331902735671992,0.06616433945668093,0.03525172960142179,0.10046498647050492,-0.05520487357354236
1.5015018602534584,0.03989064242203222,0.05838983811456389,0.029380562295107576,0.09645060811847647,-0.05583157746968126
1.501573377408385,0.035207008956161204,0.04917775595488556,0.02275340008029923,0.09090711474394292,-0.055751786432562025
1.5016448945633116,0.029854908046904056,0.04055745903400988,0.01716592382272006,0.08320950084051859,-0.053340749047271485
1.5017164117182382,0.02460404968418353,0.03310059595663974,0.01272729457488559,0.0747247827478798,-0.04959378567550608
1.5017879288731648,0.020274028275387688,0.028277083532818804,0.010756457121333964,0.06617626651308933,-0.0442331309622666
1.5018594460280914,0.01756978332877583,0.02551436275352808,0.009814843547662735,0.05979386290407257,-0.03989721731186643
1.501930963183018,0.016887968997375314,0.023587979536507084,0.009773529530205848,0.04984494033643779,-0.032235580475647785
1.5020024803379446,0.018154766828972088,0.02100328741741416,0.009545857603491862,0.037955561530070965,-0.02319979768597914
1.5020739974928712,0.020807783027131654,0.019734731300577922,0.00997328939183271,0.026367760221965134,-0.013985262284771604
1.5021455146477978,0.023992628107040868,0.020910059978700747,0.01144212206274167,0.019161143006901516,-0.00749051700371147
1.5022170318027244,0.026898257150269028,0.025040938857115332,0.014028974316248104,0.019307354525119582,-0.005955615916813166
1.502288548957651,0.029041972437567,0.030305446227187092,0.016679671046279716,0.025144625696615987,-0.008769841076994163
1.5023600661125776,0.03036170293294545,0.03671572965949679,0.019990738498687276,0.03627194920172606,-0.015246691072078544
1.5024315832675041,0.031115659296329378,0.03937328997215021,0.02077896981185265,0.04986651378348164,-0.025242389470137346
1.5025031004224307,0.031680428730509906,0.038404085145542916,0.019519808615351825,0.060131257149535544,-0.03397827578806027
1.5025746175773573,0.032340192227813126,0.036026535074133434,0.018649627815208736,0.0656865704684189,-0.03882907069916787
1.502646134732284,0.033131945974426154,0.033703555799440385,0.017871043624403338,0.06568964761566552,-0.03932736916231787
1.5027176518872105,0.033797027787609374,0.03293170731004449,0.01799769758677829,0.06323842009000932,-0.037350714067985534
1.502789169042137,0.033871437590867574,0.031354249968579134,0.017486670760106647,0.059883696478832474,-0.03508207363176444
1.5028606861970637,0.03289397904446062,0.02789038409464192,0.015274482970942199,0.05534095807512018,-0.03297948879644703
1.5029322033519903,0.030638444170610023,0.02399108381601576,0.012011118949132128,0.051600894584355995,-0.03216753344937866
1.5030037205069169,0.02725242384486997,0.021743312279547164,0.009441040885373031,0.048742421151143626,-0.03159561829737761
1.5030752376618435,0.023245599290448483,0.022862743243116237,0.008606550278537486,0.047896180253961744,-0.03147322504379999
1.50314675481677,0.019358366958489085,0.025866310834937456,0.008953985446160287,0.047997619129182496,-0.031330402601128446
1.5032182719716967,0.01638051368297583,0.029857775149523588,0.010426555451109277,0.048765015475384435,-0.03098566305343295
1.5032897891266233,0.01497089818834955,0.03369797739540582,0.012350463029946239,0.04936927478915021,-0.03022745336670083
1.5033613062815498,0.015499460648454992,0.03619941890815796,0.013981854206916533,0.0465328573442213,-0.026997644627291126
1.5034328234364764,0.01793079665045714,0.03543695800550821,0.01416864675154985,0.038948479763389644,-0.021022251997822233
1.503504340591403,0.021792554285279486,0.03312374086355013,0.013806564009865633,0.02742056040876906,-0.012356067911658065
1.5035758577463296,0.026283745634476982,0.034133356063421695,0.015751292513310384,0.01838927812520491,-0.004150360419284504
1.5036473749012562,0.03053094650102892,0.03859217287524287,0.019003856556851165,0.017109942164643756,-0.0010914656212034051
1.5037188920561828,0.03389868374654469,0.04600048769360789,0.02304438568669538,0.024580951784976126,-0.004279093958517628
1.5037904092111094,0.03619247413189749,0.056391714538447435,0.02836367437687625,0.04100050351497116,-0.013558896899137616
1.503861926366036,0.03764566473947448,0.06557293080694607,0.03246316988130233,0.06210894003762099,-0.02725415299532635
1.5039334435209626,0.038716510453014726,0.07143430422919111,0.03408384953452373,0.08242075557676949,-0.04194637198541124
1.5040049606758892,0.0398171228344044,0.0752291197121181,0.03557140334761458,0.0984332206092107,-0.05342224831946451
1.5040764778308158,0.041095739566223526,0.07974509808128297,0.037525773851031737,0.10887116908012938,-0.0602898285591858
1.5041479949857424,0.04234364882306056,0.08309985473837232,0.038887791087543686,0.1128556952638592,-0.06252168531971232
1.504219512140669,0.043051695709888996,0.08394707762332133,0.03921573232033744,0.11180148696006773,-0.06149150989990689
1.5042910292955955,0.04260283060723393,0.0789306269664576,0.036347749549566495,0.10686069038426568,-0.059477685127405526
1.5043625464505221,0.04053910287302065,0.06797755537407245,0.030363706364527798,0.09815518952108716,-0.05652855016439704
1.5044340636054487,0.03679439695722014,0.05450655912958169,0.02344001313236871,0.08738793090366963,-0.052584851755586276
1.5045055807603753,0.03178229372791513,0.042779501072369296,0.01698689592080203,0.0787651706855067,-0.05001147135067792
1.504577097915302,0.026296542555493532,0.034497404964162245,0.012446934359831944,0.07094705841347353,-0.04684829501860151
1.5046486150702285,0.021278189004975218,0.0313847549281592,0.011187449324425095,0.06615166052969089,-0.04393983001235803
1.504720132225155,0.017555651134353225,0.030272429865877724,0.011283372248322305,0.06284182472942537,-0.041319085264790736
1.5047916493800817,0.01564621916050789,0.028649519393773328,0.010644076718018416,0.05917964670652587,-0.038894644177416754
1.5048631665350083,0.015656872938766518,0.02529352142077694,0.009217644422453899,0.050847030054051584,-0.033363547741514975
1.5049346836899349,0.017286051262519187,0.02194814060904729,0.008230188330603324,0.03845442030862077,-0.024422578128811337
1.5050062008448615,0.019918755698584013,0.019925774155583754,0.007905738300784866,0.02612472783983101,-0.015114392196184103
1.505077717999788,0.022804926807040774,0.02034455434326181,0.009361654152707073,0.015596772008098942,-0.006066364825831103
1.5051492351547147,0.025289013466251117,0.024235777203612276,0.011726326065843064,0.013803762337764914,-0.0031775644972210806
1.5052207523096413,0.027015644551186973,0.029435862910058477,0.014241445734319206,0.020411019915984607,-0.006671566368369121
1.5052922694645678,0.028012475009877,0.03319762214095047,0.015961322224474977,0.030741290646116394,-0.013545723626724232
1.5053637866194944,0.028596359216805502,0.03217709212578733,0.014919408532213189,0.04225814785107162,-0.023099335164671542
1.505435303774421,0.02915112616185344,0.028182020518431963,0.013309044659559194,0.05205565099845439,-0.031692433558887304
1.5055068209293476,0.029900153036102176,0.02518262093494181,0.012321918805932341,0.058080330265752544,-0.03697683556799338
1.5055783380842742,0.030782681811496897,0.024855668086255514,0.01250866989698158,0.059706512276449596,-0.03811502532121756
1.5056498552392008,0.03146961942071043,0.02671252261850235,0.013496870470295333,0.05926590883945516,-0.03714526970166564
1.5057213723941274,0.03149161794629547,0.027293485324724344,0.013134126432083434,0.057529484024910094,-0.03603395183307682
1.505792889549054,0.030427310908792447,0.02615399517281148,0.011855838401314541,0.052980660298875756,-0.03333244943147644
1.5058644067039806,0.02809465201809536,0.023363598047491038,0.009674998552531539,0.0463630494579369,-0.02960897315654301
1.5059359238589072,0.024683284499830333,0.019284488328406672,0.006168765257997816,0.040840351661499075,-0.02757675162720459
1.5060074410138338,0.020766913938386953,0.01671352072999109,0.003987129865862614,0.03633573484569468,-0.02548839614068731
1.5060789581687604,0.017165658691511196,0.017691223197557934,0.004506773893992003,0.03392676361810635,-0.02329849957473096
1.506150475323687,0.014695536880755058,0.020023876238812376,0.005603202541494299,0.03334970677805422,-0.02215519082325234
1.5062219924786135,0.013907828977730352,0.021886410342344478,0.006474304461408025,0.03266087152592329,-0.02106903469150861
1.5062935096335401,0.014929925183180436,0.02160445581327808,0.007024475314287043,0.028168495399683947,-0.01725234805572133
1.5063650267884667,0.01746107614733839,0.019218963990322274,0.006681651925523114,0.01937917621177528,-0.010690309052636881
1.5064365439433933,0.020900617081537138,0.019264658463986763,0.008103902228742074,0.010697632512784475,-0.003089088090248474
1.50650806109832,0.024545654709518663,0.02217525304844868,0.01119024144466396,0.004475201272660032,0.003674597281252744
1.5065795782532465,0.027795889555703463,0.028888865689935612,0.015188716512202768,0.006531175518021686,0.004635820892951053
1.506651095408173,0.030315638754338018,0.03856204390007967,0.02020329875354711,0.014962683310092767,0.001328735335150538
1.5067226125630997,0.03210575674634778,0.049048413421485984,0.02516307524326057,0.02865199140728892,-0.0060692284708532595
1.5067941297180263,0.03344435853615213,0.05629583589224444,0.02809340030703321,0.04432669917663539,-0.016299724199041205
1.5068656468729529,0.03469846610783441,0.058800136639782716,0.028836225363534616,0.057313875165021705,-0.02586062053455907
1.5069371640278795,0.03608805388876267,0.05929970877463428,0.029158238083419115,0.06592863984070411,-0.03231777236583742
1.507008681182806,0.03753193323000867,0.059826372838975066,0.029645090979329304,0.07057063644527768,-0.03559960748792418
1.5070801983377327,0.038657419159163646,0.05966417344522327,0.03000532215028713,0.06881440173613051,-0.034010450883589165
1.5071517154926592,0.038950459296790155,0.05807597121405668,0.029635790998015537,0.06496787691059208,-0.03126980469568197
1.5072232326475858,0.03795818995272562,0.0521860473205635,0.026170643808596194,0.05860857966300791,-0.028561695182523456
1.5072947498025124,0.035465807062779846,0.0446597863104084,0.02167628316777021,0.04977891897661639,-0.02460282000275511
1.507366266957439,0.03160750390290827,0.03838815275971006,0.01779655130545853,0.04177466858536421,-0.02089307887436478
1.5074377841123656,0.02689036393457737,0.03306903959233412,0.014369878001425985,0.03566921558848596,-0.018362725007250523
1.5075093012672922,0.022110982309926926,0.028809353556893222,0.012274203971852665,0.031945877355827976,-0.016823970333897646
1.5075808184222188,0.018158898886019043,0.026248850866717577,0.010838451012952628,0.03125411374960447,-0.017204549263665013
1.5076523355771454,0.015750547010193554,0.024628198385555022,0.009985828883372298,0.031231570676832385,-0.017730133868608763
1.507723852732072,0.015198153002695225,0.021170786895538356,0.008495434228764531,0.02800358121470268,-0.016188468289615832
1.5077953698869986,0.01632710132796861,0.016004280396972506,0.006411917338543193,0.01978436289632191,-0.011174596224832033
1.5078668870419252,0.01858159605132472,0.011661763771762602,0.00521914285473996,0.010320262477617425,-0.00463502042200732
1.5079384041968518,0.02125563485920751,0.008711408378673657,0.005152249488431391,0.001318466147926885,0.0022638729351293764
1.5080099213517784,0.023737553869918368,0.00803412061571968,0.0057615299185219465,-0.0026157575954636404,0.005685442062583708
1.508081438506705,0.025680396681245936,0.010119097024360615,0.007453924502377228,-0.0010375479843969652,0.005546113685840713
1.5081529556616315,0.027059576075294776,0.012811802084014785,0.008842952470356694,0.005488580627711078,0.0013984120406393004
1.5082244728165581,0.028112039179855254,0.013436442450711425,0.008942296206187028,0.01366081789833482,-0.004840361629358132
1.5082959899714847,0.029172386947160022,0.012696376748087745,0.008780907310022895,0.021252272451391174,-0.010798324373560075
1.5083675071264113,0.03045818310099522,0.013668513166007491,0.010026451111954632,0.027967077111186164,-0.015185337472209794
1.508439024281338,0.03190386747651281,0.01806375192716324,0.012747040105629182,0.03388486214908036,-0.01801920837785633
1.5085105414362645,0.03314377564440417,0.023882890681064403,0.01600259242207933,0.03745769956614921,-0.018703161660571656
1.508582058591191,0.03366149064758627,0.028625064810452197,0.0186299276568245,0.03957619294563387,-0.01866463905757686
1.5086535757461177,0.03301661123576188,0.02823593355881984,0.017302793300784304,0.039067590501167336,-0.019117598047994684
1.5087250929010443,0.031031763736761156,0.023925467135449012,0.013978643770450466,0.035005210809971744,-0.01809942793961223
1.5087966100559709,0.02787943173947238,0.01820138511535873,0.009773118861112214,0.02816372206897745,-0.015498391727378845
1.5088681272108975,0.024071143965329337,0.012855884620896568,0.005405399448016361,0.022102648163248792,-0.013603699869569245
1.508939644365824,0.020368522042175177,0.008825844905497976,0.002619426200917792,0.017552433507457645,-0.011867862598069627
1.5090111615207507,0.017622660517009992,0.006941970659573327,0.001280243020763253,0.015401904380124952,-0.011061910562744375
1.5090826786756772,0.016549556574789192,0.006400233547085408,0.001094148915450876,0.014944480833379226,-0.010827618746238235
1.5091541958306038,0.01749078347259404,0.00619898705261551,0.001728275756159572,0.012484885928624548,-0.008527044911053471
1.5092257129855304,0.02026609634215111,0.006187629695428765,0.002622344403247119,0.007811235497011271,-0.004353656436492702
1.509297230140457,0.024225306810832306,0.008678135651137817,0.005090188490138515,0.0022182312998542085,0.001530552382843159
1.5093687472953836,0.028505184243561566,0.015862130996690753,0.010396256019729185,-0.0004540301971209943,0.006969722646624103
1.5094402644503102,0.032363241212534366,0.026557675228557363,0.017181792517199104,0.002098124357168943,0.009323233756548055
1.5095117816052368,0.035420479974014,0.03893887378001713,0.023785576506019895,0.009987338541320659,0.007447787969880181
1.5095832987601634,0.03772295943106026,0.04870624051279384,0.028541189697550762,0.019946827244543875,0.0027994784665754087
1.50965481591509,0.039632532833370364,0.05252378020323838,0.030196375009199177,0.029507438402685188,-0.003519531494039245
1.5097263330700166,0.041605230836871475,0.04909769753647078,0.028415936049993602,0.03560802156493625,-0.009362804565612884
1.5097978502249432,0.04392716574129624,0.04265658651935428,0.026087173799228647,0.03569506970482584,-0.01091511334237445
1.5098693673798698,0.04649881119729661,0.038497269362199674,0.025125670272120693,0.03197266794209593,-0.008655365192408991
1.5099408845347964,0.048782229516577,0.03807695193334241,0.025898717163670308,0.027783575526945773,-0.004930204434888722
1.510012401689723,0.04998265464348263,0.04026760112502871,0.027970420605425636,0.024242362648058353,-0.000877468243141681
1.5100839188446495,0.04939582665258717,0.040245594332430884,0.02744804663090382,0.021081438224091257,0.0012274673097381387
1.5101554359995761,0.046726633743720845,0.03755014561552633,0.024915387052692306,0.017815697282319798,0.0021315070065115846
1.5102269531545027,0.04221494386441091,0.034478710825993845,0.022036546886626967,0.013839119431460753,0.0033633066538073923
1.5102984703094293,0.0365554045951188,0.03287385661715522,0.019143160662124768,0.013552576841521977,0.0017406836665481912
1.510369987464356,0.030705701566729478,0.03298837435660961,0.01712115674686206,0.015076124352288656,-0.0007224362347236925
1.5104415046192825,0.025671938650474672,0.03450263644677791,0.016152578444133103,0.018806322718119314,-0.004216384551306716
1.510513021774209,0.02230380117340663,0.0364142849300255,0.01595046449902194,0.023041127945845157,-0.007611677302717219
1.5105845389291357,0.02110478427342222,0.03471851169295883,0.014310671393420193,0.02311211914373443,-0.008711051255804875
1.5106560560840623,0.022087028251984653,0.029003333115676568,0.011927341615445858,0.017556712539021236,-0.005943976374020839
1.5107275732389889,0.02474352062355467,0.019914765074971547,0.008315005741078718,0.008189282108362386,-0.0010203424438582946
1.5107990903939155,0.028206425428266402,0.012873687009262735,0.006455089330600415,-0.00027920012543193926,0.004325375487880146
1.510870607548842,0.03156791810921427,0.009663816927055006,0.006924877381908108,-0.004202830946633429,0.00764991516419767
1.5109421247037687,0.034217944840168574,0.010483274581142467,0.0085255112555674,-0.00038789943939359305,0.0057275164202857665
1.5110136418586952,0.036025983655989566,0.015004294048144391,0.01161661354179527,0.009208300701060733,0.0002964299539253717
1.5110851590136218,0.03729532439305516,0.01828060756923069,0.013294021431409462,0.021382172470136532,-0.008024166758120748
1.5111566761685484,0.03854470610167679,0.01876479455167136,0.013163190298163863,0.03387101495977541,-0.017743461425689548
1.511228193323475,0.04022460916569971,0.01875063970170542,0.013651672900344249,0.041791657396364534,-0.023546627388952225
1.5112997104784016,0.04246467581659284,0.019973319053128432,0.01442102957265151,0.045054774894523884,-0.02557638064507579
1.5113712276333282,0.04493429586497486,0.024425691714546657,0.016921655013448497,0.04528376044121217,-0.024160309054623998
1.5114427447882548,0.04689231770787431,0.029264732835823155,0.019784155718843215,0.04272027764098374,-0.02035672244313543
1.5115142619431814,0.047454803887083834,0.030783666307324768,0.02007376929597759,0.03881171853227904,-0.01715435171102418
