freq,gls,usurper,pdc_unbiased,shape_periodogram,shift_periodogram
1.5,0.031605246424144244,0.02921946964362251,0.022003088454338578,0.02580769957890354,0.0017677322657849279
1.5000715171549266,0.028595336453250155,0.022422948153159525,0.01679692217781675,0.02008493126429824,0.001114527276310462
1.5001430343098532,0.024797888546036324,0.016509133900937542,0.011419584810450916,0.015751255253498922,-0.0005184578380401319
1.5002145514647798,0.020789812632417533,0.014386972139755802,0.008796510756732951,0.012047993846489961,-0.00034769478165175223
1.5002860686197064,0.017345459787468324,0.01656361322037569,0.009479677332466734,0.010481299925569234,0.001147770267512192
1.500357585774633,0.015271945925960987,0.02068798637744916,0.011714688134418397,0.010980628174237754,0.0026182419768101695
1.5004291029295596,0.015165201318802408,0.0256430036695581,0.01415548030345099,0.014211058546024623,0.0025907660781708357
1.5005006200844861,0.01716595655706576,0.03050991350465359,0.016954003693511403,0.016846413989460438,0.0032096279195050533
1.5005721372394127,0.02086274426290797,0.03440162110719765,0.019187221778694714,0.01990165991821664,0.003124423919186141
1.5006436543943393,0.02544081002802935,0.03783959991415144,0.02137618975240262,0.023320534558209698,0.0027830672554572016
1.500715171549266,0.03000884122307953,0.04161169273072217,0.02421994995090846,0.025697592668091487,0.003596154779514454
1.5007866887041925,0.03391266896856934,0.04573572446865483,0.02666061786266369,0.03099508123342156,0.0023123110677341933
1.500858205859119,0.0368882624749449,0.05034955836298558,0.029368029530911475,0.03715128088023514,0.0007178739688278672
1.5009297230140457,0.0390355018056212,0.055413825691950164,0.03287087235373193,0.04483202732810329,-0.0011722692234683
1.5010012401689723,0.04067274274449097,0.057411026156178435,0.0349635290275476,0.050743095368436665,-0.0031073540102358834
1.5010727573238989,0.04213722341942038,0.05791578120244934,0.036798409825528795,0.054529868454358685,-0.003953812347047768
1.5011442744788255,0.043587855733941964,0.05813640763394184,0.03793328428010061,0.05792491565389229,-0.005119275179306827
1.501215791633752,0.044880915226329254,0.05798192314458054,0.03824814004694497,0.06088605606299866,-0.006673964107291293
1.5012873087886787,0.045592465454410994,0.058961779750394544,0.03896037083855539,0.06363006583401423,-0.007780048584014812
1.5013588259436053,0.04519857422015515,0.05825156331239536,0.038338310339186395,0.06344357800690884,-0.008162055860340807
1.5014303430985318,0.04331902735671992,0.05435049979921925,0.03525172960142179,0.06319912399854366,-0.01047223315262045
1.5015018602534584,0.03989064242203222,0.04637616881768248,0.029380562295107576,0.06009401406167498,-0.013252735473933124
1.501573377408385,0.035207008956161204,0.03720029202214401,0.02275340008029923,0.05629472699756456,-0.016207364474448607
1.5016448945633116,0.029854908046904056,0.02893310232684812,0.01716592382272006,0.04989923431878967,-0.016748849376881904
1.5017164117182382,0.02460404968418353,0.022014899516589664,0.01272729457488559,0.042291362886312966,-0.015638119716231132
1.5017879288731648,0.020274028275387688,0.01794899256534504,0.010756457121333964,0.03587841974581781,-0.013296603072180476
1.5018594460280914,0.01756978332877583,0.015972130641006294,0.009814843547662735,0.03218818161530159,-0.011796987137402688
1.501930963183018,0.016887968997375314,0.015642073224528468,0.009773529530205848,0.028724702107418586,-0.00972102247996577
1.5020024803379446,0.018154766828972088,0.015093675640509485,0.009545857603491862,0.02559791573640626,-0.007998365983168738
1.5020739974928712,0.020807783027131654,0.015789119523393326,0.00997328939183271,0.023680088320811175,-0.006491681322818319
1.5021455146477978,0.023992628107040868,0.01820050548182004,0.01144212206274167,0.02313850262977709,-0.004995833526005964
1.5022170318027244,0.026898257150269028,0.02241048003063283,0.014028974316248104,0.025160005720406064,-0.0041720313614673245
1.502288548957651,0.029041972437567,0.02685936099536651,0.016679671046279716,0.027991723193170247,-0.0037903741546358497
1.5023600661125776,0.03036170293294545,0.031696214646748266,0.019990738498687276,0.03178518006785888,-0.0034691971777889513
1.5024315832675041,0.031115659296329378,0.032414206727760096,0.02077896981185265,0.03417879671705097,-0.004300119134984225
1.5025031004224307,0.031680428730509906,0.029778563105251687,0.019519808615351825,0.03489679659613944,-0.0057378074389445675
1.5025746175773573,0.032340192227813126,0.026497787476805448,0.018649627815208736,0.033215065256924546,-0.005405234885858183
1.502646134732284,0.033131945974426154,0.02428621604406435,0.017871043624403338,0.03063901621068429,-0.0044554767322451784
1.5027176518872105,0.033797027787609374,0.024005658785709396,0.01799769758677829,0.029432684071538807,-0.003620528490012491
1.502789169042137,0.033871437590867574,0.022925861023214967,0.017486670760106647,0.027204284871304735,-0.002670085111529981
1.5028606861970637,0.03289397904446062,0.019669347696327118,0.015274482970942199,0.02519744932938361,-0.0032056902256957028
1.5029322033519903,0.030638444170610023,0.015685474992377678,0.012011118949132128,0.023523111287955138,-0.004778116893001791
1.5030037205069169,0.02725242384486997,0.013309861833166212,0.009441040885373031,0.022709325481852307,-0.006323422947968682
1.5030752376618435,0.023245599290448483,0.01417031194248545,0.008606550278537486,0.022373591429187083,-0.006781603543133815
1.50314675481677,0.019358366958489085,0.016886472262774115,0.008953985446160287,0.022245225578404786,-0.006427648388421471
1.5032182719716967,0.01638051368297583,0.020686299751208337,0.010426555451109277,0.02221314694961337,-0.005239001886863632
1.5032897891266233,0.01497089818834955,0.024589148659917563,0.012350463029946239,0.022818718890924048,-0.0040799723740330435
1.5033613062815498,0.015499460648454992,0.027908054811215773,0.013981854206916533,0.023220521409597263,-0.003029067035578206
1.5034328234364764,0.01793079665045714,0.028649889670843035,0.01416864675154985,0.021661175328868423,-0.0019317856852390446
1.503504340591403,0.021792554285279486,0.028434685724212105,0.013806564009865633,0.019865134797713832,-0.0011263879420026829
1.5035758577463296,0.026283745634476982,0.03127394574777436,0.015751292513310384,0.020442543471971903,6.655144145817233e-05
1.5036473749012562,0.03053094650102892,0.036536154466022895,0.019003856556851165,0.024868903338391722,-4.364184463361459e-05
1.5037188920561828,0.03389868374654469,0.04343271421762715,0.02304438568669538,0.03225498805276169,-0.0013287001777631206
1.5037904092111094,0.03619247413189749,0.051873610526487764,0.02836367437687625,0.03985379445672021,-0.0017261933758250163
1.503861926366036,0.03764566473947448,0.05826340649797215,0.03246316988130233,0.046902869189093636,-0.002758017821253563
1.5039334435209626,0.038716510453014726,0.06112053403752333,0.03408384953452373,0.053944134839338555,-0.005758439842324284
1.5040049606758892,0.0398171228344044,0.06257598581752391,0.03557140334761458,0.058860712448679534,-0.007571303386420192
1.5040764778308158,0.041095739566223526,0.06579241772655196,0.037525773851031737,0.06307196434790241,-0.00858286225209201
1.5041479949857424,0.04234364882306056,0.06880127637919238,0.038887791087543686,0.06736785207914733,-0.010118617632434513
1.504219512140669,0.043051695709888996,0.06997951327150578,0.03921573232033744,0.07094716662811089,-0.012042236397782402
1.5042910292955955,0.04260283060723393,0.06543900160881237,0.036347749549566495,0.07235013710761373,-0.015185419977194754
1.5043625464505221,0.04053910287302065,0.05498842969146874,0.030363706364527798,0.06961200605824586,-0.018280209857902914
1.5044340636054487,0.03679439695722014,0.0421160202008036,0.02344001313236871,0.06250920524917684,-0.019453376337215184
1.5045055807603753,0.03178229372791513,0.030904262056000466,0.01698689592080203,0.05540861870227327,-0.020251096472590675
1.504577097915302,0.026296542555493532,0.023127749447909303,0.012446934359831944,0.048614996273436226,-0.019715090369025457
1.5046486150702285,0.021278189004975218,0.02020731373092649,0.011187449324425095,0.042588959983512815,-0.017042459305665288
1.504720132225155,0.017555651134353225,0.019351953781025076,0.011283372248322305,0.03807599210791022,-0.014216719487099074
1.5047916493800817,0.01564621916050789,0.018334416199993455,0.010644076718018416,0.03494444140305502,-0.012817011889814588
1.5048631665350083,0.015656872938766518,0.016276798570923113,0.009217644422453899,0.031014572677438786,-0.011556555475405668
1.5049346836899349,0.017286051262519187,0.014930769906657832,0.008230188330603324,0.027358350232978043,-0.010114562020070059
1.5050062008448615,0.019918755698584013,0.01485249805317566,0.007905738300784866,0.024124295355671278,-0.00840352506158173
1.505077717999788,0.022804926807040774,0.017004551502947263,0.009361654152707073,0.02186840695332178,-0.005874661619204903
1.5051492351547147,0.025289013466251117,0.02159776214188482,0.011726326065843064,0.02473014172163256,-0.005738889077190328
1.5052207523096413,0.027015644551186973,0.026440901634088337,0.014241445734319206,0.02747585228016963,-0.005412881804712962
1.5052922694645678,0.028012475009877,0.029046310540579653,0.015961322224474977,0.02819830835006574,-0.004486689121213181
1.5053637866194944,0.028596359216805502,0.0261220374139361,0.014919408532213189,0.026157935883376577,-0.004072270626202425
1.505435303774421,0.02915112616185344,0.020328718084816243,0.013309044659559194,0.021632548919243128,-0.0025969506380843143
1.5055068209293476,0.029900153036102176,0.01639585456446265,0.012321918805932341,0.017881266922942507,-0.0010980641287559431
1.5055783380842742,0.030782681811496897,0.015916064566464695,0.01250866989698158,0.016271781399843144,2.9502634367974965e-05
1.5056498552392008,0.03146961942071043,0.018000800546922005,0.013496870470295333,0.01773634457633556,-7.698433685005509e-05
1.5057213723941274,0.03149161794629547,0.01879444302562725,0.013134126432083434,0.020308037350077097,-0.0019298384141407338
1.505792889549054,0.030427310908792447,0.017848868896050384,0.011855838401314541,0.023251677275437296,-0.004736216198228379
1.5058644067039806,0.02809465201809536,0.015470010311412586,0.009674998552531539,0.02463304910390229,-0.007308534700326119
1.5059359238589072,0.024683284499830333,0.011687880614413964,0.006168765257997816,0.02455499846310877,-0.010044597803948504
1.5060074410138338,0.020766913938386953,0.009349936092779055,0.003987129865862614,0.023441656343119312,-0.011098695784814497
1.5060789581687604,0.017165658691511196,0.010412542413281376,0.004506773893992003,0.021700736631706477,-0.009626621150511265
1.506150475323687,0.014695536880755058,0.012800045741246881,0.005603202541494299,0.021337043453496674,-0.008534946422557798
1.5062219924786135,0.013907828977730352,0.014997104199414931,0.006474304461408025,0.020807255839991406,-0.007521029522549501
1.5062935096335401,0.014929925183180436,0.015793367989289698,0.007024475314287043,0.01813012820634482,-0.005455108350208524
1.5063650267884667,0.01746107614733839,0.015231358723938382,0.006681651925523114,0.016416767163169615,-0.00468465079289753
1.5064365439433933,0.020900617081537138,0.0171511648421558,0.008103902228742074,0.015645943257565267,-0.0030866156479499216
1.50650806109832,0.024545654709518663,0.021521786762074883,0.01119024144466396,0.014775828521543171,-0.00010705837469465774
1.5065795782532465,0.027795889555703463,0.028587411149992026,0.015188716512202768,0.018439941195458005,0.0008383111566390276
1.506651095408173,0.030315638754338018,0.03770541394029137,0.02020329875354711,0.02379029396137921,0.0015654944593975087
1.5067226125630997,0.03210575674634778,0.046753580518493765,0.02516307524326057,0.030084632331593163,0.0016760893516495291
1.5067941297180263,0.03344435853615213,0.05187376708830646,0.02809340030703321,0.03534098444124419,0.0008062970235948881
1.5068656468729529,0.03469846610783441,0.052346285433293824,0.028836225363534616,0.03777804016573697,-8.658614248668433e-05
1.5069371640278795,0.03608805388876267,0.051471793189846196,0.029158238083419115,0.03871461948456708,-0.00040070231910833385
1.507008681182806,0.03753193323000867,0.05130180934736381,0.029645090979329304,0.04062146960381371,-0.0011745084664938731
1.5070801983377327,0.038657419159163646,0.051417110168294325,0.03000532215028713,0.04221926797340178,-0.001860936274776678
1.5071517154926592,0.038950459296790155,0.050170143647683095,0.029635790998015537,0.042259374292818244,-0.0021792968143649143
1.5072232326475858,0.03795818995272562,0.044547604145731945,0.026170643808596194,0.041915024284790325,-0.004725359003785977
1.5072947498025124,0.035465807062779846,0.037497106536655604,0.02167628316777021,0.04069074618199854,-0.007552602198011186
1.507366266957439,0.03160750390290827,0.031638511681627235,0.01779655130545853,0.038888568100401776,-0.009538001831539526
1.5074377841123656,0.02689036393457737,0.0266220796903399,0.014369878001425985,0.03721685062774329,-0.011241999330975184
1.5075093012672922,0.022110982309926926,0.022270812007526685,0.012274203971852665,0.03403848858849456,-0.01097076178364685
1.5075808184222188,0.018158898886019043,0.019318664038094558,0.010838451012952628,0.03238566879732688,-0.011104444301996155
1.5076523355771454,0.015750547010193554,0.017533873535160355,0.009985828883372298,0.030679874610674337,-0.01074282357165359
1.507723852732072,0.015198153002695225,0.014607899804198004,0.008495434228764531,0.02687562614714473,-0.009610115365999502
1.5077953698869986,0.01632710132796861,0.010797365008235848,0.006411917338543193,0.02181471596129122,-0.00818369661751997
1.5078668870419252,0.01858159605132472,0.008245424335356103,0.00521914285473996,0.016800797889487556,-0.006079249237904287
1.5079384041968518,0.02125563485920751,0.0069821428502058165,0.005152249488431391,0.011446497846738965,-0.0028744677622368395
1.5080099213517784,0.023737553869918368,0.007308860120334482,0.0057615299185219465,0.008360793056826979,-0.0005135238810639433
1.508081438506705,0.025680396681245936,0.00966173962221696,0.007453924502377228,0.0064057571284039565,0.002019168853186586
1.5081529556616315,0.027059576075294776,0.011797101392570035,0.008842952470356694,0.005090364381969237,0.003921910493164254
1.5082244728165581,0.028112039179855254,0.011252337840563134,0.008942296206187028,0.0031692593508110974,0.005169412195007595
1.5082959899714847,0.029172386947160022,0.009295441832535606,0.008780907310022895,0.001500202982056092,0.006056622707690292
1.5083675071264113,0.03045818310099522,0.009457159542857403,0.010026451111954632,0.0007290600847370471,0.007514321697278276
1.508439024281338,0.03190386747651281,0.013423545568422417,0.012747040105629182,0.0023637431285780117,0.008679426784492062
1.5085105414362645,0.03314377564440417,0.01910081978792674,0.01600259242207933,0.006429161458949361,0.008790988509519669
1.508582058591191,0.03366149064758627,0.023691374907458436,0.0186299276568245,0.010575894760881041,0.008354811745793113
1.5086535757461177,0.03301661123576188,0.022984896318157345,0.017302793300784304,0.013004656191859969,0.005823672673163803
1.5087250929010443,0.031031763736761156,0.01857828770175386,0.013978643770450466,0.013692368336753824,0.002765917797891346
1.5087966100559709,0.02787943173947238,0.013118742970664196,0.009773118861112214,0.012779507784056487,-1.7488393011160253e-05
1.5088681272108975,0.024071143965329337,0.008069987811020921,0.005405399448016361,0.0123147096363107,-0.0032017720550835543
1.508939644365824,0.020368522042175177,0.004159805363512267,0.002619426200917792,0.010185055913360096,-0.004117331803697211
1.5090111615207507,0.017622660517009992,0.002254877688227622,0.001280243020763253,0.009439506802456294,-0.004726624827899926
1.5090826786756772,0.016549556574789192,0.0017213879874873482,0.001094148915450876,0.010026451307789662,-0.005231424924248359
1.5091541958306038,0.01749078347259404,0.00213315716224919,0.001728275756159572,0.009456180496286683,-0.0043811746067172
1.5092257129855304,0.02026609634215111,0.0032463599543363472,0.002622344403247119,0.007378635054624023,-0.002407600598740988
1.509297230140457,0.024225306810832306,0.0071983402056863405,0.005090188490138515,0.006307341779953029,0.0002028768795469646
1.5093687472953836,0.028505184243561566,0.015544729301906755,0.010396256019729185,0.00731725878418588,0.003800202313907595
1.5094402644503102,0.032363241212534366,0.02670679420833756,0.017181792517199104,0.011046244745399723,0.00691886416899731
1.5095117816052368,0.035420479974014,0.03872305561949673,0.023785576506019895,0.016169602394087677,0.009047140219957485
1.5095832987601634,0.03772295943106026,0.04759350095331633,0.028541189697550762,0.019821447235548646,0.010604463648313805
1.50965481591509,0.039632532833370364,0.050156146448556135,0.030196375009199177,0.02154078945800342,0.010874256412987188
1.5097263330700166,0.041605230836871475,0.04553289810706386,0.028415936049993602,0.020205780985747903,0.010271190334283904
1.5097978502249432,0.04392716574129624,0.03874769651558867,0.026087173799228647,0.015128894132542179,0.01150840775877779
1.5098693673798698,0.04649881119729661,0.03501762501813444,0.025125670272120693,0.010460897426205016,0.013583268983106035
1.5099408845347964,0.048782229516577,0.03541514811371528,0.025898717163670308,0.00953255342173256,0.014761743041476896
1.510012401689723,0.04998265464348263,0.03832277116611594,0.027970420605425636,0.010703837054417608,0.01569512582185842
1.5100839188446495,0.04939582665258717,0.038344061393227484,0.02744804663090382,0.012261895763392016,0.014332846702967928
1.5101554359995761,0.046726633743720845,0.03518890912511586,0.024915387052692306,0.013283049909572051,0.011700093370440024
1.5102269531545027,0.04221494386441091,0.03171770285858583,0.022036546886626967,0.014000860795347998,0.008976966297858472
1.5102984703094293,0.0365554045951188,0.029363660256678623,0.019143160662124768,0.015838459090697497,0.005561303910550667
1.510369987464356,0.030705701566729478,0.028536416668495226,0.01712115674686206,0.018185160545789985,0.0025278897703930755
1.5104415046192825,0.025671938650474672,0.02893316782040175,0.016152578444133103,0.020521159082168165,0.0003373912983822164
1.510513021774209,0.02230380117340663,0.02997907515423102,0.01595046449902194,0.023269382435911926,-0.0014954464169161213
1.5105845389291357,0.02110478427342222,0.028316930570331675,0.014310671393420193,0.023730550941519542,-0.0030783450507211024
1.5106560560840623,0.022087028251984653,0.0235374675923258,0.011927341615445858,0.01975269552265031,-0.0025500997288431036
1.5107275732389889,0.02474352062355467,0.01601423913453183,0.008315005741078718,0.013662489621345785,-0.0017122068283720684
1.5107990903939155,0.028206425428266402,0.010543312793590175,0.006455089330600415,0.0072246849614531795,0.0007281534390570074
1.510870607548842,0.03156791810921427,0.008365499492371557,0.006924877381908108,0.002330218353576269,0.004078556068872523
1.5109421247037687,0.034217944840168574,0.009231352366586402,0.0085255112555674,0.0001642602821813799,0.006666581838935626
1.5110136418586952,0.036025983655989566,0.012988524451406474,0.01161661354179527,-0.00023217495410856353,0.009361172981022762
1.5110851590136218,0.03729532439305516,0.014953608824893046,0.013294021431409462,0.00035429529821596356,0.010335863093209984
1.5111566761685484,0.03854470610167679,0.013676565190646464,0.013163190298163863,0.0011389912569265482,0.009754720960073087
1.511228193323475,0.04022460916569971,0.012557333933754914,0.013651672900344249,6.170474341478445e-05,0.010797716757501085
1.5112997104784016,0.04246467581659284,0.013602261425925596,0.01442102957265151,-9.571992190078196e-05,0.011504147878800535
1.5113712276333282,0.04493429586497486,0.0185636761355725,0.016921655013448497,0.002058475109587114,0.012178915698455453
1.5114427447882548,0.04689231770787431,0.02427736234420332,0.019784155718843215,0.005052630650420881,0.012630464318639841
1.5115142619431814,0.047454803887083834,0.026473234737102495,0.02007376929597759,0.007841614861365642,0.011164264338639669
