freq,gls,usurper,pdc_unbiased,shape_periodogram,shift_periodogram
1.5,0.031605246424144244,0.033202264016495245,0.022003088454338578,0.046793459585752276,-0.023547715937740757
1.5000715171549266,0.028595336453250155,0.02643099415297762,0.01679692217781675,0.03923047366306155,-0.020748472960286066
1.5001430343098532,0.024797888546036324,0.020532700057418755,0.011419584810450916,0.03296929016781541,-0.019085730936143255
1.5002145514647798,0.020789812632417533,0.018378253470807734,0.008796510756732951,0.027236337401053603,-0.016155471191225707
1.5002860686197064,0.017345459787468324,0.020565661115440545,0.009479677332466734,0.023993132114358225,-0.01317146489686898
1.500357585774633,0.015271945925960987,0.024636002327128478,0.011714688134418397,0.022611031900193923,-0.010709649224676843
1.5004291029295596,0.015165201318802408,0.029629630217677835,0.01415548030345099,0.02627861305070021,-0.012116364424957596
1.5005006200844861,0.01716595655706576,0.03419154640247064,0.016954003693511403,0.02795558889367756,-0.011729116787954325
1.5005721372394127,0.02086274426290797,0.037618799107617,0.019187221778694714,0.028312658041738447,-0.010643590019401078
1.5006436543943393,0.02544081002802935,0.040739669689544504,0.02137618975240262,0.028865194693027885,-0.009739602640998869
1.500715171549266,0.03000884122307953,0.044324974413139,0.02421994995090846,0.03011171205911551,-0.00898318094565567
1.5007866887041925,0.03391266896856934,0.048709155256135804,0.02666061786266369,0.03634490590250475,-0.01241997670027449
1.500858205859119,0.0368882624749449,0.053879327198624385,0.029368029530911475,0.04616903797045487,-0.018538254390991372
1.5009297230140457,0.0390355018056212,0.05983759193307511,0.03287087235373193,0.059752028908683356,-0.02715328277669158
1.5010012401689723,0.04067274274449097,0.06271980262927168,0.0349635290275476,0.07292111845684845,-0.03631751998157371
1.5010727573238989,0.04213722341942038,0.0639448022293483,0.036798409825528795,0.0828849509866089,-0.043106416585179316
1.5011442744788255,0.043587855733941964,0.06474946376493619,0.03793328428010061,0.09185372956281151,-0.04954257279134968
1.501215791633752,0.044880915226329254,0.06481828766988805,0.03824814004694497,0.09802342866067318,-0.054260854641410686
1.5012873087886787,0.045592465454410994,0.06593821540364748,0.03896037083855539,0.10238590786431526,-0.0572991128153496
1.5013588259436053,0.04519857422015515,0.06535838131025942,0.038338310339186395,0.10390058482015865,-0.05888805400564735
1.5014303430985318,0.04331902735671992,0.06172294555090094,0.03525172960142179,0.10241771942442886,-0.05959976003349412
1.5015018602534584,0.03989064242203222,0.053898467738098185,0.029380562295107576,0.09701832142514198,-0.05889810544169552
1.501573377408385,0.035207008956161204,0.04470204563859078,0.02275340008029923,0.09002823015513496,-0.0573946400108471
1.5016448945633116,0.029854908046904056,0.03621860890796711,0.01716592382272006,0.08098014245382129,-0.05362293155071876
1.5017164117182382,0.02460404968418353,0.029005458625981122,0.01272729457488559,0.07139062996571349,-0.04872568280238386
1.5017879288731648,0.020274028275387688,0.02449200507664861,0.010756457121333964,0.062155765471648965,-0.04260729061731062
1.5018594460280914,0.01756978332877583,0.022061725893056845,0.009814843547662735,0.05583035646662419,-0.03817010189722611
1.501930963183018,0.016887968997375314,0.020805875537720186,0.009773529530205848,0.047088494498383975,-0.03127057889311945
1.5020024803379446,0.018154766828972088,0.01911517568558439,0.009545857603491862,0.037501995293928975,-0.023820203293755535
1.5020739974928712,0.020807783027131654,0.018785782831232552,0.00997328939183271,0.028678070921704886,-0.016575679927589994
1.5021455146477978,0.023992628107040868,0.020656346887411907,0.01144212206274167,0.02395226885021011,-0.011937548063494155
1.5022170318027244,0.026898257150269028,0.024964023708272512,0.014028974316248104,0.025460312924774835,-0.011546450822639342
1.502288548957651,0.029041972437567,0.029958591305814915,0.016679671046279716,0.03147608009880389,-0.014682808422534952
1.5023600661125776,0.03036170293294545,0.03568090642937846,0.019990738498687276,0.041203002252933045,-0.020353654194189837
1.5024315832675041,0.031115659296329378,0.03739603686417274,0.02077896981185265,0.052239138458626856,-0.028611760742113225
1.5025031004224307,0.031680428730509906,0.03559890442485367,0.019519808615351825,0.059693880771894366,-0.03529136323135052
1.5025746175773573,0.032340192227813126,0.0327045386791668,0.018649627815208736,0.06307704960340854,-0.03850671042844643
1.502646134732284,0.033131945974426154,0.030316007203224513,0.017871043624403338,0.06235339796815101,-0.03840962660182218
1.5027176518872105,0.033797027787609374,0.029812110023462287,0.01799769758677829,0.06084832474074033,-0.03713874002171054
1.502789169042137,0.033871437590867574,0.028485136896214628,0.017486670760106647,0.058270402616130854,-0.035408029159182126
1.5028606861970637,0.03289397904446062,0.025206323428745236,0.015274482970942199,0.05387302430351895,-0.03327756423956644
1.5029322033519903,0.030638444170610023,0.021374364477407135,0.012011118949132128,0.04975063579901119,-0.03200945551025747
1.5030037205069169,0.02725242384486997,0.019141696088186104,0.009441040885373031,0.046374758682773264,-0.03090885978265596
1.5030752376618435,0.023245599290448483,0.020221292818695412,0.008606550278537486,0.04495796675109984,-0.030297698431958568
1.50314675481677,0.019358366958489085,0.02319163355518726,0.008953985446160287,0.04462673588416022,-0.029822792838645164
1.5032182719716967,0.01638051368297583,0.027099911933674673,0.010426555451109277,0.0448131294123625,-0.02906907539708856
1.5032897891266233,0.01497089818834955,0.030888327719155655,0.012350463029946239,0.0450275189638616,-0.028061121284278668
1.5033613062815498,0.015499460648454992,0.033629158120255305,0.013981854206916533,0.04287096460870635,-0.025354674885550946
1.5034328234364764,0.01793079665045714,0.03339289127929594,0.01416864675154985,0.0367847954804416,-0.020422158007245762
1.503504340591403,0.021792554285279486,0.03191598133728073,0.013806564009865633,0.02791666871230183,-0.013626035852976602
1.5035758577463296,0.026283745634476982,0.03371601130777564,0.015751292513310384,0.021996209321009447,-0.007751251229877545
1.5036473749012562,0.03053094650102892,0.03854709467759818,0.019003856556851165,0.023294845879445265,-0.006786171194499956
1.5037188920561828,0.03389868374654469,0.045750344181225595,0.02304438568669538,0.0323558615363066,-0.011479485588132124
1.5037904092111094,0.03619247413189749,0.05521270806337821,0.02836367437687625,0.04793605925144541,-0.02055379812845833
1.503861926366036,0.03764566473947448,0.06305364305899878,0.03246316988130233,0.06660102891377565,-0.03283570445094257
1.5039334435209626,0.038716510453014726,0.06752845685624997,0.03408384953452373,0.08375967477076088,-0.04546748696041931
1.5040049606758892,0.0398171228344044,0.07024221656578328,0.03557140334761458,0.09732563575911155,-0.055347582508466484
1.5040764778308158,0.041095739566223526,0.07414871829435452,0.037525773851031737,0.1067441820168728,-0.06165357225931318
1.5041479949857424,0.04234364882306056,0.0774663654671593,0.038887791087543686,0.11169320241639376,-0.0647657553140408
1.504219512140669,0.043051695709888996,0.07865475241684454,0.03921573232033744,0.1126325282982312,-0.06531419343534593
1.5042910292955955,0.04260283060723393,0.07400729839610688,0.036347749549566495,0.10894931060915819,-0.06413469644559373
1.5043625464505221,0.04053910287302065,0.06337065958938858,0.030363706364527798,0.10043613983735873,-0.0610173385990122
1.5044340636054487,0.03679439695722014,0.05011488528373684,0.02344001313236871,0.08859310509999221,-0.05583315491980172
1.5045055807603753,0.03178229372791513,0.038501485634267994,0.01698689592080203,0.078580209004984,-0.05182649127748673
1.504577097915302,0.026296542555493532,0.03038253265408045,0.012446934359831944,0.06956543885167879,-0.04744915666790247
1.5046486150702285,0.021278189004975218,0.02730002455160369,0.011187449324425095,0.06330661829735969,-0.043256015874353286
1.504720132225155,0.017555651134353225,0.026212318697973604,0.011283372248322305,0.058802927508385214,-0.03962721815233823
1.5047916493800817,0.01564621916050789,0.024740300090406894,0.010644076718018416,0.05466473911094712,-0.036739114734931376
1.5048631665350083,0.015656872938766518,0.02193190333935328,0.009217644422453899,0.04699906082940577,-0.03153996527055265
1.5049346836899349,0.017286051262519187,0.019517659934353053,0.008230188330603324,0.03682670581905989,-0.02409107871869883
1.5050062008448615,0.019918755698584013,0.018457063101230946,0.007905738300784866,0.02711811638051919,-0.01660727552450931
1.505077717999788,0.022804926807040774,0.019771966836505332,0.009361654152707073,0.01925803254369556,-0.009498207180140364
1.5051492351547147,0.025289013466251117,0.02411292428944012,0.011726326065843064,0.019773375658764813,-0.008457921777158118
1.5052207523096413,0.027015644551186973,0.029104710034692553,0.014241445734319206,0.026561146659358725,-0.012287245127406653
1.5052922694645678,0.028012475009877,0.03220395653369359,0.015961322224474977,0.035003257327301224,-0.0179141966377355
1.5053637866194944,0.028596359216805502,0.030154690714188123,0.014919408532213189,0.04272452979410624,-0.024664628140351016
1.505435303774421,0.02915112616185344,0.025178303265244128,0.013309044659559194,0.04837329885360676,-0.030123975343552427
1.5055068209293476,0.029900153036102176,0.021588581293768318,0.012321918805932341,0.05164384231579884,-0.03331890409421972
1.5055783380842742,0.030782681811496897,0.021161836227130977,0.01250866989698158,0.05277445732832382,-0.034100298157740364
1.5056498552392008,0.03146961942071043,0.02326627974371036,0.013496870470295333,0.053689403533000064,-0.034220312266543436
1.5057213723941274,0.03149161794629547,0.024164054214705844,0.013134126432083434,0.05364788496013458,-0.0344094608651685
1.505792889549054,0.030427310908792447,0.023397788156009573,0.011855838401314541,0.05066736547980251,-0.032830656972796
1.5058644067039806,0.02809465201809536,0.02095919580093272,0.009674998552531539,0.04517029641535594,-0.029811902889653772
1.5059359238589072,0.024683284499830333,0.017075177039209546,0.006168765257997816,0.04020127887156985,-0.02802378739990705
1.5060074410138338,0.020766913938386953,0.014624119145032038,0.003987129865862614,0.03580026045383875,-0.025875593888802235
1.5060789581687604,0.017165658691511196,0.01559483368697769,0.004506773893992003,0.03295931441052892,-0.023309455995082273
1.506150475323687,0.014695536880755058,0.017839627027580313,0.005603202541494299,0.03179920059623925,-0.02172042790019812
1.5062219924786135,0.013907828977730352,0.019638114976386973,0.006474304461408025,0.030548916867237014,-0.020197949224310337
1.5062935096335401,0.014929925183180436,0.01955652100816514,0.007024475314287043,0.025960445168925973,-0.01623090136398053
1.5063650267884667,0.01746107614733839,0.017741133123326622,0.006681651925523114,0.018543371427221747,-0.010573747572140512
1.5064365439433933,0.020900617081537138,0.018427454390028263,0.008103902228742074,0.011996781789418957,-0.004525476648919331
1.50650806109832,0.024545654709518663,0.021860084501029626,0.01119024144466396,0.007862669987789991,0.0006334039050034193
1.5065795782532465,0.027795889555703463,0.028676929187178197,0.015188716512202768,0.011672890669324558,6.887556342972556e-05
1.506651095408173,0.030315638754338018,0.03804831711410101,0.02020329875354711,0.020951776323375353,-0.004197952332477715
1.5067226125630997,0.03210575674634778,0.04783122139906875,0.02516307524326057,0.03409039476117109,-0.011553617835299521
1.5067941297180263,0.03344435853615213,0.05408153106310943,0.02809340030703321,0.047695850249487685,-0.020529257305072737
1.5068656468729529,0.03469846610783441,0.0556273649274218,0.028836225363534616,0.05788330885296079,-0.02814654958866836
1.5069371640278795,0.03608805388876267,0.05546206552566496,0.029158238083419115,0.06429091808898668,-0.03303016910800856
1.507008681182806,0.03753193323000867,0.05571881389275972,0.029645090979329304,0.06841908111002863,-0.03600675429400114
1.5070801983377327,0.038657419159163646,0.055790060155547466,0.03000532215028713,0.06773053712523183,-0.03523949055172177
1.5071517154926592,0.038950459296790155,0.054515580964209,0.029635790998015537,0.06494710147928597,-0.03325782646852379
1.5072232326475858,0.03795818995272562,0.048949027069936035,0.026170643808596194,0.059243912042813145,-0.030859513834500654
1.5072947498025124,0.035465807062779846,0.041791593599548246,0.02167628316777021,0.05095035938671952,-0.027040886899333004
1.507366266957439,0.03160750390290827,0.03586177913727068,0.01779655130545853,0.04343582548261747,-0.023465756344784303
1.5074377841123656,0.02689036393457737,0.030825723004796794,0.014369878001425985,0.037773367856006795,-0.021081429381667776
1.5075093012672922,0.022110982309926926,0.026641307855909034,0.012274203971852665,0.03370347186949566,-0.019143466655320088
1.5075808184222188,0.018158898886019043,0.024041436147652723,0.010838451012952628,0.032489184785025584,-0.019061609563721667
1.5076523355771454,0.015750547010193554,0.02237999215968392,0.009985828883372298,0.031710503490469236,-0.018967434319758354
1.507723852732072,0.015198153002695225,0.01905114182532996,0.008495434228764531,0.02776518028143172,-0.016758195342875933
1.5077953698869986,0.01632710132796861,0.014391775601724026,0.006411917338543193,0.019861869566725074,-0.01178173884073323
1.5078668870419252,0.01858159605132472,0.010722527789743022,0.00521914285473996,0.011494616847505126,-0.0058944624306917414
1.5079384041968518,0.02125563485920751,0.008394351859793321,0.005152249488431391,0.0035428585008265407,0.00035259455821002954
1.5080099213517784,0.023737553869918368,0.008043005268339372,0.0057615299185219465,0.0003036958182921303,0.0032868824710628763
1.508081438506705,0.025680396681245936,0.01010911577584071,0.007453924502377228,0.00191407897587519,0.003049594309654083
1.5081529556616315,0.027059576075294776,0.012398754196516095,0.008842952470356694,0.007255630445112441,-0.0003237537861071086
1.5082244728165581,0.028112039179855254,0.012412137609515404,0.008942296206187028,0.013218195275662458,-0.004978094614512173
1.5082959899714847,0.029172386947160022,0.011068851698150872,0.008780907310022895,0.01839942556303335,-0.009174666591164372
1.5083675071264113,0.03045818310099522,0.011615055325912404,0.010026451111954632,0.02341073251932184,-0.012375975715148724
1.508439024281338,0.03190386747651281,0.015808872119744324,0.012747040105629182,0.029007575110928996,-0.015138012616224475
1.5085105414362645,0.03314377564440417,0.021673104856342957,0.01600259242207933,0.033607914150881026,-0.016784592665296614
1.508582058591191,0.03366149064758627,0.026519796592911184,0.0186299276568245,0.036931275610343546,-0.017805614845250884
1.5086535757461177,0.03301661123576188,0.026187378284595334,0.017302793300784304,0.03675502234240342,-0.01847906601114039
1.5087250929010443,0.031031763736761156,0.02197634802836585,0.013978643770450466,0.03267838482257029,-0.0172885161334658
1.5087966100559709,0.02787943173947238,0.016424718662974264,0.009773118861112214,0.025812896860914925,-0.01443141153164473
1.5088681272108975,0.024071143965329337,0.011244579502767702,0.005405399448016361,0.019961970651902892,-0.01247708397943749
1.508939644365824,0.020368522042175177,0.007286595116299426,0.002619426200917792,0.01531500344803758,-0.01050721720636819
1.5090111615207507,0.017622660517009992,0.005411642281637457,0.001280243020763253,0.013284147935870646,-0.009720899147848168
1.5090826786756772,0.016549556574789192,0.004790178542616684,0.001094148915450876,0.012869263181824908,-0.009506715025839357
1.5091541958306038,0.01749078347259404,0.004645732890338364,0.001728275756159572,0.010650189175330648,-0.007363691053555398
1.5092257129855304,0.02026609634215111,0.004874785244251812,0.002622344403247119,0.006586370145698028,-0.0036028135078855395
1.509297230140457,0.024225306810832306,0.007805259224753016,0.005090188490138515,0.0025917706543876757,0.0010666592159654597
1.5093687472953836,0.028505184243561566,0.015336653250169086,0.010396256019729185,0.0016892970183276922,0.005028686817246266
1.5094402644503102,0.032363241212534366,0.026131257645180383,0.017181792517199104,0.005824814590169078,0.005913698991169905
1.5095117816052368,0.035420479974014,0.03824507310289601,0.023785576506019895,0.01435845009515818,0.003211334775437139
1.5095832987601634,0.03772295943106026,0.04742743931110951,0.028541189697550762,0.023326804312882476,-0.0009666163745863036
1.50965481591509,0.039632532833370364,0.050517863793093254,0.030196375009199177,0.030686781194115147,-0.005774202092607174
1.5097263330700166,0.041605230836871475,0.0464656058540812,0.028415936049993602,0.034212932489393534,-0.009656348194508758
1.5097978502249432,0.04392716574129624,0.03974113189500712,0.026087173799228647,0.032120633479241135,-0.009428308885010282
1.5098693673798698,0.04649881119729661,0.03567741520698724,0.025125670272120693,0.027616946670122978,-0.006454150041918289
1.5099408845347964,0.048782229516577,0.03561887076866039,0.025898717163670308,0.02434063123598486,-0.003388424330876961
1.510012401689723,0.04998265464348263,0.03822555064448085,0.027970420605425636,0.022339767088902535,-0.0005358258411358621
1.5100839188446495,0.04939582665258717,0.03847544498039529,0.02744804663090382,0.020041306413632165,0.0009618239681287333
1.5101554359995761,0.046726633743720845,0.03589115450790415,0.024915387052692306,0.016868979584511716,0.0019183724867786434
1.5102269531545027,0.04221494386441091,0.03291253291561343,0.022036546886626967,0.012869143170451468,0.003317389395334002
1.5102984703094293,0.0365554045951188,0.03126732255733697,0.019143160662124768,0.01259998431076679,0.0017577555997487892
1.510369987464356,0.030705701566729478,0.031340764643470104,0.01712115674686206,0.01432265345814758,-0.0008430422454078731
1.5104415046192825,0.025671938650474672,0.03271987765102012,0.016152578444133103,0.018100429672925283,-0.0044240226275657065
1.510513021774209,0.02230380117340663,0.034525177023006094,0.01595046449902194,0.02254638575115278,-0.00806446793085386
1.5105845389291357,0.02110478427342222,0.032951000654021304,0.014310671393420193,0.02307009189866373,-0.009483052052694405
1.5106560560840623,0.022087028251984653,0.027567996691934264,0.011927341615445858,0.017855130336270984,-0.006817599171484047
1.5107275732389889,0.02474352062355467,0.019044972049744122,0.008315005741078718,0.009234126684378138,-0.00221152081760609
1.5107990903939155,0.028206425428266402,0.012542321349100893,0.006455089330600415,0.0015058658659157088,0.0027608907803781295
1.510870607548842,0.03156791810921427,0.009639611107957028,0.006924877381908108,-0.00200702706787566,0.00582617715830336
1.5109421247037687,0.034217944840168574,0.01032804766235501,0.0085255112555674,0.0014545900682120553,0.004068953161105685
1.5110136418586952,0.036025983655989566,0.014308983430185728,0.01161661354179527,0.00960102678636009,-0.0004801546794455365
1.5110851590136218,0.03729532439305516,0.016776466992912582,0.013294021431409462,0.019284045685491854,-0.007110876161123715
1.5111566761685484,0.03854470610167679,0.016365813649055497,0.013163190298163863,0.02893379009547852,-0.014824795216720244
1.511228193323475,0.04022460916569971,0.015723514716848096,0.013651672900344249,0.03452371256147997,-0.018949138581336303
1.5112997104784016,0.04246467581659284,0.01675686396791612,0.01442102957265151,0.03700036109971715,-0.02043823010228442
1.5113712276333282,0.04493429586497486,0.021418296801661196,0.016921655013448497,0.03832229127049094,-0.019953132320421986
1.5114427447882548,0.04689231770787431,0.026728083638062953,0.019784155718843215,0.03793320718795622,-0.017891599844515483
1.5115142619431814,0.047454803887083834,0.028685707594658733,0.02007376929597759,0.035634898039316985,-0.015894928300773794
