freq,gls,usurper,pdc_unbiased,shape_periodogram,shift_periodogram
1.5,0.031605246424144244,0.03141925014997141,0.022003088454338578,0.042521630074180965,-0.0021573422829543752
1.5000715171549266,0.028595336453250155,0.02493083117116812,0.01679692217781675,0.03519776630909623,-0.0030150770939948598
1.5001430343098532,0.024797888546036324,0.019317196331512316,0.011419584810450916,0.029401257720555084,-0.004782644011041351
1.5002145514647798,0.020789812632417533,0.01755146548739688,0.008796510756732951,0.024947121534685365,-0.00483193434144857
1.5002860686197064,0.017345459787468324,0.020024689507941753,0.009479677332466734,0.023630278798358512,-0.003582090671932655
1.500357585774633,0.015271945925960987,0.024351900463526886,0.011714688134418397,0.024501880349839023,-0.0020798472485198003
1.5004291029295596,0.015165201318802408,0.029382702340632387,0.01415548030345099,0.028572349019950004,-0.0019964309197204686
1.5005006200844861,0.01716595655706576,0.034141656782217554,0.016954003693511403,0.03179422011970714,-0.001178684135130193
1.5005721372394127,0.02086274426290797,0.03799358353667917,0.019187221778694714,0.03516101929685822,-0.0009232443104098715
1.5006436543943393,0.02544081002802935,0.04144169358166369,0.02137618975240262,0.03877380112880459,-0.0008287900086164865
1.500715171549266,0.03000884122307953,0.045124434621688865,0.02421994995090846,0.04151324271104071,0.0002706534878781962
1.5007866887041925,0.03391266896856934,0.04920932025727697,0.02666061786266369,0.04767075452235402,-0.0006871361514397035
1.500858205859119,0.0368882624749449,0.05374895978066038,0.029368029530911475,0.05513463451846722,-0.002066531175608893
1.5009297230140457,0.0390355018056212,0.05869569654319994,0.03287087235373193,0.06408399215438358,-0.003498216623664709
1.5010012401689723,0.04067274274449097,0.060431327629143126,0.0349635290275476,0.07055489633820355,-0.004916928575167309
1.5010727573238989,0.04213722341942038,0.06054821218264397,0.036798409825528795,0.07414738685292172,-0.00511903607790527
1.5011442744788255,0.043587855733941964,0.06036528083294225,0.03793328428010061,0.07734346783723614,-0.005732057275793517
1.501215791633752,0.044880915226329254,0.059818750942614594,0.03824814004694497,0.07999241717281365,-0.006785439802018029
1.5012873087886787,0.045592465454410994,0.0605499062544293,0.03896037083855539,0.08343970598063004,-0.007893399974889035
1.5013588259436053,0.04519857422015515,0.059770697645767396,0.038338310339186395,0.08382684500777124,-0.00862964894868156
1.5014303430985318,0.04331902735671992,0.05620741912761866,0.03525172960142179,0.08320973186148331,-0.011009032668465169
1.5015018602534584,0.03989064242203222,0.0486197477575112,0.029380562295107576,0.07928029594626833,-0.014148543185640487
1.501573377408385,0.035207008956161204,0.03971977596722252,0.02275340008029923,0.07409084144851844,-0.017308297199275877
1.5016448945633116,0.029854908046904056,0.03167079513631183,0.01716592382272006,0.06659813231985481,-0.018405361229294783
1.5017164117182382,0.02460404968418353,0.024871443214316107,0.01272729457488559,0.058421895337062074,-0.018161646861064328
1.5017879288731648,0.020274028275387688,0.02081358631405319,0.010756457121333964,0.051250741393981315,-0.016281287618654675
1.5018594460280914,0.01756978332877583,0.01877622802745591,0.009814843547662735,0.04669541862799694,-0.014818723062274974
1.501930963183018,0.016887968997375314,0.018252544951347746,0.009773529530205848,0.0421988907531816,-0.012605663020366455
1.5020024803379446,0.018154766828972088,0.01752974360444538,0.009545857603491862,0.03839111716227888,-0.010899384805821597
1.5020739974928712,0.020807783027131654,0.01819106123612451,0.00997328939183271,0.03592941113183054,-0.009298354164127933
1.5021455146477978,0.023992628107040868,0.020735658598705162,0.01144212206274167,0.03582067739381278,-0.007970372381261021
1.5022170318027244,0.026898257150269028,0.02517182788079714,0.014028974316248104,0.038860010375028044,-0.007245892841751664
1.502288548957651,0.029041972437567,0.029834458463189727,0.016679671046279716,0.04323453830053198,-0.007133104876353922
1.5023600661125776,0.03036170293294545,0.034889464145018756,0.019990738498687276,0.04814301451703287,-0.006713941362690913
1.5024315832675041,0.031115659296329378,0.035686020855298546,0.02077896981185265,0.05113050468319399,-0.00752378578695109
1.5025031004224307,0.031680428730509906,0.033023399860357426,0.019519808615351825,0.05162889947456608,-0.008866149601154285
1.5025746175773573,0.032340192227813126,0.029449271307890726,0.018649627815208736,0.049281081536935015,-0.008447089712177136
1.502646134732284,0.033131945974426154,0.026855848161937174,0.017871043624403338,0.04560965836009359,-0.007286817465182362
1.5027176518872105,0.033797027787609374,0.02639721680799384,0.01799769758677829,0.04389890503096309,-0.006321632107279674
1.502789169042137,0.033871437590867574,0.02513453006282369,0.017486670760106647,0.04147011653475699,-0.0055509789142189295
1.5028606861970637,0.03289397904446062,0.02204755886740298,0.015274482970942199,0.038560485285979496,-0.006015877114081813
1.5029322033519903,0.030638444170610023,0.018494745532136106,0.012011118949132128,0.0359087988659787,-0.007520997875212676
1.5030037205069169,0.02725242384486997,0.016582528321272234,0.009441040885373031,0.034349681876136184,-0.008970383636402087
1.5030752376618435,0.023245599290448483,0.01792836394525474,0.008606550278537486,0.03388619750930431,-0.00946227755678959
1.50314675481677,0.019358366958489085,0.021047943189432178,0.008953985446160287,0.0341016701203109,-0.009268730375496402
1.5032182719716967,0.01638051368297583,0.02500111658115318,0.010426555451109277,0.03464765837887338,-0.008264796917840316
1.5032897891266233,0.01497089818834955,0.028788508138189152,0.012350463029946239,0.03505700959559887,-0.006801084094569908
1.5033613062815498,0.015499460648454992,0.03178580398613784,0.013981854206916533,0.03470192798938067,-0.005208908844045861
1.5034328234364764,0.01793079665045714,0.032089995011232886,0.01416864675154985,0.03203924867253603,-0.0037166784925002604
1.503504340591403,0.021792554285279486,0.031425989707510885,0.013806564009865633,0.029050128859484808,-0.0025376033334636155
1.5035758577463296,0.026283745634476982,0.03390062524234826,0.015751292513310384,0.029181950069391966,-0.0009170695104176257
1.5036473749012562,0.03053094650102892,0.0389248351421872,0.019003856556851165,0.03410365170003176,-0.0005541581581369704
1.5037188920561828,0.03389868374654469,0.04564364338086881,0.02304438568669538,0.043047748170292256,-0.001516452201085292
1.5037904092111094,0.03619247413189749,0.054019977060676516,0.02836367437687625,0.05268346918351442,-0.0017135739423164845
1.503861926366036,0.03764566473947448,0.06038776062320315,0.03246316988130233,0.06156115335765966,-0.0025904558754787236
1.5039334435209626,0.038716510453014726,0.0633573893372956,0.03408384953452373,0.06934653688446123,-0.005077318034390153
1.5040049606758892,0.0398171228344044,0.06474849129094841,0.03557140334761458,0.07503653913411634,-0.006632702170751743
1.5040764778308158,0.041095739566223526,0.0679057393668625,0.037525773851031737,0.08009598351554104,-0.007466612160884037
1.5041479949857424,0.04234364882306056,0.07102536452582095,0.038887791087543686,0.08516392506662486,-0.008821546567799253
1.504219512140669,0.043051695709888996,0.07231734173025153,0.03921573232033744,0.08905704549197274,-0.010489478534443044
1.5042910292955955,0.04260283060723393,0.06802562836518448,0.036347749549566495,0.08942511498720411,-0.013174191867129587
1.5043625464505221,0.04053910287302065,0.0578496014013753,0.030363706364527798,0.08495088765236544,-0.016139245243412134
1.5044340636054487,0.03679439695722014,0.04504579721877749,0.02344001313236871,0.07568176853368339,-0.017509574264635976
1.5045055807603753,0.03178229372791513,0.03384561584332205,0.01698689592080203,0.06662256007578683,-0.01857306753130846
1.504577097915302,0.026296542555493532,0.02617009021262026,0.012446934359831944,0.05865405258735439,-0.01852120924680926
1.5046486150702285,0.021278189004975218,0.023301925451999654,0.011187449324425095,0.05233778955582985,-0.016451474683062982
1.504720132225155,0.017555651134353225,0.022344009805365304,0.011283372248322305,0.04729295560176486,-0.013843929485954646
1.5047916493800817,0.01564621916050789,0.021112278482266555,0.010644076718018416,0.04346205143012427,-0.012482347675447026
1.5048631665350083,0.015656872938766518,0.01889734380203319,0.009217644422453899,0.03874044298505459,-0.011358600545942274
1.5049346836899349,0.017286051262519187,0.017504736558831134,0.008230188330603324,0.03424377299340057,-0.009967263031642894
1.5050062008448615,0.019918755698584013,0.017496562397416923,0.007905738300784866,0.030665668102938432,-0.008460653158374512
1.505077717999788,0.022804926807040774,0.01969065185532706,0.009361654152707073,0.028464810633016285,-0.006099027970292256
1.5051492351547147,0.025289013466251117,0.02443398762859552,0.011726326065843064,0.032213024376505285,-0.00592131785609153
1.5052207523096413,0.027015644551186973,0.029192369338874664,0.014241445734319206,0.03664553458445092,-0.005954931941845669
1.5052922694645678,0.028012475009877,0.031621610954939545,0.015961322224474977,0.03858536555083592,-0.0054325317276067864
1.5053637866194944,0.028596359216805502,0.028583342613936562,0.014919408532213189,0.0367811501461617,-0.005434687621231625
1.505435303774421,0.02915112616185344,0.022438599319186955,0.013309044659559194,0.0320507016012666,-0.0044678212830027856
1.5055068209293476,0.029900153036102176,0.018098786282997926,0.012321918805932341,0.027906992566545413,-0.003253942885450624
1.5055783380842742,0.030782681811496897,0.017420562614501256,0.01250866989698158,0.026221828389110857,-0.0022504121416930976
1.5056498552392008,0.03146961942071043,0.01958297903655391,0.013496870470295333,0.028012540219397787,-0.00228791935526919
1.5057213723941274,0.03149161794629547,0.020719138395729808,0.013134126432083434,0.03075082152713436,-0.003970156228742539
1.505792889549054,0.030427310908792447,0.02047016762930396,0.011855838401314541,0.0330619088927795,-0.006233130800440463
1.5058644067039806,0.02809465201809536,0.018648025587101096,0.009674998552531539,0.033018072650591486,-0.008102144572816498
1.5059359238589072,0.024683284499830333,0.015253594863382163,0.006168765257997816,0.031957173789956814,-0.010611688441379137
1.5060074410138338,0.020766913938386953,0.01314928076728592,0.003987129865862614,0.030462863074576976,-0.011756051872959894
1.5060789581687604,0.017165658691511196,0.01426731989651963,0.004506773893992003,0.02876373161151912,-0.010456715227100824
1.506150475323687,0.014695536880755058,0.01655410843005613,0.005603202541494299,0.028165262285534703,-0.009207388503450853
1.5062219924786135,0.013907828977730352,0.018381727034381033,0.006474304461408025,0.027066086924329262,-0.007903241673804564
1.5062935096335401,0.014929925183180436,0.018512457036912837,0.007024475314287043,0.023424011335897096,-0.005607255212340799
1.5063650267884667,0.01746107614733839,0.017323493403470582,0.006681651925523114,0.020264020399323783,-0.0043263432042769286
1.5064365439433933,0.020900617081537138,0.018614117943815053,0.008103902228742074,0.01857632258733455,-0.002250938851979686
1.50650806109832,0.024545654709518663,0.02246305818426923,0.01119024144466396,0.017665334291881555,0.0008790167464009888
1.5065795782532465,0.027795889555703463,0.029191693873345737,0.015188716512202768,0.02221362781524604,0.002074589984223595
1.506651095408173,0.030315638754338018,0.0380079636848841,0.02020329875354711,0.029176782739305154,0.002946691843629915
1.5067226125630997,0.03210575674634778,0.04697094654957882,0.02516307524326057,0.03741124944994417,0.0031381800559823693
1.5067941297180263,0.03344435853615213,0.05218490853611476,0.02809340030703321,0.04406152100523567,0.0023604740270575797
1.5068656468729529,0.03469846610783441,0.05264341092139847,0.028836225363534616,0.04717327523381178,0.0014509351608065135
1.5069371640278795,0.03608805388876267,0.05168452066052423,0.029158238083419115,0.048167193809168105,0.001233990571856531
1.507008681182806,0.03753193323000867,0.05153772345770419,0.029645090979329304,0.05008986154239693,0.0006960921709544746
1.5070801983377327,0.038657419159163646,0.05174501454023313,0.03000532215028713,0.05152525809760431,0.00029165013622311104
1.5071517154926592,0.038950459296790155,0.05070285677306992,0.029635790998015537,0.05108621724436945,0.000190042103008048
1.5072232326475858,0.03795818995272562,0.04563650104761599,0.026170643808596194,0.04932967265757836,-0.0019418133768192034
1.5072947498025124,0.035465807062779846,0.03912131879816661,0.02167628316777021,0.04604670527152563,-0.004202825131313953
1.507366266957439,0.03160750390290827,0.03376103299642739,0.01779655130545853,0.04258062984441813,-0.005837186644197105
1.5074377841123656,0.02689036393457737,0.02918540792583215,0.014369878001425985,0.03971785312163222,-0.007378962054542607
1.5075093012672922,0.022110982309926926,0.025108274270121,0.012274203971852665,0.03614120307129961,-0.007408993389563563
1.5075808184222188,0.018158898886019043,0.022392277611999377,0.010838451012952628,0.034691817911903254,-0.007929715523228001
1.5076523355771454,0.015750547010193554,0.020692427427850466,0.009985828883372298,0.03289258366744684,-0.00776994778149294
1.507723852732072,0.015198153002695225,0.017588758432765247,0.008495434228764531,0.028588278123974853,-0.006911632410561367
1.5077953698869986,0.01632710132796861,0.013576918048657457,0.006411917338543193,0.022808982514182313,-0.005831034215127432
1.5078668870419252,0.01858159605132472,0.010702865746313626,0.00521914285473996,0.017211445380421495,-0.004069630191356549
1.5079384041968518,0.02125563485920751,0.009077983725392438,0.005152249488431391,0.011691013550285722,-0.0013714594068769364
1.5080099213517784,0.023737553869918368,0.008993908398125004,0.0057615299185219465,0.00887681343291798,0.0005613983709533896
1.508081438506705,0.025680396681245936,0.010915468367128318,0.007453924502377228,0.007946469744350041,0.0024924101214667447
1.5081529556616315,0.027059576075294776,0.012733961287728376,0.008842952470356694,0.007902748565545497,0.003717968923393761
1.5082244728165581,0.028112039179855254,0.012034246356220106,0.008942296206187028,0.006740941637438392,0.004383972260540414
1.5082959899714847,0.029172386947160022,0.009907037048451332,0.008780907310022895,0.005457583568628136,0.0048846888907075215
1.5083675071264113,0.03045818310099522,0.009841788556738252,0.010026451111954632,0.005346304982019308,0.006019607660867226
1.508439024281338,0.03190386747651281,0.013657841579301232,0.012747040105629182,0.008174232690270199,0.006965919491580565
1.5085105414362645,0.03314377564440417,0.01941690353910835,0.01600259242207933,0.013416163145041382,0.007171496957823741
1.508582058591191,0.03366149064758627,0.024255360488765764,0.0186299276568245,0.018209903127643694,0.0070567328339456396
1.5086535757461177,0.03301661123576188,0.02415729462423012,0.017302793300784304,0.02049233907616069,0.00476683003789894
1.5087250929010443,0.031031763736761156,0.020327563994157194,0.013978643770450466,0.020117245533680442,0.0020720938061011694
1.5087966100559709,0.02787943173947238,0.015264381262924776,0.009773118861112214,0.017532620536037498,-0.0002830576290249426
1.5088681272108975,0.024071143965329337,0.010538256115668065,0.005405399448016361,0.015536690253316292,-0.0030720236303337645
1.508939644365824,0.020368522042175177,0.006739454910505324,0.002619426200917792,0.012862079118477313,-0.004150987206691504
1.5090111615207507,0.017622660517009992,0.004788309909992435,0.001280243020763253,0.01187582029778484,-0.004819059053549975
1.5090826786756772,0.016549556574789192,0.004018580596044267,0.001094148915450876,0.011949964424577332,-0.005017332285330756
1.5091541958306038,0.01749078347259404,0.003923536898595591,0.001728275756159572,0.011075438432397207,-0.004031237012257854
1.5092257129855304,0.02026609634215111,0.0044437450157922805,0.002622344403247119,0.008803392408942363,-0.0021222348855123594
1.509297230140457,0.024225306810832306,0.007855815011539181,0.005090188490138515,0.007877019564521155,0.00047871888483751293
1.5093687472953836,0.028505184243561566,0.015703432597480502,0.010396256019729185,0.009597209823130766,0.004218330100054122
1.5094402644503102,0.032363241212534366,0.026485581907012,0.017181792517199104,0.014685024557566852,0.007560452453307265
1.5095117816052368,0.035420479974014,0.038230360795911855,0.023785576506019895,0.02181814244119505,0.009726859615034483
1.5095832987601634,0.03772295943106026,0.046814480544414165,0.028541189697550762,0.02702280391592806,0.01125535862318129
1.50965481591509,0.039632532833370364,0.04918285575403304,0.030196375009199177,0.029143708403064687,0.011633492365629914
1.5097263330700166,0.041605230836871475,0.044437610478548474,0.028415936049993602,0.027464350678681415,0.010926357086899407
1.5097978502249432,0.04392716574129624,0.03730524574261479,0.026087173799228647,0.021362308053412264,0.011950619312333797
1.5098693673798698,0.04649881119729661,0.03325434415597924,0.025125670272120693,0.015530048644604257,0.014026408908320994
1.5099408845347964,0.048782229516577,0.033441705536446945,0.025898717163670308,0.014008242052784307,0.01545591549595704
1.510012401689723,0.04998265464348263,0.036342714012095954,0.027970420605425636,0.014899775860721052,0.016807795707458602
1.5100839188446495,0.04939582665258717,0.03690772044647626,0.02744804663090382,0.015654833688611692,0.01597815721231784
1.5101554359995761,0.046726633743720845,0.034693398877173,0.024915387052692306,0.015465576327156453,0.01387622178757514
1.5102269531545027,0.04221494386441091,0.032096485897600474,0.022036546886626967,0.014659002516943395,0.011782382319720543
1.5102984703094293,0.0365554045951188,0.030634142643011647,0.019143160662124768,0.015800359260622263,0.008704233679228344
1.510369987464356,0.030705701566729478,0.030761374280178506,0.01712115674686206,0.01852521409722632,0.005591235936206805
1.5104415046192825,0.025671938650474672,0.03198058418951736,0.016152578444133103,0.021861298422336844,0.003086174844174151
1.510513021774209,0.02230380117340663,0.03360092780343454,0.01595046449902194,0.025408298361044617,0.001140047122693184
1.5105845389291357,0.02110478427342222,0.032164079667263104,0.014310671393420193,0.02620896045641169,-0.0006815959590076999
1.5106560560840623,0.022087028251984653,0.02717139570652457,0.011927341615445858,0.021774704739328465,-0.0005337137082953414
1.5107275732389889,0.02474352062355467,0.019221724895861627,0.008315005741078718,0.014826846016456051,-0.0001959940460785411
1.5107990903939155,0.028206425428266402,0.01318708935217907,0.006455089330600415,0.008017106660236183,0.0015915731722321428
1.510870607548842,0.03156791810921427,0.010417992967265853,0.006924877381908108,0.00342111560029821,0.004292811177814585
1.5109421247037687,0.034217944840168574,0.010696002773098052,0.0085255112555674,0.0025152522538804405,0.006131989834805783
1.5110136418586952,0.036025983655989566,0.01395264226398707,0.01161661354179527,0.003978547091950039,0.008080301386580679
1.5110851590136218,0.03729532439305516,0.015561431635056308,0.013294021431409462,0.005976736254036503,0.008536712342544267
1.5111566761685484,0.03854470610167679,0.014192245618551884,0.013163190298163863,0.00804565172225783,0.00739076301986912
1.511228193323475,0.04022460916569971,0.0128572412069087,0.013651672900344249,0.007907960843353322,0.007882844045360203
1.5112997104784016,0.04246467581659284,0.013723721771210944,0.01442102957265151,0.008221669945054435,0.008393080640731227
1.5113712276333282,0.04493429586497486,0.01860303619125647,0.016921655013448497,0.011209230293924462,0.009069570577475164
1.5114427447882548,0.04689231770787431,0.02427053490969302,0.019784155718843215,0.015013667963978993,0.009652550371320978
1.5115142619431814,0.047454803887083834,0.026615920273115636,0.02007376929597759,0.017708711098296494,0.00855874367486765
