freq,gls,usurper,pdc_unbiased,shape_periodogram,shift_periodogram
1.5,0.031605246424144244,0.032107433693148675,0.022003088454338578,0.053289775167894494,-0.028892553708591638
1.5000715171549266,0.028595336453250155,0.025660833175032503,0.01679692217781675,0.045077766476923894,-0.02554023967664288
1.5001430343098532,0.024797888546036324,0.020021213896415452,0.011419584810450916,0.03874433111697015,-0.023786225320352614
1.5002145514647798,0.020789812632417533,0.018245278533206396,0.008796510756732951,0.03408834517017734,-0.02168742330365294
1.5002860686197064,0.017345459787468324,0.020721806208094464,0.009479677332466734,0.032720392125914585,-0.020185501959362362
1.500357585774633,0.015271945925960987,0.02512162097969346,0.011714688134418397,0.03323324395548099,-0.019231249991486104
1.5004291029295596,0.015165201318802408,0.030160174036125118,0.01415548030345099,0.037597903494995255,-0.021209401869655014
1.5005006200844861,0.01716595655706576,0.034743896065057664,0.016954003693511403,0.04017208389206531,-0.02154832022246858
1.5005721372394127,0.02086274426290797,0.03805054882312206,0.019187221778694714,0.04167564436883935,-0.021381436211838006
1.5006436543943393,0.02544081002802935,0.040949562452308956,0.02137618975240262,0.04339844163617239,-0.021415513539740968
1.500715171549266,0.03000884122307953,0.044219993196847586,0.02421994995090846,0.04536594459256806,-0.021244606252440654
1.5007866887041925,0.03391266896856934,0.04813370647944613,0.02666061786266369,0.05206427133182396,-0.025078616370633775
1.500858205859119,0.0368882624749449,0.05269031647238857,0.029368029530911475,0.06156268905907626,-0.030979310629962228
1.5009297230140457,0.0390355018056212,0.05785284342164671,0.03287087235373193,0.07397315287103576,-0.03871953030533106
1.5010012401689723,0.04067274274449097,0.05994704343617644,0.0349635290275476,0.08480640525219837,-0.04607539069466129
1.5010727573238989,0.04213722341942038,0.06042465469345751,0.036798409825528795,0.09239618823825095,-0.051010446402301235
1.5011442744788255,0.043587855733941964,0.06049344625386193,0.03793328428010061,0.09862968780262982,-0.055295270276732714
1.501215791633752,0.044880915226329254,0.06001962175968101,0.03824814004694497,0.10253025206731198,-0.058219986806754345
1.5012873087886787,0.045592465454410994,0.060734589041361545,0.03896037083855539,0.10611184187008177,-0.06064877860506392
1.5013588259436053,0.04519857422015515,0.05988096537414918,0.038338310339186395,0.10648648829040586,-0.06132813840803022
1.5014303430985318,0.04331902735671992,0.0563474504316087,0.03525172960142179,0.10437588965902214,-0.061523929960402735
1.5015018602534584,0.03989064242203222,0.048911303048861154,0.029380562295107576,0.09863877101109324,-0.06051940442686481
1.501573377408385,0.035207008956161204,0.04009075085853413,0.02275340008029923,0.09105372035459286,-0.05850200864606506
1.5016448945633116,0.029854908046904056,0.032078487614183304,0.01716592382272006,0.0820059767467937,-0.054690106760814323
1.5017164117182382,0.02460404968418353,0.025378016089520002,0.01272729457488559,0.0726834906071123,-0.04996736843938433
1.5017879288731648,0.020274028275387688,0.021411370306647942,0.010756457121333964,0.06418744734149849,-0.044407191637906636
1.5018594460280914,0.01756978332877583,0.019486299534275844,0.009814843547662735,0.058366942733619406,-0.0403523181999487
1.501930963183018,0.016887968997375314,0.018958086420654018,0.009773529530205848,0.051207100496356774,-0.034687305592119015
1.5020024803379446,0.018154766828972088,0.017977193434660376,0.009545857603491862,0.044154546628296286,-0.02922358647906618
1.5020739974928712,0.020807783027131654,0.018393457622693867,0.00997328939183271,0.03835975058948187,-0.024361735908795538
1.5021455146477978,0.023992628107040868,0.020903452740335834,0.01144212206274167,0.0365262166588556,-0.022011411477422936
1.5022170318027244,0.026898257150269028,0.025511579225380075,0.014028974316248104,0.04003638602008783,-0.0232226982676858
1.502288548957651,0.029041972437567,0.030491780693551164,0.016679671046279716,0.04686610001141707,-0.027032300503506867
1.5023600661125776,0.03036170293294545,0.0359628778409326,0.019990738498687276,0.055815304361872264,-0.032126574062992505
1.5024315832675041,0.031115659296329378,0.037237439555359665,0.02077896981185265,0.06424033516671246,-0.038346113017388474
1.5025031004224307,0.031680428730509906,0.034966107055494085,0.019519808615351825,0.06895861603394626,-0.04286742224820459
1.5025746175773573,0.032340192227813126,0.031652885602222375,0.018649627815208736,0.06940214703519096,-0.04375042223511436
1.502646134732284,0.033131945974426154,0.028947054325285836,0.017871043624403338,0.06644236563433681,-0.041869455881062605
1.5027176518872105,0.033797027787609374,0.028255188417566583,0.01799769758677829,0.06429710077127201,-0.040085668271893964
1.502789169042137,0.033871437590867574,0.02673325826668331,0.017486670760106647,0.061281181478692104,-0.037998185323028066
1.5028606861970637,0.03289397904446062,0.023427072123343808,0.015274482970942199,0.0569400233046835,-0.035893899462213046
1.5029322033519903,0.030638444170610023,0.019843209119527087,0.012011118949132128,0.053023035342505784,-0.03476790388283211
1.5030037205069169,0.02725242384486997,0.017936512752746582,0.009441040885373031,0.05038407622742136,-0.034235817221685734
1.5030752376618435,0.023245599290448483,0.019351745176627258,0.008606550278537486,0.05002504892694307,-0.03445860167956316
1.50314675481677,0.019358366958489085,0.022584390629602692,0.008953985446160287,0.050373167014266536,-0.03452366425343666
1.5032182719716967,0.01638051368297583,0.02666350944653373,0.010426555451109277,0.0511846323880664,-0.03427187533416543
1.5032897891266233,0.01497089818834955,0.03051842042871898,0.012350463029946239,0.051229670781620155,-0.03313619670478938
1.5033613062815498,0.015499460648454992,0.03334068042917521,0.013981854206916533,0.049348337671647605,-0.03064782586080554
1.5034328234364764,0.01793079665045714,0.03319959664369141,0.01416864675154985,0.04433282816643014,-0.026549747687373126
1.503504340591403,0.021792554285279486,0.03199414806087204,0.013806564009865633,0.037882573790705164,-0.021647989513814116
1.5035758577463296,0.026283745634476982,0.034114752175285826,0.015751292513310384,0.03482686252732425,-0.01803711023415163
1.5036473749012562,0.03053094650102892,0.039073350674930736,0.019003856556851165,0.038386464066597216,-0.018881198551716136
1.5037188920561828,0.03389868374654469,0.04596968181440041,0.02304438568669538,0.0485604606134359,-0.024499370392799712
1.5037904092111094,0.03619247413189749,0.054780862218915385,0.02836367437687625,0.06291835212022838,-0.03267040212690111
1.503861926366036,0.03764566473947448,0.0617378688952874,0.03246316988130233,0.07849271403667094,-0.04256867258519498
1.5039334435209626,0.038716510453014726,0.06534971613857249,0.03408384953452373,0.09189075280335948,-0.05226380234395918
1.5040049606758892,0.0398171228344044,0.06726326846226864,0.03557140334761458,0.10197801798488514,-0.05941222458273891
1.5040764778308158,0.041095739566223526,0.07054652201396695,0.037525773851031737,0.10867534156181576,-0.06357488825787869
1.5041479949857424,0.04234364882306056,0.07354663169044773,0.038887791087543686,0.11273207418011119,-0.06599018833444611
1.504219512140669,0.043051695709888996,0.07458876014928585,0.03921573232033744,0.11394431598788121,-0.06676058146548139
1.5042910292955955,0.04260283060723393,0.06994064839415552,0.036347749549566495,0.11061496298138232,-0.06584553352964125
1.5043625464505221,0.04053910287302065,0.05948201806299744,0.030363706364527798,0.10220361084264727,-0.06276809977250433
1.5044340636054487,0.03679439695722014,0.046384150033036003,0.02344001313236871,0.08985370800320434,-0.05712666316808154
1.5045055807603753,0.03178229372791513,0.03495957561855856,0.01698689592080203,0.07903843546163013,-0.05243498849508471
1.504577097915302,0.026296542555493532,0.027248190626101763,0.012446934359831944,0.06986884204162985,-0.04789801698675787
1.5046486150702285,0.021278189004975218,0.02458603283102193,0.011187449324425095,0.06370929254958015,-0.043764617370693495
1.504720132225155,0.017555651134353225,0.02393888712537883,0.011283372248322305,0.05903173147736143,-0.039986914072529245
1.5047916493800817,0.01564621916050789,0.02293968891494453,0.010644076718018416,0.05464948126852599,-0.036892776214888005
1.5048631665350083,0.015656872938766518,0.020749160282231525,0.009217644422453899,0.04808367056070304,-0.03254429675664869
1.5049346836899349,0.017286051262519187,0.01904490908988197,0.008230188330603324,0.04080319379260841,-0.027363324159271302
1.5050062008448615,0.019918755698584013,0.018771368073299093,0.007905738300784866,0.034466836725938324,-0.022530344402572622
1.505077717999788,0.022804926807040774,0.02080293773557483,0.009361654152707073,0.030109181268284612,-0.01818483453834773
1.5051492351547147,0.025289013466251117,0.02552104763659062,0.011726326065843064,0.03332812540292458,-0.019299477268892508
1.5052207523096413,0.027015644551186973,0.030463492765647738,0.014241445734319206,0.04023982905741919,-0.023254812221769824
1.5052922694645678,0.028012475009877,0.03322980989173859,0.015961322224474977,0.046647488765196324,-0.027296289113702802
1.5053637866194944,0.028596359216805502,0.030655946317584802,0.014919408532213189,0.050423677495567094,-0.03093117504088042
1.505435303774421,0.02915112616185344,0.02492523362134981,0.013309044659559194,0.051378793214839825,-0.032670930576765934
1.5055068209293476,0.029900153036102176,0.020810612236770876,0.012321918805932341,0.05069549974684186,-0.03272913895721813
1.5055783380842742,0.030782681811496897,0.020086586250344894,0.01250866989698158,0.050000650841214106,-0.03206332271307599
1.5056498552392008,0.03146961942071043,0.022045519112778668,0.013496870470295333,0.051174827901674325,-0.03239446836201696
1.5057213723941274,0.03149161794629547,0.022949657691315878,0.013134126432083434,0.05257051478484044,-0.03372445030104479
1.505792889549054,0.030427310908792447,0.02249104170635448,0.011855838401314541,0.05191788267495803,-0.033984247028941546
1.5058644067039806,0.02809465201809536,0.02032624173323625,0.009674998552531539,0.04856436046971353,-0.03264769856752181
1.5059359238589072,0.024683284499830333,0.016540123065024233,0.006168765257997816,0.04488742310868931,-0.031861697631011994
1.5060074410138338,0.020766913938386953,0.014152875385663191,0.003987129865862614,0.04157617599180876,-0.030560281928635562
1.5060789581687604,0.017165658691511196,0.015175577817242847,0.004506773893992003,0.039230183037887716,-0.02838132573964729
1.506150475323687,0.014695536880755058,0.017542401311126533,0.005603202541494299,0.03800094942875659,-0.02673791817170336
1.5062219924786135,0.013907828977730352,0.019530994452802968,0.006474304461408025,0.036161966502809235,-0.024747624507479634
1.5062935096335401,0.014929925183180436,0.01961142574632737,0.007024475314287043,0.031133526365342515,-0.020421233605181704
1.5063650267884667,0.01746107614733839,0.01808976041075195,0.006681651925523114,0.024646487803914274,-0.015482007993108195
1.5064365439433933,0.020900617081537138,0.019121122077383413,0.008103902228742074,0.019873695779069236,-0.010828848238812345
1.50650806109832,0.024545654709518663,0.022864028991623195,0.01119024144466396,0.017884283259721256,-0.0073705055861493455
1.5065795782532465,0.027795889555703463,0.02968748335915193,0.015188716512202768,0.023686400313793276,-0.009537964404057561
1.506651095408173,0.030315638754338018,0.038803544883180115,0.02020329875354711,0.03373854662001024,-0.01445994081943533
1.5067226125630997,0.03210575674634778,0.048175716804088234,0.02516307524326057,0.04642981344476769,-0.021514657958097864
1.5067941297180263,0.03344435853615213,0.05401511242074055,0.02809340030703321,0.05786036364890496,-0.028812435836365394
1.5068656468729529,0.03469846610783441,0.05497583577181647,0.028836225363534616,0.06480479267387913,-0.033882979339741284
1.5069371640278795,0.03608805388876267,0.05433419924143188,0.029158238083419115,0.06768503176843323,-0.03597855303163749
1.507008681182806,0.03753193323000867,0.054240135413501415,0.029645090979329304,0.06926488428819452,-0.036939031503437726
1.5070801983377327,0.038657419159163646,0.05430570483306999,0.03000532215028713,0.06806217949286325,-0.035761960966406194
1.5071517154926592,0.038950459296790155,0.05298923479014971,0.029635790998015537,0.06498137406110209,-0.033535707140184584
1.5072232326475858,0.03795818995272562,0.04760244568453151,0.026170643808596194,0.05961467979642616,-0.031380225053917625
1.5072947498025124,0.035465807062779846,0.040788302672576285,0.02167628316777021,0.05208221080316322,-0.028131993610275505
1.507366266957439,0.03160750390290827,0.03515174000078827,0.01779655130545853,0.0456206754322387,-0.025362401912166953
1.5074377841123656,0.02689036393457737,0.030400627064158563,0.014369878001425985,0.04130756347134969,-0.024024475528797596
1.5075093012672922,0.022110982309926926,0.026350407196360573,0.012274203971852665,0.0378135227890411,-0.022526624640533274
1.5075808184222188,0.018158898886019043,0.023834203872958523,0.010838451012952628,0.03687835093393879,-0.02265866501530044
1.5076523355771454,0.015750547010193554,0.0223770781644279,0.009985828883372298,0.035773681439622736,-0.022300969633338018
1.507723852732072,0.015198153002695225,0.019284500772330553,0.008495434228764531,0.030999131094657368,-0.019418744049559858
1.5077953698869986,0.01632710132796861,0.014975759350564135,0.006411917338543193,0.02349328874177248,-0.01473124548082016
1.5078668870419252,0.01858159605132472,0.011660443070404862,0.00521914285473996,0.015903304321097,-0.009435970551021517
1.5079384041968518,0.02125563485920751,0.009677858338820781,0.005152249488431391,0.008954838259539724,-0.00396485034423288
1.5080099213517784,0.023737553869918368,0.009450224469267523,0.0057615299185219465,0.0063158378688707465,-0.001500532609741539
1.508081438506705,0.025680396681245936,0.011375129178685486,0.007453924502377228,0.008032293408160113,-0.0018312088226052781
1.5081529556616315,0.027059576075294776,0.013383732592316507,0.008842952470356694,0.012463625690973696,-0.004500164714387732
1.5082244728165581,0.028112039179855254,0.01312057755539393,0.008942296206187028,0.016571769197645372,-0.007698577989767586
1.5082959899714847,0.029172386947160022,0.011419411143177493,0.008780907310022895,0.02002665263416982,-0.01053783838183476
1.5083675071264113,0.03045818310099522,0.01163377220073288,0.010026451111954632,0.023381955872096627,-0.012441366239911189
1.508439024281338,0.03190386747651281,0.015615588361940342,0.012747040105629182,0.02808953154367147,-0.014519753493769308
1.5085105414362645,0.03314377564440417,0.02141594007193131,0.01600259242207933,0.03316705408501798,-0.016566352323649433
1.508582058591191,0.03366149064758627,0.026082579805093143,0.0186299276568245,0.037070842303795065,-0.018064474964286946
1.5086535757461177,0.03301661123576188,0.02575133868819264,0.017302793300784304,0.03765478134503506,-0.01933690040483885
1.5087250929010443,0.031031763736761156,0.021680217623988175,0.013978643770450466,0.03430374811448923,-0.018701862315072433
1.5087966100559709,0.02787943173947238,0.01626698746388144,0.009773118861112214,0.028307501682517337,-0.016504325793213714
1.5088681272108975,0.024071143965329337,0.01125243663501638,0.005405399448016361,0.023454448072289465,-0.015313408967278975
1.508939644365824,0.020368522042175177,0.007391134436229851,0.002619426200917792,0.01967597490326265,-0.014012164006161489
1.5090111615207507,0.017622660517009992,0.005518857359161166,0.001280243020763253,0.018620319015153233,-0.013990176474048694
1.5090826786756772,0.016549556574789192,0.004912904459186073,0.001094148915450876,0.018463215175353896,-0.013978864349832365
1.5091541958306038,0.01749078347259404,0.004811266495495076,0.001728275756159572,0.016353613023733744,-0.01191915515925907
1.5092257129855304,0.02026609634215111,0.005100724053278148,0.002622344403247119,0.012830673471282162,-0.008580050014781583
1.509297230140457,0.024225306810832306,0.008201065699275173,0.005090188490138515,0.010546554908255746,-0.005265219382686081
1.5093687472953836,0.028505184243561566,0.015947065106159623,0.010396256019729185,0.011560563469908507,-0.00283764718083593
1.5094402644503102,0.032363241212534366,0.026841499975259288,0.017181792517199104,0.01729673504556786,-0.003253893458793277
1.5095117816052368,0.035420479974014,0.038843051191213944,0.023785576506019895,0.026536931887857353,-0.006560124579398384
1.5095832987601634,0.03772295943106026,0.04780157724166339,0.028541189697550762,0.034580307806544176,-0.01004386308429516
1.50965481591509,0.039632532833370364,0.050694063612932716,0.030196375009199177,0.03979265399261122,-0.01317251077925656
1.5097263330700166,0.041605230836871475,0.04645417151479444,0.028415936049993602,0.041146501081744044,-0.015333935420592918
1.5097978502249432,0.04392716574129624,0.039517570734299415,0.026087173799228647,0.03677110432851567,-0.013280033159301772
1.5098693673798698,0.04649881119729661,0.03541339507541455,0.025125670272120693,0.030739725207358678,-0.009078466081975099
1.5099408845347964,0.048782229516577,0.035480476260242935,0.025898717163670308,0.02744672768142004,-0.005993580059205865
1.510012401689723,0.04998265464348263,0.03823320571357995,0.027970420605425636,0.0259695916305898,-0.003557926821738911
1.5100839188446495,0.04939582665258717,0.03876445238597069,0.02744804663090382,0.024300621336700905,-0.00255224374579186
1.5101554359995761,0.046726633743720845,0.0365937959008328,0.024915387052692306,0.021798810958590552,-0.002111696235792226
1.5102269531545027,0.04221494386441091,0.03398901977716514,0.022036546886626967,0.01853542386639906,-0.0012777636303029313
1.5102984703094293,0.0365554045951188,0.032558285487183175,0.019143160662124768,0.018632808012954957,-0.0031185619930774035
1.510369987464356,0.030705701566729478,0.03282008221393269,0.01712115674686206,0.0211608823468027,-0.006356534062662834
1.5104415046192825,0.025671938650474672,0.0342035319524579,0.016152578444133103,0.025372279715488173,-0.01028842836364626
1.510513021774209,0.02230380117340663,0.03600536653791767,0.01595046449902194,0.029790801620662402,-0.013918205233987152
1.5105845389291357,0.02110478427342222,0.034483786661280665,0.014310671393420193,0.03007632384697844,-0.015143962296675166
1.5106560560840623,0.022087028251984653,0.02901002455120151,0.011927341615445858,0.02426953098317923,-0.011987694653901778
1.5107275732389889,0.02474352062355467,0.020315663109504122,0.008315005741078718,0.015268865749524225,-0.007047064553590998
1.5107990903939155,0.028206425428266402,0.013658399107029345,0.006455089330600415,0.007342388592133912,-0.0018923521527931756
1.510870607548842,0.03156791810921427,0.010565413583719228,0.006924877381908108,0.0034771600397100456,0.0014595599356260725
1.5109421247037687,0.034217944840168574,0.010828585128974557,0.0085255112555674,0.006060702012833848,0.0003853123904831753
1.5110136418586952,0.036025983655989566,0.014302875462895442,0.01161661354179527,0.012730797153860576,-0.0030225217094336436
1.5110851590136218,0.03729532439305516,0.016253471928272013,0.013294021431409462,0.02020550760480662,-0.007930458532425754
1.5111566761685484,0.03854470610167679,0.01532973234831038,0.013163190298163863,0.027694581815040108,-0.013952784572334283
1.511228193323475,0.04022460916569971,0.014212999470058309,0.013651672900344249,0.03158189683342874,-0.016740467070318923
1.5112997104784016,0.04246467581659284,0.015035136655288073,0.01442102957265151,0.03332233088652137,-0.017653259179227394
1.5113712276333282,0.04493429586497486,0.019692059496544605,0.016921655013448497,0.03575091638067311,-0.01805756216592124
1.5114427447882548,0.04689231770787431,0.025086262220216003,0.019784155718843215,0.03749010725100778,-0.01769388113357724
1.5115142619431814,0.047454803887083834,0.027271160103340814,0.02007376929597759,0.03693739146784939,-0.017078500950724964
