freq,gls,usurper,pdc_unbiased,shape_periodogram,shift_periodogram
1.5,0.031605246424144244,0.03105028349898363,0.022003088454338578,0.041104266279314294,-0.01624359481702336
1.5000715171549266,0.028595336453250155,0.024489840193118756,0.01679692217781675,0.033727507646498484,-0.01415942840419645
1.5001430343098532,0.024797888546036324,0.018761314361855783,0.011419584810450916,0.02758307676480982,-0.013113406023487397
1.5002145514647798,0.020789812632417533,0.016689246625466333,0.008796510756732951,0.02172837681726437,-0.010460895913003903
1.5002860686197064,0.017345459787468324,0.018877723416705072,0.009479677332466734,0.018104493625839078,-0.007291841260957028
1.500357585774633,0.015271945925960987,0.022874562724305617,0.011714688134418397,0.0165875388143583,-0.00467454566578901
1.5004291029295596,0.015165201318802408,0.027789656532771753,0.01415548030345099,0.020310462436182692,-0.005848582677672708
1.5005006200844861,0.01716595655706576,0.03240957598365053,0.016954003693511403,0.02246079768569547,-0.005606688634544589
1.5005721372394127,0.02086274426290797,0.03602724716592256,0.019187221778694714,0.023362854645680844,-0.004803273818966995
1.5006436543943393,0.02544081002802935,0.03927644269966389,0.02137618975240262,0.024201050193515355,-0.00398107832751235
1.500715171549266,0.03000884122307953,0.04291593894110231,0.02421994995090846,0.025133304089884553,-0.002795112251242408
1.5007866887041925,0.03391266896856934,0.04720146721155921,0.02666061786266369,0.030991721547918367,-0.0055696292569766
1.500858205859119,0.0368882624749449,0.05218058955585938,0.029368029530911475,0.04026984813637447,-0.010733536045772006
1.5009297230140457,0.0390355018056212,0.05782431186474019,0.03287087235373193,0.0530896575587079,-0.018032604291047007
1.5010012401689723,0.04067274274449097,0.06036702965209656,0.0349635290275476,0.06510892366464063,-0.02567552778264501
1.5010727573238989,0.04213722341942038,0.06133001282570346,0.036798409825528795,0.07389678048525523,-0.031067943670728522
1.5011442744788255,0.043587855733941964,0.06191086393282402,0.03793328428010061,0.08197077379600405,-0.036394137768250026
1.501215791633752,0.044880915226329254,0.0618254544410873,0.03824814004694497,0.08760485632703054,-0.04043150643059077
1.5012873087886787,0.045592465454410994,0.0628462128339718,0.03896037083855539,0.09144948306821697,-0.042857927692163636
1.5013588259436053,0.04519857422015515,0.062234241917133455,0.038338310339186395,0.09224519338062505,-0.04387165213875817
1.5014303430985318,0.04331902735671992,0.05867410099913408,0.03525172960142179,0.0909680958910687,-0.044958525078836416
1.5015018602534584,0.03989064242203222,0.0510116266326371,0.029380562295107576,0.08622140187732781,-0.045275974737278186
1.501573377408385,0.035207008956161204,0.04204096917670315,0.02275340008029923,0.08030351582698717,-0.04521102307038228
1.5016448945633116,0.029854908046904056,0.03377153382161784,0.01716592382272006,0.0719933730651491,-0.04265710015022112
1.5017164117182382,0.02460404968418353,0.02672680691823561,0.01272729457488559,0.06277024848974071,-0.03866048436863232
1.5017879288731648,0.020274028275387688,0.022357601858914895,0.010756457121333964,0.05399990019673494,-0.033375825123277844
1.5018594460280914,0.01756978332877583,0.020001282885360173,0.009814843547662735,0.048575176214159604,-0.029925846715119508
1.501930963183018,0.016887968997375314,0.018916091576211342,0.009773529530205848,0.04140948909530248,-0.024574898565310945
1.5020024803379446,0.018154766828972088,0.01746056594845409,0.009545857603491862,0.03343711209938976,-0.018744615663799178
1.5020739974928712,0.020807783027131654,0.01729873813999155,0.00997328939183271,0.0261409975808909,-0.012989945837476577
1.5021455146477978,0.023992628107040868,0.019225493635580203,0.01144212206274167,0.022226576566247734,-0.009082275601281838
1.5022170318027244,0.026898257150269028,0.023396384011283525,0.014028974316248104,0.02376390046386925,-0.008521398222613016
1.502288548957651,0.029041972437567,0.028105309780669746,0.016679671046279716,0.02895550157318519,-0.010658133731366794
1.5023600661125776,0.03036170293294545,0.033500647408452565,0.019990738498687276,0.037558619424857664,-0.014917005797779378
1.5024315832675041,0.031115659296329378,0.03486565804114818,0.02077896981185265,0.04696453008249345,-0.021453539363369103
1.5025031004224307,0.031680428730509906,0.03280828202440183,0.019519808615351825,0.05309656316978539,-0.026892630389776857
1.5025746175773573,0.032340192227813126,0.02976287905657134,0.018649627815208736,0.05566212569726954,-0.02939642027316979
1.502646134732284,0.033131945974426154,0.027346450016681453,0.017871043624403338,0.05466422898326823,-0.029162680379672228
1.5027176518872105,0.033797027787609374,0.026944605701503616,0.01799769758677829,0.05318498243732302,-0.027967660306841155
1.502789169042137,0.033871437590867574,0.025774715137900223,0.017486670760106647,0.05033773748490121,-0.026167989312241968
1.5028606861970637,0.03289397904446062,0.022728162208706305,0.015274482970942199,0.046112987674788705,-0.02446170232448277
1.5029322033519903,0.030638444170610023,0.019002969896696725,0.012011118949132128,0.04218310775221666,-0.02367364817569151
1.5030037205069169,0.02725242384486997,0.016809431113229974,0.009441040885373031,0.03888805331264944,-0.022903142554460645
1.5030752376618435,0.023245599290448483,0.01779341348899379,0.008606550278537486,0.03724152299567654,-0.022220417248363517
1.50314675481677,0.019358366958489085,0.020617238651284064,0.008953985446160287,0.03645337064994219,-0.02139909682758396
1.5032182719716967,0.01638051368297583,0.024386327891092865,0.010426555451109277,0.03598176492386915,-0.020070165684096558
1.5032897891266233,0.01497089818834955,0.028073261294508982,0.012350463029946239,0.03602895412514591,-0.01883138205895282
1.5033613062815498,0.015499460648454992,0.030933946478326663,0.013981854206916533,0.03460322679806579,-0.016681273323410545
1.5034328234364764,0.01793079665045714,0.03099592085414533,0.01416864675154985,0.029519117093838032,-0.012744328849484851
1.503504340591403,0.021792554285279486,0.029868170728160972,0.013806564009865633,0.02196609729436904,-0.007320882664343225
1.5035758577463296,0.026283745634476982,0.03189577362858167,0.015751292513310384,0.017549360062116864,-0.0027217360080277636
1.5036473749012562,0.03053094650102892,0.03667421439957198,0.019003856556851165,0.019853973739727485,-0.002294349319476852
1.5037188920561828,0.03389868374654469,0.043501380262472134,0.02304438568669538,0.028768062638579426,-0.006299646991378228
1.5037904092111094,0.03619247413189749,0.052425787772737764,0.02836367437687625,0.0430232283927171,-0.013465927682397915
1.503861926366036,0.03764566473947448,0.05957414325969481,0.03246316988130233,0.05921204336215743,-0.022902837974603126
1.5039334435209626,0.038716510453014726,0.06340325811171907,0.03408384953452373,0.07425104367621028,-0.03313748898725639
1.5040049606758892,0.0398171228344044,0.06562678455115897,0.03557140334761458,0.08607621992349904,-0.04105722133479081
1.5040764778308158,0.041095739566223526,0.06917145833227807,0.037525773851031737,0.09468171801274397,-0.046250253954104065
1.5041479949857424,0.04234364882306056,0.07240228019545103,0.038887791087543686,0.0999011899126617,-0.04928643620817589
1.504219512140669,0.043051695709888996,0.07375603525479917,0.03921573232033744,0.10188510548033405,-0.050567385804774594
1.5042910292955955,0.04260283060723393,0.06962038928016098,0.036347749549566495,0.09998203311912186,-0.051034951643593014
1.5043625464505221,0.04053910287302065,0.05958352587168193,0.030363706364527798,0.09330019658420648,-0.04996250029752597
1.5044340636054487,0.03679439695722014,0.04695298665765688,0.02344001313236871,0.08262326956189409,-0.04650341971818537
1.5045055807603753,0.03178229372791513,0.0357652328862666,0.01698689592080203,0.0733109111632208,-0.04376703977367976
1.504577097915302,0.026296542555493532,0.027850742727793525,0.012446934359831944,0.06455939063313175,-0.040190997366233196
1.5046486150702285,0.021278189004975218,0.024710595796158558,0.011187449324425095,0.0577500332405898,-0.035907471333273544
1.504720132225155,0.017555651134353225,0.023488610019683852,0.011283372248322305,0.052983430502013006,-0.0322635519146838
1.5047916493800817,0.01564621916050789,0.02192144224425138,0.010644076718018416,0.04926888818328846,-0.029897614863590865
1.5048631665350083,0.015656872938766518,0.019241060128663588,0.009217644422453899,0.042722262729731585,-0.025928108491437122
1.5049346836899349,0.017286051262519187,0.017135877560303728,0.008230188330603324,0.03387695501126362,-0.019945747785245008
1.5050062008448615,0.019918755698584013,0.01629948702492416,0.007905738300784866,0.025399973657836337,-0.013803515053255902
1.505077717999788,0.022804926807040774,0.017792548751885406,0.009361654152707073,0.018504084290667213,-0.007669538969481769
1.5051492351547147,0.025289013466251117,0.022137817570774834,0.011726326065843064,0.01979350708799398,-0.007070038094956218
1.5052207523096413,0.027015644551186973,0.026923948920429465,0.014241445734319206,0.02624515293650074,-0.010241045204478924
1.5052922694645678,0.028012475009877,0.0297198934080921,0.015961322224474977,0.033264214907280515,-0.014365542843262477
1.5053637866194944,0.028596359216805502,0.0274082599324946,0.014919408532213189,0.03887513047107083,-0.01926504274422669
1.505435303774421,0.02915112616185344,0.022261932128061688,0.013309044659559194,0.04198460513298856,-0.022665041016219516
1.5055068209293476,0.029900153036102176,0.018531907513957988,0.012321918805932341,0.04370347514336855,-0.024608821197229087
1.5055783380842742,0.030782681811496897,0.01804634076874876,0.01250866989698158,0.044175127046942875,-0.02483912822221518
1.5056498552392008,0.03146961942071043,0.02015630747891108,0.013496870470295333,0.04507627211623298,-0.02486099679215408
1.5057213723941274,0.03149161794629547,0.021185514945961718,0.013134126432083434,0.04545981520668434,-0.025389145045187935
1.505792889549054,0.030427310908792447,0.020675054184928415,0.011855838401314541,0.04385527203022755,-0.025031421770168708
1.5058644067039806,0.02809465201809536,0.018606277338462686,0.009674998552531539,0.039690374085626964,-0.023350199573813978
1.5059359238589072,0.024683284499830333,0.015068048061991671,0.006168765257997816,0.0355955133644872,-0.022599710580725952
1.5060074410138338,0.020766913938386953,0.012814849143336386,0.003987129865862614,0.031379744046830575,-0.0208820845884603
1.5060789581687604,0.017165658691511196,0.01378945706980194,0.004506773893992003,0.02797091611581608,-0.01798180462718192
1.506150475323687,0.014695536880755058,0.015933650475232174,0.005603202541494299,0.026425311674123857,-0.016096940377297336
1.5062219924786135,0.013907828977730352,0.01761161707074722,0.006474304461408025,0.025273288395682783,-0.01465638063736662
1.5062935096335401,0.014929925183180436,0.017606121081789775,0.007024475314287043,0.021200031897951617,-0.011238255136944117
1.5063650267884667,0.01746107614733839,0.016033576431215814,0.006681651925523114,0.01516511463915441,-0.006941447097845903
1.5064365439433933,0.020900617081537138,0.016838995158733282,0.008103902228742074,0.009804878396135345,-0.0019821363115785024
1.50650806109832,0.024545654709518663,0.02029405575690076,0.01119024144466396,0.006161622780784082,0.002792061455956717
1.5065795782532465,0.027795889555703463,0.026925786748200772,0.015188716512202768,0.009952985780966643,0.0025989692583159806
1.506651095408173,0.030315638754338018,0.035884773483023095,0.02020329875354711,0.01857063020411597,-0.0005376289416038978
1.5067226125630997,0.03210575674634778,0.04518217981804094,0.02516307524326057,0.030676431574631076,-0.006326142418956945
1.5067941297180263,0.03344435853615213,0.050875626030683206,0.02809340030703321,0.04302490238166307,-0.013646464995524816
1.5068656468729529,0.03469846610783441,0.05201878608459704,0.028836225363534616,0.05179107388581826,-0.01973476901818126
1.5069371640278795,0.03608805388876267,0.051608989317229535,0.029158238083419115,0.057470761322477026,-0.023787653302278954
1.507008681182806,0.03753193323000867,0.05177939374220123,0.029645090979329304,0.061567230674192217,-0.026543241423708834
1.5070801983377327,0.038657419159163646,0.05197476997814994,0.03000532215028713,0.06175042297046095,-0.026441911071032883
1.5071517154926592,0.038950459296790155,0.05092196054807091,0.029635790998015537,0.05984170877092496,-0.025252482507002853
1.5072232326475858,0.03795818995272562,0.0457948032513026,0.026170643808596194,0.055815871513488165,-0.02452611587943129
1.5072947498025124,0.035465807062779846,0.039116727635329786,0.02167628316777021,0.049594162060784416,-0.02283310232250819
1.507366266957439,0.03160750390290827,0.03358120731374888,0.01779655130545853,0.04360514820298268,-0.0209083509525631
1.5074377841123656,0.02689036393457737,0.028829847034187454,0.014369878001425985,0.03881084134576062,-0.01958083994439782
1.5075093012672922,0.022110982309926926,0.024791430256103364,0.012274203971852665,0.03454870623644876,-0.017771488637506088
1.5075808184222188,0.018158898886019043,0.02220445474223578,0.010838451012952628,0.03277763015026827,-0.017393951628676428
1.5076523355771454,0.015750547010193554,0.020536433957580154,0.009985828883372298,0.03157256312423174,-0.01705478859173179
1.507723852732072,0.015198153002695225,0.017267140330394348,0.008495434228764531,0.027466437807358624,-0.014962493740399917
1.5077953698869986,0.01632710132796861,0.012888098703871776,0.006411917338543193,0.01993824875627909,-0.010697967407039136
1.5078668870419252,0.01858159605132472,0.009527577880969414,0.00521914285473996,0.011929193738002273,-0.005484482646710489
1.5079384041968518,0.02125563485920751,0.0074136947994121955,0.005152249488431391,0.004171693916107542,0.00028507964510779985
1.5080099213517784,0.023737553869918368,0.007067016354989114,0.0057615299185219465,0.0007839330616677307,0.003227308390149999
1.508081438506705,0.025680396681245936,0.0090349861660877,0.007453924502377228,0.0016040761416746797,0.0037332995998693146
1.5081529556616315,0.027059576075294776,0.01111911922416689,0.008842952470356694,0.0057512674176008775,0.0015451764180502018
1.5082244728165581,0.028112039179855254,0.010850587182213836,0.008942296206187028,0.010135616340293637,-0.0016748199317511425
1.5082959899714847,0.029172386947160022,0.009313204090299461,0.008780907310022895,0.013780852132598914,-0.004513762652079726
1.5083675071264113,0.03045818310099522,0.009661130787043518,0.010026451111954632,0.017686745073355856,-0.006616591099398619
1.508439024281338,0.03190386747651281,0.013609277972305244,0.012747040105629182,0.02247151338901114,-0.00840160466927249
1.5085105414362645,0.03314377564440417,0.01930804281961004,0.01600259242207933,0.02690704588184019,-0.009570642635958476
1.508582058591191,0.03366149064758627,0.024107919343571624,0.0186299276568245,0.02995358765387344,-0.01011438381616517
1.5086535757461177,0.03301661123576188,0.02396480924461143,0.017302793300784304,0.030039055645156014,-0.01105785782726889
1.5087250929010443,0.031031763736761156,0.02007861259131903,0.013978643770450466,0.026987155238001118,-0.010971508845381917
1.5087966100559709,0.02787943173947238,0.014892867322902806,0.009773118861112214,0.02128677513928122,-0.009483077897190393
1.5088681272108975,0.024071143965329337,0.010015481662689485,0.005405399448016361,0.01668627671860945,-0.008926738476588184
1.508939644365824,0.020368522042175177,0.006237815235201417,0.002619426200917792,0.012489187216368837,-0.007625543411859401
1.5090111615207507,0.017622660517009992,0.004454294061559622,0.001280243020763253,0.010369992696943067,-0.006923919580175638
1.5090826786756772,0.016549556574789192,0.003859406490343228,0.001094148915450876,0.010143527396665629,-0.006877403591455087
1.5091541958306038,0.01749078347259404,0.0037385688673440207,0.001728275756159572,0.008329438770572661,-0.005097966760372422
1.5092257129855304,0.02026609634215111,0.004001886004453335,0.002622344403247119,0.004342422606964265,-0.0015179876206406237
1.509297230140457,0.024225306810832306,0.006951282133857986,0.005090188490138515,0.00030931028719927633,0.0031384763937259965
1.5093687472953836,0.028505184243561566,0.014261720162039236,0.010396256019729185,-0.0008118711421227526,0.0074920194000400045
1.5094402644503102,0.032363241212534366,0.02464219594885439,0.017181792517199104,0.002930171510577303,0.009181614135679148
1.5095117816052368,0.035420479974014,0.036223560432790305,0.023785576506019895,0.01074699052140499,0.007699366567294617
1.5095832987601634,0.03772295943106026,0.04488743788943799,0.028541189697550762,0.01895730830982603,0.00469902054111525
1.50965481591509,0.039632532833370364,0.047666631308836915,0.030196375009199177,0.025714160675852613,0.0007321493684198971
1.5097263330700166,0.041605230836871475,0.04361087817532703,0.028415936049993602,0.028739929659269876,-0.002717106441323647
1.5097978502249432,0.04392716574129624,0.03708747272361796,0.026087173799228647,0.026509884309266894,-0.002589287607083716
1.5098693673798698,0.04649881119729661,0.03318799038987936,0.025125670272120693,0.022404272298099263,-0.00014888352446530372
1.5099408845347964,0.048782229516577,0.03321827758492046,0.025898717163670308,0.020206914730148958,0.002010620757319435
1.510012401689723,0.04998265464348263,0.03585607756832041,0.027970420605425636,0.019203139424965467,0.004136364029770319
1.5100839188446495,0.04939582665258717,0.0361430584989023,0.02744804663090382,0.017866581744107077,0.004791709544333967
1.5101554359995761,0.046726633743720845,0.03367658804976073,0.024915387052692306,0.015605420790668182,0.004807447121025226
1.5102269531545027,0.04221494386441091,0.03083133722580165,0.022036546886626967,0.012544273595622232,0.005193630489890069
1.5102984703094293,0.0365554045951188,0.029186198753659555,0.019143160662124768,0.012724458490645869,0.003141547017522088
1.510369987464356,0.030705701566729478,0.02921867514836283,0.01712115674686206,0.014675724766748438,0.0003396035487400477
1.5104415046192825,0.025671938650474672,0.03051246331112844,0.016152578444133103,0.018000205951321294,-0.0027938413213450934
1.510513021774209,0.02230380117340663,0.032277032468611355,0.01595046449902194,0.022216015059427295,-0.006088029653155274
1.5105845389291357,0.02110478427342222,0.030901009023841013,0.014310671393420193,0.0229626756359946,-0.007734093871451859
1.5106560560840623,0.022087028251984653,0.025945357105181026,0.011927341615445858,0.017926640627144205,-0.005537465406644012
1.5107275732389889,0.02474352062355467,0.017977043744898266,0.008315005741078718,0.009334666486215096,-0.0014899397043656156
1.5107990903939155,0.028206425428266402,0.011884566503711204,0.006455089330600415,0.0012104642842300855,0.0033668971128373608
1.510870607548842,0.03156791810921427,0.009160815911355875,0.006924877381908108,-0.0031685603582107904,0.006959533697954335
1.5109421247037687,0.034217944840168574,0.009692646678609385,0.0085255112555674,-0.0012875721942157822,0.006609783614102183
1.5110136418586952,0.036025983655989566,0.01329769055496009,0.01161661354179527,0.004880388480775075,0.00403456267976454
1.5110851590136218,0.03729532439305516,0.015346579703514553,0.013294021431409462,0.012624060433764106,-0.000657804500908877
1.5111566761685484,0.03854470610167679,0.01462052850517226,0.013163190298163863,0.0201916706488649,-0.006416814577403214
1.511228193323475,0.04022460916569971,0.013811917351649331,0.013651672900344249,0.02412265210319564,-0.00904029993432269
1.5112997104784016,0.04246467581659284,0.014721733902915875,0.01442102957265151,0.025927040872722167,-0.009883557774178334
1.5113712276333282,0.04493429586497486,0.019311575955093117,0.016921655013448497,0.02729193457528681,-0.009250339940746425
1.5114427447882548,0.04689231770787431,0.02463341015587636,0.019784155718843215,0.027403596529587793,-0.00743731693304037
1.5115142619431814,0.047454803887083834,0.026654916389976607,0.02007376929597759,0.026338751628284304,-0.00644695782709866
