freq,gls,usurper,pdc_unbiased,shape_periodogram,shift_periodogram
1.5,0.031605246424144244,0.03586147234937778,0.022003088454338578,0.02169978272691021,0.010233378691453876
1.5000715171549266,0.028595336453250155,0.028422974098060237,0.01679692217781675,0.01685672844778405,0.007681911489819483
1.5001430343098532,0.024797888546036324,0.02246642862464911,0.011419584810450916,0.013156508022718373,0.00447608858434843
1.5002145514647798,0.020789812632417533,0.021029470527470506,0.008796510756732951,0.010204849615428785,0.003416681912449263
1.5002860686197064,0.017345459787468324,0.024561242483617827,0.009479677332466734,0.009090689925374951,0.0045200720659798145
1.500357585774633,0.015271945925960987,0.030241342528818802,0.011714688134418397,0.009398275005580766,0.006392806319929895
1.5004291029295596,0.015165201318802408,0.03679895185183339,0.01415548030345099,0.011780363966713971,0.007538973668038251
1.5005006200844861,0.01716595655706576,0.04251352947675759,0.016954003693511403,0.013242532076996206,0.009411088827839665
1.5005721372394127,0.02086274426290797,0.046697057357710424,0.019187221778694714,0.015114604783734846,0.010595444986034073
1.5006436543943393,0.02544081002802935,0.05043296754003884,0.02137618975240262,0.016905440272183703,0.011776033046010126
1.500715171549266,0.03000884122307953,0.05449797197591216,0.02421994995090846,0.017995832029953685,0.013853209617643733
1.5007866887041925,0.03391266896856934,0.059791810499338224,0.02666061786266369,0.02178130463062853,0.014384896550246558
1.500858205859119,0.0368882624749449,0.06569802208871675,0.029368029530911475,0.026979426599535346,0.014536865853345265
1.5009297230140457,0.0390355018056212,0.07178511744850455,0.03287087235373193,0.03377138652130908,0.014705737494046219
1.5010012401689723,0.04067274274449097,0.07380305917340939,0.0349635290275476,0.039043523354550615,0.014274162123468699
1.5010727573238989,0.04213722341942038,0.0735060546867939,0.036798409825528795,0.042469952243956256,0.014421641214264806
1.5011442744788255,0.043587855733941964,0.0730359946368151,0.03793328428010061,0.04533972367408282,0.014183519571196679
1.501215791633752,0.044880915226329254,0.07250988459576167,0.03824814004694497,0.04785601960692617,0.013361970582713137
1.5012873087886787,0.045592465454410994,0.07371009690154409,0.03896037083855539,0.04976797185655546,0.013163888286117222
1.5013588259436053,0.04519857422015515,0.0730817889990392,0.038338310339186395,0.049558111104560376,0.012695516298013214
1.5014303430985318,0.04331902735671992,0.06919195297913755,0.03525172960142179,0.04985247744205394,0.009785134662546682
1.5015018602534584,0.03989064242203222,0.060500961498998064,0.029380562295107576,0.04823964187790467,0.00520628681030101
1.501573377408385,0.035207008956161204,0.049992783683474526,0.02275340008029923,0.04644968124420447,2.8161942539325824e-05
1.5016448945633116,0.029854908046904056,0.04023315136953416,0.01716592382272006,0.042086635702875574,-0.003078878984631099
1.5017164117182382,0.02460404968418353,0.031987368493414034,0.01272729457488559,0.036622296103840955,-0.004665900160220815
1.5017879288731648,0.020274028275387688,0.026643978312994938,0.010756457121333964,0.03178758722561458,-0.004310701603580807
1.5018594460280914,0.01756978332877583,0.023812570973778056,0.009814843547662735,0.02912358134568145,-0.003985290709415982
1.501930963183018,0.016887968997375314,0.022513235758407246,0.009773529530205848,0.026626447165630333,-0.0029242548292921786
1.5020024803379446,0.018154766828972088,0.020800206495377213,0.009545857603491862,0.024686627028417486,-0.002275879205910947
1.5020739974928712,0.020807783027131654,0.020937971761090097,0.00997328939183271,0.023214607432169267,-0.001244567880995998
1.5021455146477978,0.023992628107040868,0.023802826972978787,0.01144212206274167,0.022412036704122715,0.00042820014260056477
1.5022170318027244,0.026898257150269028,0.02944358854260806,0.014028974316248104,0.023583422845483315,0.002238048159304665
1.502288548957651,0.029041972437567,0.035358794957887206,0.016679671046279716,0.025571331269945943,0.0037467232785128707
1.5023600661125776,0.03036170293294545,0.04124528535656738,0.019990738498687276,0.028576736798926965,0.005402374326835019
1.5024315832675041,0.031115659296329378,0.04205609300050788,0.02077896981185265,0.030296997879280686,0.0053550162158176005
1.5025031004224307,0.031680428730509906,0.03860252423529535,0.019519808615351825,0.03109042894563366,0.0038740420622388346
1.5025746175773573,0.032340192227813126,0.03351990175280764,0.018649627815208736,0.02913080631489673,0.003953063295860378
1.502646134732284,0.033131945974426154,0.029895516001747176,0.017871043624403338,0.026446562942862597,0.004432972895407468
1.5027176518872105,0.033797027787609374,0.029162529185733366,0.01799769758677829,0.024312119246537426,0.005484935143472751
1.502789169042137,0.033871437590867574,0.02782346249744728,0.017486670760106647,0.021230898346318968,0.006379692904206651
1.5028606861970637,0.03289397904446062,0.024299308090315826,0.015274482970942199,0.0192734336668388,0.0052517426335679344
1.5029322033519903,0.030638444170610023,0.020415784044961586,0.012011118949132128,0.01812001347408659,0.0028261340099482815
1.5030037205069169,0.02725242384486997,0.018457255098761397,0.009441040885373031,0.017642436162268012,0.0007267535665974631
1.5030752376618435,0.023245599290448483,0.020688962478446173,0.008606550278537486,0.01775631610105763,-7.308467832613945e-05
1.50314675481677,0.019358366958489085,0.02545646666277985,0.008953985446160287,0.018304203556200854,-1.7602957892163593e-06
1.5032182719716967,0.01638051368297583,0.03138741691707905,0.010426555451109277,0.01858425889309004,0.0011982631329376023
1.5032897891266233,0.01497089818834955,0.03682050286246874,0.012350463029946239,0.01938421581302803,0.0025754060059522098
1.5033613062815498,0.015499460648454992,0.040843136814892815,0.013981854206916533,0.019885798884204275,0.003820965677894694
1.5034328234364764,0.01793079665045714,0.04129399028802546,0.01416864675154985,0.01882821955332416,0.004453634380611354
1.503504340591403,0.021792554285279486,0.04071096659088029,0.013806564009865633,0.017318144352303083,0.00479191468474551
1.5035758577463296,0.026283745634476982,0.044013992190713634,0.015751292513310384,0.0177936892337036,0.006330520896841765
1.5036473749012562,0.03053094650102892,0.05078618870646392,0.019003856556851165,0.02161558656610209,0.007574337052451472
1.5037188920561828,0.03389868374654469,0.059793850853678006,0.02304438568669538,0.027739554164359987,0.008515975364296635
1.5037904092111094,0.03619247413189749,0.0704221223286562,0.02836367437687625,0.033886767197041076,0.010599475932986267
1.503861926366036,0.03764566473947448,0.07855120402020194,0.03246316988130233,0.03928266997114515,0.011918224850276458
1.5039334435209626,0.038716510453014726,0.08282651867754624,0.03408384953452373,0.045361860241179934,0.010706588830902792
1.5040049606758892,0.0398171228344044,0.08477883074949309,0.03557140334761458,0.04899186551558339,0.010451347507213856
1.5040764778308158,0.041095739566223526,0.0888820549850448,0.037525773851031737,0.05245669273329721,0.010689660484749909
1.5041479949857424,0.04234364882306056,0.0931522813910924,0.038887791087543686,0.055583266585726356,0.010543204232679224
1.504219512140669,0.043051695709888996,0.0952556581819814,0.03921573232033744,0.058243155083684967,0.0096696493372401
1.5042910292955955,0.04260283060723393,0.09014237828663105,0.036347749549566495,0.05977194041731663,0.006411442212375474
1.5043625464505221,0.04053910287302065,0.07728805312110344,0.030363706364527798,0.058226446376804575,0.0016981505629641875
1.5044340636054487,0.03679439695722014,0.06042000119842746,0.02344001313236871,0.05304114028717713,-0.002254816142150996
1.5045055807603753,0.03178229372791513,0.04553613111556928,0.01698689592080203,0.0475947955077905,-0.005664267462283643
1.504577097915302,0.026296542555493532,0.0353289325648572,0.012446934359831944,0.042295711924445735,-0.007414667612273667
1.5046486150702285,0.021278189004975218,0.031235504217989,0.011187449324425095,0.037451826260283504,-0.0064152206951663075
1.504720132225155,0.017555651134353225,0.029574048389974926,0.011283372248322305,0.033798907473512156,-0.004721823403810684
1.5047916493800817,0.01564621916050789,0.027798952150017764,0.010644076718018416,0.03135276432498073,-0.004220452935082569
1.5048631665350083,0.015656872938766518,0.02461071833336684,0.009217644422453899,0.02830823312498215,-0.004163409830196436
1.5049346836899349,0.017286051262519187,0.022294503766112642,0.008230188330603324,0.02535616212165382,-0.0037525630286749582
1.5050062008448615,0.019918755698584013,0.022032613213958874,0.007905738300784866,0.022378706801881098,-0.0027348966584974837
1.505077717999788,0.022804926807040774,0.024524059921183925,0.009361654152707073,0.0204251101058525,-0.0005678094624928915
1.5051492351547147,0.025289013466251117,0.030585059663554317,0.011726326065843064,0.02321833087545115,0.00032914075085361063
1.5052207523096413,0.027015644551186973,0.03663568372956196,0.014241445734319206,0.025688904648319185,0.0015034516110097405
1.5052922694645678,0.028012475009877,0.039319706456802155,0.015961322224474977,0.02616853972578216,0.0028384999092381912
1.5053637866194944,0.028596359216805502,0.03528999717059914,0.014919408532213189,0.02417135468408601,0.0027799034995786022
1.505435303774421,0.02915112616185344,0.027062991454054504,0.013309044659559194,0.019572341864583887,0.0033541176315187837
1.5055068209293476,0.029900153036102176,0.02105285725818845,0.012321918805932341,0.01554847531577932,0.0042356071926077914
1.5055783380842742,0.030782681811496897,0.020017389528654804,0.01250866989698158,0.01330442448091387,0.005389601228043317
1.5056498552392008,0.03146961942071043,0.023120338813710086,0.013496870470295333,0.013655637386238307,0.0061231609909490866
1.5057213723941274,0.03149161794629547,0.025345870402624184,0.013134126432083434,0.015097806105307815,0.005163459393392143
1.505792889549054,0.030427310908792447,0.025299147748441667,0.011855838401314541,0.017629215355843122,0.002902322384306428
1.5058644067039806,0.02809465201809536,0.023060384353108972,0.009674998552531539,0.018972431237398293,0.0003523357203553204
1.5059359238589072,0.024683284499830333,0.019255717637905612,0.006168765257997816,0.019252545185093946,-0.002921101187019349
1.5060074410138338,0.020766913938386953,0.01692656319197652,0.003987129865862614,0.01873511846987467,-0.004653627896753682
1.5060789581687604,0.017165658691511196,0.01841620924388267,0.004506773893992003,0.01755990654633955,-0.0036701083887989414
1.506150475323687,0.014695536880755058,0.02176356489264379,0.005603202541494299,0.01755261204021779,-0.0026818735081360857
1.5062219924786135,0.013907828977730352,0.024643167135231053,0.006474304461408025,0.017669872655721598,-0.0019508088167191349
1.5062935096335401,0.014929925183180436,0.024954994058564585,0.007024475314287043,0.015791452093693276,-0.0006307832261849508
1.5063650267884667,0.01746107614733839,0.023616593818958535,0.006681651925523114,0.015070554716888309,-0.0006218918278268351
1.5064365439433933,0.020900617081537138,0.0254936877131908,0.008103902228742074,0.014529263094015582,0.0008937995828479336
1.50650806109832,0.024545654709518663,0.030669318000910537,0.01119024144466396,0.013552958258563801,0.0040957995279820355
1.5065795782532465,0.027795889555703463,0.04014136717676942,0.015188716512202768,0.01654407650126817,0.006374097843848252
1.506651095408173,0.030315638754338018,0.05228413762211803,0.02020329875354711,0.021210877127296128,0.008830306498504734
1.5067226125630997,0.03210575674634778,0.06438988477285999,0.02516307524326057,0.02647163604024457,0.010978203153371804
1.5067941297180263,0.03344435853615213,0.07176516139329163,0.02809340030703321,0.031309166438577056,0.011488679587334289
1.5068656468729529,0.03469846610783441,0.07281502809795702,0.028836225363534616,0.03406904798239371,0.010944551952802431
1.5069371640278795,0.03608805388876267,0.07154281240507464,0.029158238083419115,0.03495362768270883,0.010845670579648947
1.507008681182806,0.03753193323000867,0.07114475138932311,0.029645090979329304,0.03629081635560611,0.010696284007085543
1.5070801983377327,0.038657419159163646,0.07125938159177429,0.03000532215028713,0.03711862533444568,0.010656763485181846
1.5071517154926592,0.038950459296790155,0.06962158812059367,0.029635790998015537,0.03672942795450609,0.010495214616489074
1.5072232326475858,0.03795818995272562,0.06295494578256632,0.026170643808596194,0.03657884385845661,0.007443500777660864
1.5072947498025124,0.035465807062779846,0.0542014926308399,0.02167628316777021,0.03586009719063781,0.0037165050747853304
1.507366266957439,0.03160750390290827,0.04660999114777504,0.01779655130545853,0.03417778446447773,0.0009671344563944983
1.5074377841123656,0.02689036393457737,0.040234493570296015,0.014369878001425985,0.032349239316507065,-0.0013096154336132257
1.5075093012672922,0.022110982309926926,0.03449383707112809,0.012274203971852665,0.029402399228313354,-0.0018974964845632806
1.5075808184222188,0.018158898886019043,0.030769916411301296,0.010838451012952628,0.02780580712888118,-0.002485820035889693
1.5076523355771454,0.015750547010193554,0.02801103561399132,0.009985828883372298,0.025940054069223187,-0.002431641531024837
1.507723852732072,0.015198153002695225,0.023181495847031875,0.008495434228764531,0.02226890779475679,-0.0021567535335005254
1.5077953698869986,0.01632710132796861,0.017033805704741996,0.006411917338543193,0.018146539979760117,-0.0022164096663401
1.5078668870419252,0.01858159605132472,0.012234355226126526,0.00521914285473996,0.013511954427851348,-0.0012506640873321117
1.5079384041968518,0.02125563485920751,0.009251793338021464,0.005152249488431391,0.008324354996973551,0.000969397614515992
1.5080099213517784,0.023737553869918368,0.00865631119016975,0.0057615299185219465,0.005432491461763669,0.0027877019006309987
1.508081438506705,0.025680396681245936,0.010723309653340162,0.007453924502377228,0.00399221400462402,0.004940939975861784
1.5081529556616315,0.027059576075294776,0.012902582851266333,0.008842952470356694,0.0029457317711469085,0.006648584221994413
1.5082244728165581,0.028112039179855254,0.012199447140665138,0.008942296206187028,0.0016092722164943473,0.007325148013018786
1.5082959899714847,0.029172386947160022,0.00974798290528052,0.008780907310022895,0.000649917604614629,0.007601780712636195
1.5083675071264113,0.03045818310099522,0.009481178930916196,0.010026451111954632,0.0001410933005376858,0.008944217421763484
1.508439024281338,0.03190386747651281,0.014205121823694124,0.012747040105629182,0.001306651582279256,0.010875878795578492
1.5085105414362645,0.03314377564440417,0.02165442152647442,0.01600259242207933,0.003974061540919902,0.012628420665574
1.508582058591191,0.03366149064758627,0.028002041016935635,0.0186299276568245,0.006478185407516496,0.013888726192459266
1.5086535757461177,0.03301661123576188,0.02846729314240925,0.017302793300784304,0.008254890213775682,0.01191579468577629
1.5087250929010443,0.031031763736761156,0.023827828030619228,0.013978643770450466,0.009253427614665074,0.008490448700971718
1.5087966100559709,0.02787943173947238,0.017425989848461887,0.009773118861112214,0.00895829546405455,0.004841874570174064
1.5088681272108975,0.024071143965329337,0.011712126736323571,0.005405399448016361,0.008957294854682352,0.000918615587060023
1.508939644365824,0.020368522042175177,0.007263697990195546,0.002619426200917792,0.007221895344789485,-0.0008212443781883574
1.5090111615207507,0.017622660517009992,0.005513745125473176,0.001280243020763253,0.006190899227191524,-0.001571029564788628
1.5090826786756772,0.016549556574789192,0.004942556745644101,0.001094148915450876,0.00659949617575361,-0.0019177793014809362
1.5091541958306038,0.01749078347259404,0.004639895015539564,0.001728275756159572,0.006523033272248955,-0.0013145634175511
1.5092257129855304,0.02026609634215111,0.004886025676497742,0.002622344403247119,0.004716534896564807,0.0002825331441736475
1.509297230140457,0.024225306810832306,0.008818397790474148,0.005090188490138515,0.0034925755832930093,0.0030372386161950605
1.5093687472953836,0.028505184243561566,0.018642888541122105,0.010396256019729185,0.003648802820476099,0.007734944981892159
1.5094402644503102,0.032363241212534366,0.03263682695948713,0.017181792517199104,0.006353960611125366,0.012642221927080718
1.5095117816052368,0.035420479974014,0.04840394246869581,0.023785576506019895,0.011009905231771271,0.016530918003884277
1.5095832987601634,0.03772295943106026,0.060234194461900065,0.028541189697550762,0.01508401416274182,0.01901635848389445
1.50965481591509,0.039632532833370364,0.06421498747819426,0.030196375009199177,0.01796331328359942,0.0192403703833795
1.5097263330700166,0.041605230836871475,0.05912940577994379,0.028415936049993602,0.018392835845978905,0.01745102245508579
1.5097978502249432,0.04392716574129624,0.05024138820135252,0.026087173799228647,0.015195583868568435,0.016761418485428604
1.5098693673798698,0.04649881119729661,0.04481999765980905,0.025125670272120693,0.011557156147083778,0.01749494666610155
1.5099408845347964,0.048782229516577,0.044745296831937835,0.025898717163670308,0.010523062634554442,0.018643800556717802
1.510012401689723,0.04998265464348263,0.047977293197512774,0.027970420605425636,0.010832256831101348,0.020369992586476905
1.5100839188446495,0.04939582665258717,0.048774116256815186,0.02744804663090382,0.01175907797539989,0.019493563525208014
1.5101554359995761,0.046726633743720845,0.04597269482349588,0.024915387052692306,0.012247346294468142,0.017002865664612392
1.5102269531545027,0.04221494386441091,0.042388204798094783,0.022036546886626967,0.012345282013969193,0.014372591368762384
1.5102984703094293,0.0365554045951188,0.04039244101858697,0.019143160662124768,0.013070814819546089,0.01145372431104503
1.510369987464356,0.030705701566729478,0.0406050465767013,0.01712115674686206,0.014229721069863172,0.009127553005032667
1.5104415046192825,0.025671938650474672,0.042394001171190396,0.016152578444133103,0.015130750938937688,0.007861279308324004
1.510513021774209,0.02230380117340663,0.04438789770761147,0.01595046449902194,0.016489081110794106,0.007082790812689049
1.5105845389291357,0.02110478427342222,0.042126470054551494,0.014310671393420193,0.016280605747683072,0.005700865459280657
1.5106560560840623,0.022087028251984653,0.034459515797577105,0.011927341615445858,0.012543974855011296,0.0052014790588068216
1.5107275732389889,0.02474352062355467,0.022765180084068543,0.008315005741078718,0.007261614487024281,0.004277626688669538
1.5107990903939155,0.028206425428266402,0.013411057838279773,0.006455089330600415,0.0006365209118957497,0.00551848362034957
1.510870607548842,0.03156791810921427,0.008473985961029029,0.006924877381908108,-0.0047064974564553184,0.008288695351560335
1.5109421247037687,0.034217944840168574,0.008216231103706405,0.0085255112555674,-0.007309191588839353,0.010870326074744162
1.5110136418586952,0.036025983655989566,0.01186342910433469,0.01161661354179527,-0.007819963348342406,0.013871226756189924
1.5110851590136218,0.03729532439305516,0.01402012387035357,0.013294021431409462,-0.00709154895876076,0.015057724768126593
1.5111566761685484,0.03854470610167679,0.012808671148828556,0.013163190298163863,-0.005550178559676915,0.014262825579634026
1.511228193323475,0.04022460916569971,0.011198450107870808,0.013651672900344249,-0.005594087418260873,0.014720882032873805
1.5112997104784016,0.04246467581659284,0.012497476372202988,0.01442102957265151,-0.005171402948608184,0.015226180415511081
1.5113712276333282,0.04493429586497486,0.01885593803173064,0.016921655013448497,-0.0032372627376271207,0.016622442549356537
1.5114427447882548,0.04689231770787431,0.02655010465078581,0.019784155718843215,-0.0009641469302923158,0.018195097907286212
1.5115142619431814,0.047454803887083834,0.030421161968622462,0.02007376929597759,0.0021834365011943824,0.017072555280480663
