freq,gls,usurper,pdc_unbiased,shape_periodogram,shift_periodogram
1.5,0.031605246424144244,0.030609485141037108,0.022003088454338578,0.0469966397055413,-0.011547349153164693
1.5000715171549266,0.028595336453250155,0.02407042682325091,0.01679692217781675,0.038210670408384696,-0.01024914225658303
1.5001430343098532,0.024797888546036324,0.018460601830943186,0.011419584810450916,0.030872213567037586,-0.009977159783935348
1.5002145514647798,0.020789812632417533,0.016752798543342873,0.008796510756732951,0.02444875324253645,-0.008095071855003239
1.5002860686197064,0.017345459787468324,0.019417829438921244,0.009479677332466734,0.021332364748467357,-0.005639306376092
1.500357585774633,0.015271945925960987,0.024042363605648664,0.011714688134418397,0.020531886543674573,-0.003383651949094169
1.5004291029295596,0.015165201318802408,0.029373633324715074,0.01415548030345099,0.02392256132089846,-0.003542998451224485
1.5005006200844861,0.01716595655706576,0.03437880644508556,0.016954003693511403,0.02682614144036595,-0.0031202437006633155
1.5005721372394127,0.02086274426290797,0.03814693562157262,0.019187221778694714,0.030037714075359774,-0.003332891418324443
1.5006436543943393,0.02544081002802935,0.04133986520118269,0.02137618975240262,0.033328761882804786,-0.0036292260701323202
1.500715171549266,0.03000884122307953,0.04472554024909613,0.02421994995090846,0.036245461759257566,-0.003177874614003707
1.5007866887041925,0.03391266896856934,0.0486526351148276,0.02666061786266369,0.0439855932333666,-0.006013284844851165
1.500858205859119,0.0368882624749449,0.05309042748984142,0.029368029530911475,0.05416759854301789,-0.010143936497043614
1.5009297230140457,0.0390355018056212,0.05786458021603381,0.03287087235373193,0.06699725661420305,-0.015283017390778073
1.5010012401689723,0.04067274274449097,0.05930545891221974,0.0349635290275476,0.0776637985319083,-0.020211786767307505
1.5010727573238989,0.04213722341942038,0.059169585864512486,0.036798409825528795,0.08524503021652922,-0.023444702708058533
1.5011442744788255,0.043587855733941964,0.05882528261245011,0.03793328428010061,0.09169807747095408,-0.026538627712294746
1.501215791633752,0.044880915226329254,0.05819503847719574,0.03824814004694497,0.0960831647661415,-0.029005225681122262
1.5012873087886787,0.045592465454410994,0.058926798498912636,0.03896037083855539,0.10033474643247282,-0.031075908472884276
1.5013588259436053,0.04519857422015515,0.05809924618975955,0.038338310339186395,0.10079479799429751,-0.031854718159714156
1.5014303430985318,0.04331902735671992,0.05453027550223772,0.03525172960142179,0.09885947991581896,-0.03310216352979255
1.5015018602534584,0.03989064242203222,0.046854039345681636,0.029380562295107576,0.09302079560173182,-0.03413448867812324
1.501573377408385,0.035207008956161204,0.037863049915776714,0.02275340008029923,0.08549533989699463,-0.03471809827525203
1.5016448945633116,0.029854908046904056,0.029653944810255354,0.01716592382272006,0.07536296221932272,-0.03286772861000345
1.5017164117182382,0.02460404968418353,0.022777838703159557,0.01272729457488559,0.06431166759337184,-0.029547896289285384
1.5017879288731648,0.020274028275387688,0.018770455903582867,0.010756457121333964,0.054643574551511157,-0.02514006716211882
1.5018594460280914,0.01756978332877583,0.016965041092201694,0.009814843547662735,0.04822245376657078,-0.02192578878997221
1.501930963183018,0.016887968997375314,0.016837679368984015,0.009773529530205848,0.041653340105277985,-0.017912170435293348
1.5020024803379446,0.018154766828972088,0.016234373735149216,0.009545857603491862,0.03572853107359419,-0.014444274753450193
1.5020739974928712,0.020807783027131654,0.016978064536516256,0.00997328939183271,0.03129902315559043,-0.011381012493717292
1.5021455146477978,0.023992628107040868,0.01958283566709527,0.01144212206274167,0.029425100108468157,-0.009069002400380291
1.5022170318027244,0.026898257150269028,0.02414730864165582,0.014028974316248104,0.03213478653262561,-0.008694783121637495
1.502288548957651,0.029041972437567,0.02890327491332593,0.016679671046279716,0.03763372114838789,-0.009986581903828916
1.5023600661125776,0.03036170293294545,0.034004006244465354,0.019990738498687276,0.04515691740629691,-0.012003863081141819
1.5024315832675041,0.031115659296329378,0.03465815089160727,0.02077896981185265,0.05161919306014285,-0.015362049952958992
1.5025031004224307,0.031680428730509906,0.031826535323568876,0.019519808615351825,0.05528884672274102,-0.01861840234445794
1.5025746175773573,0.032340192227813126,0.028088798336821163,0.018649627815208736,0.05543821696434791,-0.01939784230304597
1.502646134732284,0.033131945974426154,0.025384264087641373,0.017871043624403338,0.053083848102078494,-0.018561553518532833
1.5027176518872105,0.033797027787609374,0.02486923746731802,0.01799769758677829,0.05202353766328927,-0.017808061459118174
1.502789169042137,0.033871437590867574,0.023539914146498926,0.017486670760106647,0.04980401117463173,-0.01684396807304726
1.5028606861970637,0.03289397904446062,0.020363055195184037,0.015274482970942199,0.04627490914545323,-0.01641659643175687
1.5029322033519903,0.030638444170610023,0.016796892376814865,0.012011118949132128,0.042512265373843346,-0.01667523764438436
1.5030037205069169,0.02725242384486997,0.014895511854700241,0.009441040885373031,0.0392539514389215,-0.0166971808754898
1.5030752376618435,0.023245599290448483,0.0163491296352973,0.008606550278537486,0.03709371564160068,-0.01602574864789611
1.50314675481677,0.019358366958489085,0.019701651092387373,0.008953985446160287,0.03535842616643056,-0.01468348368850664
1.5032182719716967,0.01638051368297583,0.023940665991743583,0.010426555451109277,0.03421421503633706,-0.01281732015981326
1.5032897891266233,0.01497089818834955,0.028111193799402568,0.012350463029946239,0.03344436307079013,-0.010825330110977397
1.5033613062815498,0.015499460648454992,0.0315184926007513,0.013981854206916533,0.03260337908769606,-0.009020310880482024
1.5034328234364764,0.01793079665045714,0.03199922566590034,0.01416864675154985,0.02973322583227115,-0.007106932508110745
1.503504340591403,0.021792554285279486,0.031407131159168065,0.013806564009865633,0.026500305945558803,-0.0054038698107035195
1.5035758577463296,0.026283745634476982,0.03393151845756169,0.015751292513310384,0.0259108537283849,-0.003506526241820187
1.5036473749012562,0.03053094650102892,0.03905270398644428,0.019003856556851165,0.031093739245663415,-0.0041272997302453426
1.5037188920561828,0.03389868374654469,0.04588697396785067,0.02304438568669538,0.041837705226737604,-0.00754819585720272
1.5037904092111094,0.03619247413189749,0.05429289528542151,0.02836367437687625,0.054526332872542084,-0.0111591344778832
1.503861926366036,0.03764566473947448,0.06049876465105637,0.03246316988130233,0.06699110333134356,-0.015601896536536639
1.5039334435209626,0.038716510453014726,0.06331406555542408,0.03408384953452373,0.07821029067206887,-0.02124616879862087
1.5040049606758892,0.0398171228344044,0.0645014747069896,0.03557140334761458,0.08668337302366375,-0.02530687951048898
1.5040764778308158,0.041095739566223526,0.06762585060091006,0.037525773851031737,0.09329185279573429,-0.02784875033858894
1.5041479949857424,0.04234364882306056,0.07088454786814127,0.038887791087543686,0.09883703613857431,-0.030204797862257656
1.504219512140669,0.043051695709888996,0.07230307009789497,0.03921573232033744,0.10295846059035449,-0.03250083976960966
1.5042910292955955,0.04260283060723393,0.067911172898399,0.036347749549566495,0.1034337842499844,-0.03507086955427215
1.5043625464505221,0.04053910287302065,0.05750078784626227,0.030363706364527798,0.09855812563868466,-0.03678849029843864
1.5044340636054487,0.03679439695722014,0.04421528685012185,0.02344001313236871,0.08849801266227142,-0.03603396723251896
1.5045055807603753,0.03178229372791513,0.03258374496361607,0.01698689592080203,0.07818041216960657,-0.034750807207018966
1.504577097915302,0.026296542555493532,0.024621093416361622,0.012446934359831944,0.0675814115602894,-0.03178762952336445
1.5046486150702285,0.021278189004975218,0.021660733712442842,0.011187449324425095,0.05847471433300084,-0.027162285639584324
1.504720132225155,0.017555651134353225,0.02084184569045939,0.011283372248322305,0.05088290697687909,-0.022406171055174902
1.5047916493800817,0.01564621916050789,0.01992902478838928,0.010644076718018416,0.044956840637248294,-0.01925966729280074
1.5048631665350083,0.015656872938766518,0.017918035104301868,0.009217644422453899,0.03770355077632904,-0.01591898033976443
1.5049346836899349,0.017286051262519187,0.016557507150739698,0.008230188330603324,0.031226357906023437,-0.01271160809018639
1.5050062008448615,0.019918755698584013,0.01663119757149099,0.007905738300784866,0.025886708594977027,-0.009682368028796219
1.505077717999788,0.022804926807040774,0.01899156887128579,0.009361654152707073,0.022553526830223908,-0.006483482412378382
1.5051492351547147,0.025289013466251117,0.02403146926745976,0.011726326065843064,0.026609924792268366,-0.007112845877054986
1.5052207523096413,0.027015644551186973,0.02909125985526121,0.014241445734319206,0.032932937139363856,-0.009018218918037241
1.5052922694645678,0.028012475009877,0.031651384535735995,0.015961322224474977,0.037914193266708425,-0.010726313158181929
1.5053637866194944,0.028596359216805502,0.02840691080334332,0.014919408532213189,0.03956302219557058,-0.01256379024247562
1.505435303774421,0.02915112616185344,0.021787204841092114,0.013309044659559194,0.03789929197256457,-0.012810706370620465
1.5055068209293476,0.029900153036102176,0.017139507352108122,0.012321918805932341,0.03525497528939396,-0.011962156738752302
1.5055783380842742,0.030782681811496897,0.016365297019720202,0.01250866989698158,0.033790036456048216,-0.010913202872850745
1.5056498552392008,0.03146961942071043,0.01859873387867255,0.013496870470295333,0.035715569530358246,-0.011318338529485534
1.5057213723941274,0.03149161794629547,0.0197669721961578,0.013134126432083434,0.03845908494889066,-0.013293362766979608
1.505792889549054,0.030427310908792447,0.01953997052086093,0.011855838401314541,0.04003564192484451,-0.01527282974682403
1.5058644067039806,0.02809465201809536,0.017622238737495754,0.009674998552531539,0.03943890936581235,-0.016626442385010175
1.5059359238589072,0.024683284499830333,0.014058163929130068,0.006168765257997816,0.037527523651233095,-0.018216102477100482
1.5060074410138338,0.020766913938386953,0.011746584046534293,0.003987129865862614,0.034501122917329076,-0.018074193841696038
1.5060789581687604,0.017165658691511196,0.012807340080702462,0.004506773893992003,0.031124416729655706,-0.015586222452368306
1.506150475323687,0.014695536880755058,0.015346565894277332,0.005603202541494299,0.02891731786912517,-0.013363277798424085
1.5062219924786135,0.013907828977730352,0.017646280593129452,0.006474304461408025,0.02676505200859373,-0.011351955468092319
1.5062935096335401,0.014929925183180436,0.018124298685115267,0.007024475314287043,0.02239946121616824,-0.008232532492268773
1.5063650267884667,0.01746107614733839,0.01708327650863137,0.006681651925523114,0.01846137681868927,-0.006080967000106993
1.5064365439433933,0.020900617081537138,0.018583806786631078,0.008103902228742074,0.015935480191502024,-0.0034057488238528216
1.50650806109832,0.024545654709518663,0.02262007281723837,0.01119024144466396,0.01462772365875407,-0.00016685033848546678
1.5065795782532465,0.027795889555703463,0.029674010291117322,0.015188716512202768,0.020528213305754536,-0.0006401577057671659
1.506651095408173,0.030315638754338018,0.03892505718479706,0.02020329875354711,0.029928006264985416,-0.0024632188329013083
1.5067226125630997,0.03210575674634778,0.048212677563243836,0.02516307524326057,0.04143290739536858,-0.005625230776908341
1.5067941297180263,0.03344435853615213,0.053574458307307164,0.02809340030703321,0.05151531275503051,-0.009517700306639572
1.5068656468729529,0.03469846610783441,0.054011595165235904,0.028836225363534616,0.05735521698333152,-0.01252889184925587
1.5069371640278795,0.03608805388876267,0.05294774813636726,0.029158238083419115,0.05992572731377961,-0.013858867655951745
1.507008681182806,0.03753193323000867,0.052712099779154205,0.029645090979329304,0.06235834952032799,-0.014973838485999102
1.5070801983377327,0.038657419159163646,0.05303234874827422,0.03000532215028713,0.06384878629942246,-0.01560814062322414
1.5071517154926592,0.038950459296790155,0.05191254923669188,0.029635790998015537,0.0634193939946727,-0.015635605947049616
1.5072232326475858,0.03795818995272562,0.046644817779535545,0.026170643808596194,0.06113308010359178,-0.01696584918085548
1.5072947498025124,0.035465807062779846,0.03988845486969828,0.02167628316777021,0.056964698871219965,-0.017947831953807076
1.507366266957439,0.03160750390290827,0.03423698203154633,0.01779655130545853,0.0524000455892253,-0.018198951454154354
1.5074377841123656,0.02689036393457737,0.02935415612569468,0.014369878001425985,0.04821024222033688,-0.01832296790963402
1.5075093012672922,0.022110982309926926,0.024975679666696508,0.012274203971852665,0.0430727379020829,-0.016812743652185994
1.5075808184222188,0.018158898886019043,0.022132070452684748,0.010838451012952628,0.03972709048689133,-0.015885765060666517
1.5076523355771454,0.015750547010193554,0.020507130444791195,0.009985828883372298,0.036135662427230125,-0.014347704002990042
1.507723852732072,0.015198153002695225,0.017493237167850756,0.008495434228764531,0.030289023584827424,-0.011925575464304266
1.5077953698869986,0.01632710132796861,0.01341957013121552,0.006411917338543193,0.02303107795149527,-0.009104247117605267
1.5078668870419252,0.01858159605132472,0.010464565911283887,0.00521914285473996,0.015866308800679917,-0.005638762784126054
1.5079384041968518,0.02125563485920751,0.008734711357993719,0.005152249488431391,0.008891512890752571,-0.001402907816267728
1.5080099213517784,0.023737553869918368,0.008667857268972543,0.0057615299185219465,0.006085291670510334,0.0008029577840689559
1.508081438506705,0.025680396681245936,0.0106941752823436,0.007453924502377228,0.006775952430427515,0.0017132285617324063
1.5081529556616315,0.027059576075294776,0.012570319707926832,0.008842952470356694,0.00932174699734588,0.0012437313624051787
1.5082244728165581,0.028112039179855254,0.011793485434713338,0.008942296206187028,0.010847921969011274,0.00038378122814978165
1.5082959899714847,0.029172386947160022,0.009425118456067031,0.008780907310022895,0.011742046668640331,-0.00029326297204594116
1.5083675071264113,0.03045818310099522,0.00918687541467371,0.010026451111954632,0.01319264569458308,-0.0002025996328946193
1.508439024281338,0.03190386747651281,0.013194675244609452,0.012747040105629182,0.01666562844991984,-0.00019165215722095446
1.5085105414362645,0.03314377564440417,0.019304466190156033,0.01600259242207933,0.022225957883515043,-0.0010419101348974722
1.508582058591191,0.03366149064758627,0.02426765093227695,0.0186299276568245,0.027434107042783817,-0.0021713089571898984
1.5086535757461177,0.03301661123576188,0.0241388285278582,0.017302793300784304,0.029396410040320866,-0.0044259783732407436
1.5087250929010443,0.031031763736761156,0.0201079646672242,0.013978643770450466,0.028271244570513263,-0.006357465832351902
1.5087966100559709,0.02787943173947238,0.014768675254184628,0.009773118861112214,0.024771557540481326,-0.0075231305075280025
1.5088681272108975,0.024071143965329337,0.009801787554724278,0.005405399448016361,0.021419578514845654,-0.008907034156238117
1.508939644365824,0.020368522042175177,0.005720088576605111,0.002619426200917792,0.01724014656255588,-0.008534142330356187
1.5090111615207507,0.017622660517009992,0.003659592013202766,0.001280243020763253,0.015357306318963471,-0.008432529796850984
1.5090826786756772,0.016549556574789192,0.0029655433157065353,0.001094148915450876,0.014706628258608618,-0.008179185156374889
1.5091541958306038,0.01749078347259404,0.003027533371498923,0.001728275756159572,0.012919744119286581,-0.006580288213391619
1.5092257129855304,0.02026609634215111,0.003601073621131492,0.002622344403247119,0.009716096535295014,-0.0039053115382875745
1.509297230140457,0.024225306810832306,0.007098156250820195,0.005090188490138515,0.007774156664600312,-0.0007648836703357019
1.5093687472953836,0.028505184243561566,0.015169411110363422,0.010396256019729185,0.008371449946953777,0.003053250365035487
1.5094402644503102,0.032363241212534366,0.026384746688615533,0.017181792517199104,0.013472411471671865,0.00527076938022085
1.5095117816052368,0.035420479974014,0.03874416423639179,0.023785576506019895,0.022038370729093114,0.005216918256561088
1.5095832987601634,0.03772295943106026,0.047990627609282056,0.028541189697550762,0.029525256921991167,0.00436927332818891
1.50965481591509,0.039632532833370364,0.05080488639645876,0.030196375009199177,0.03445254362033125,0.0026468336095406136
1.5097263330700166,0.041605230836871475,0.04603781066429741,0.028415936049993602,0.03554489155942705,0.000568038989852409
1.5097978502249432,0.04392716574129624,0.03862567027305875,0.026087173799228647,0.03174065217422384,0.0010683150373309509
1.5098693673798698,0.04649881119729661,0.03442619254861649,0.025125670272120693,0.027094257974367576,0.0031664161309346997
1.5099408845347964,0.048782229516577,0.034798419559878425,0.025898717163670308,0.025995164256976223,0.004452733779479047
1.510012401689723,0.04998265464348263,0.03798557962377709,0.027970420605425636,0.027028801083488745,0.005453423579976402
1.5100839188446495,0.04939582665258717,0.03870617104247756,0.02744804663090382,0.0273505666878704,0.004842982598668272
1.5101554359995761,0.046726633743720845,0.03637255588030022,0.024915387052692306,0.025976912403448387,0.003687420039986474
1.5102269531545027,0.04221494386441091,0.03358254484455047,0.022036546886626967,0.023583223164012644,0.002886221646355194
1.5102984703094293,0.0365554045951188,0.03193346710620727,0.019143160662124768,0.02287414493743062,0.0010382007637645728
1.510369987464356,0.030705701566729478,0.031887041573270776,0.01712115674686206,0.023167164244867394,-0.0007379344715704338
1.5104415046192825,0.025671938650474672,0.03303260635102542,0.016152578444133103,0.02472826845846419,-0.002462461263211757
1.510513021774209,0.02230380117340663,0.034770314794223926,0.01595046449902194,0.02726384242433368,-0.004181551027987865
1.5105845389291357,0.02110478427342222,0.03346099452214781,0.014310671393420193,0.027326578809712173,-0.005514310337407295
1.5106560560840623,0.022087028251984653,0.02831042812038594,0.011927341615445858,0.022578406298943872,-0.00447448531674732
1.5107275732389889,0.02474352062355467,0.019894693124202903,0.008315005741078718,0.015279410700228277,-0.0028357975466996193
1.5107990903939155,0.028206425428266402,0.013367226934683162,0.006455089330600415,0.007929493470706693,0.0002161828584733676
1.510870607548842,0.03156791810921427,0.010165011433512314,0.006924877381908108,0.0031405019613293048,0.0035309470579884023
1.5109421247037687,0.034217944840168574,0.010258614579168846,0.0085255112555674,0.0034187018409859334,0.004622410360242449
1.5110136418586952,0.036025983655989566,0.013528556256997247,0.01161661354179527,0.006742921870052419,0.005017072599357513
1.5110851590136218,0.03729532439305516,0.015166630349765616,0.013294021431409462,0.011295336513393765,0.003541699021749995
1.5111566761685484,0.03854470610167679,0.013585667617742398,0.013163190298163863,0.01563844391873871,0.0007682689014772515
1.511228193323475,0.04022460916569971,0.0119360063292871,0.013651672900344249,0.017391535201809687,7.576494235143753e-05
1.5112997104784016,0.04246467581659284,0.012718243451960348,0.01442102957265151,0.018664492829822365,-9.990540410455806e-05
1.5113712276333282,0.04493429586497486,0.017828009674717597,0.016921655013448497,0.021852444469594886,-8.689137349064491e-05
1.5114427447882548,0.04689231770787431,0.023838830539887425,0.019784155718843215,0.02572083649555767,-0.00020642860479075666
1.5115142619431814,0.047454803887083834,0.02653976317867643,0.02007376929597759,0.028060362601345354,-0.00141668753640492
