freq,gls,usurper,pdc_unbiased,shape_periodogram,shift_periodogram
1.5,0.031605246424144244,0.03081016351574763,0.022003088454338578,0.03274140406921564,0.0017550530266657537
1.5000715171549266,0.028595336453250155,0.02410614924979801,0.01679692217781675,0.026947239016868036,0.000321470244846091
1.5001430343098532,0.024797888546036324,0.018303702092404932,0.011419584810450916,0.022669637433344138,-0.0020462004239308225
1.5002145514647798,0.020789812632417533,0.01629701756897427,0.008796510756732951,0.019323079641488588,-0.0025447649459340825
1.5002860686197064,0.017345459787468324,0.018755048515535416,0.009479677332466734,0.018540026397431842,-0.0015536118993040168
1.500357585774633,0.015271945925960987,0.023198432721161122,0.011714688134418397,0.01949573413881295,-0.00014191234119631386
1.5004291029295596,0.015165201318802408,0.028329525656469075,0.01415548030345099,0.02304968739776104,9.335335295706134e-05
1.5005006200844861,0.01716595655706576,0.03303533028851478,0.016954003693511403,0.025247830647037593,0.0013403703198548512
1.5005721372394127,0.02086274426290797,0.03663210991335568,0.019187221778694714,0.027029916505784842,0.0023212691091457197
1.5006436543943393,0.02544081002802935,0.03993888474992064,0.02137618975240262,0.02964836609268456,0.0028293191924912767
1.500715171549266,0.03000884122307953,0.043371367146644635,0.02421994995090846,0.031109871787762332,0.004499848265396027
1.5007866887041925,0.03391266896856934,0.04717758894646622,0.02666061786266369,0.03569491110694948,0.004200371227317254
1.500858205859119,0.0368882624749449,0.051405402150271076,0.029368029530911475,0.04185028967474374,0.0033118766338862205
1.5009297230140457,0.0390355018056212,0.05621774850732066,0.03287087235373193,0.04974414086498738,0.0021991003367888753
1.5010012401689723,0.04067274274449097,0.05794530747645339,0.0349635290275476,0.05552132886758422,0.0009813900347353044
1.5010727573238989,0.04213722341942038,0.05832428203419697,0.036798409825528795,0.05919753668600081,0.0006376967203264598
1.5011442744788255,0.043587855733941964,0.058511662807149464,0.03793328428010061,0.0628065575205934,-0.0002710320421311933
1.501215791633752,0.044880915226329254,0.05825646320378341,0.03824814004694497,0.0659056035750075,-0.0016173591175629154
1.5012873087886787,0.045592465454410994,0.05918203169030121,0.03896037083855539,0.0688817195190877,-0.0025591885529473867
1.5013588259436053,0.04519857422015515,0.05831208231378046,0.038338310339186395,0.06841732043343053,-0.0028504832617762817
1.5014303430985318,0.04331902735671992,0.05452381474058613,0.03525172960142179,0.06717774885502031,-0.004850658710717835
1.5015018602534584,0.03989064242203222,0.046726541908918645,0.029380562295107576,0.06360581818617941,-0.008018197251691615
1.501573377408385,0.035207008956161204,0.03771196964526352,0.02275340008029923,0.059609231450178615,-0.011607012155357338
1.5016448945633116,0.029854908046904056,0.029484872273455746,0.01716592382272006,0.05326660643536864,-0.013077886999617013
1.5017164117182382,0.02460404968418353,0.022797774941072817,0.01272729457488559,0.046697482316785784,-0.013446696546770394
1.5017879288731648,0.020274028275387688,0.018994798585058984,0.010756457121333964,0.0410507786843046,-0.012187247179306625
1.5018594460280914,0.01756978332877583,0.017293643740845827,0.009814843547662735,0.03791493870253471,-0.011357554804480195
1.501930963183018,0.016887968997375314,0.017014839538872673,0.009773529530205848,0.03471146176853493,-0.009723663388720065
1.5020024803379446,0.018154766828972088,0.016398459444728678,0.009545857603491862,0.03136767762503427,-0.008176293445207828
1.5020739974928712,0.020807783027131654,0.01718516001960828,0.00997328939183271,0.028972563528942664,-0.006563659635631732
1.5021455146477978,0.023992628107040868,0.019775638663560646,0.01144212206274167,0.028343194563212014,-0.004980980078068204
1.5022170318027244,0.026898257150269028,0.024161558295042018,0.014028974316248104,0.030537804655694417,-0.003913460774345826
1.502288548957651,0.029041972437567,0.028564217006716103,0.016679671046279716,0.03370112196719717,-0.003295494375748499
1.5023600661125776,0.03036170293294545,0.03333769876517515,0.019990738498687276,0.037858647200073606,-0.0026303668397462715
1.5024315832675041,0.031115659296329378,0.03394060011310613,0.02077896981185265,0.04023908924381006,-0.0031963824896423733
1.5025031004224307,0.031680428730509906,0.031338833980210146,0.019519808615351825,0.04131270797907274,-0.004832476960501884
1.5025746175773573,0.032340192227813126,0.02814866948355855,0.018649627815208736,0.0402011017996455,-0.004997352137242467
1.502646134732284,0.033131945974426154,0.025933186267211847,0.017871043624403338,0.03817880514913259,-0.004609426344486321
1.5027176518872105,0.033797027787609374,0.02567663922416956,0.01799769758677829,0.03709694807730081,-0.003937575010594972
1.502789169042137,0.033871437590867574,0.02455628546329704,0.017486670760106647,0.035160888731410773,-0.0033659794429572332
1.5028606861970637,0.03289397904446062,0.021416079226472658,0.015274482970942199,0.03259893083328385,-0.003922464812951051
1.5029322033519903,0.030638444170610023,0.01766307727871513,0.012011118949132128,0.030580065261137577,-0.005659726622886952
1.5030037205069169,0.02725242384486997,0.015517561142066255,0.009441040885373031,0.029663418373431318,-0.007378181724238469
1.5030752376618435,0.023245599290448483,0.016500729378476416,0.008606550278537486,0.029196766593619607,-0.007848056034975036
1.50314675481677,0.019358366958489085,0.019439998710969953,0.008953985446160287,0.02992082488955184,-0.007928350482996156
1.5032182719716967,0.01638051368297583,0.023469093682692774,0.010426555451109277,0.0308987482877852,-0.007179596204385608
1.5032897891266233,0.01497089818834955,0.027495061268622355,0.012350463029946239,0.03135101487080711,-0.005771291011478918
1.5033613062815498,0.015499460648454992,0.030599333704077983,0.013981854206916533,0.030932091048532052,-0.0041590610389014146
1.5034328234364764,0.01793079665045714,0.03081725737785062,0.01416864675154985,0.02793631277304626,-0.0024394484623201634
1.503504340591403,0.021792554285279486,0.030139869631756043,0.013806564009865633,0.02429303005986314,-0.0008520096047380913
1.5035758577463296,0.026283745634476982,0.032731524475301206,0.015751292513310384,0.023568737011793697,0.0011866776675678147
1.5036473749012562,0.03053094650102892,0.03782893851220895,0.019003856556851165,0.02670785027089568,0.002332197687720734
1.5037188920561828,0.03389868374654469,0.04447188963912594,0.02304438568669538,0.03318249325488583,0.002415742367457062
1.5037904092111094,0.03619247413189749,0.05252588953603432,0.02836367437687625,0.04106043210090215,0.0028637463212920324
1.503861926366036,0.03764566473947448,0.05852605244406255,0.03246316988130233,0.0484616798035418,0.0025180467783314417
1.5039334435209626,0.038716510453014726,0.06126416712397924,0.03408384953452373,0.05590101034405355,2.9816360502524148e-05
1.5040049606758892,0.0398171228344044,0.06268006569736137,0.03557140334761458,0.06124884135682999,-0.0014835551099041755
1.5040764778308158,0.041095739566223526,0.0658598255775323,0.037525773851031737,0.06625759440684421,-0.0024205067341674423
1.5041479949857424,0.04234364882306056,0.06901713560098553,0.038887791087543686,0.07133885380891379,-0.0039038854569332644
1.504219512140669,0.043051695709888996,0.07048272565864472,0.03921573232033744,0.07564261832895451,-0.005869757967910571
1.5042910292955955,0.04260283060723393,0.0661366639883004,0.036347749549566495,0.07650483219104717,-0.008781413664551754
1.5043625464505221,0.04053910287302065,0.055815744988258205,0.030363706364527798,0.07310389086770894,-0.01213610482140464
1.5044340636054487,0.03679439695722014,0.042971588939959775,0.02344001313236871,0.06588428480860462,-0.01429561734446827
1.5045055807603753,0.03178229372791513,0.03169794818180195,0.01698689592080203,0.058831301109240335,-0.016135185433739506
1.504577097915302,0.026296542555493532,0.02397436869478449,0.012446934359831944,0.052393905126774304,-0.016657783123470188
1.5046486150702285,0.021278189004975218,0.021254536999144587,0.011187449324425095,0.047211543046135215,-0.015031007751312534
1.504720132225155,0.017555651134353225,0.020659429531212508,0.011283372248322305,0.04314922321520272,-0.012830816079038548
1.5047916493800817,0.01564621916050789,0.019777269195265425,0.010644076718018416,0.03985443043341017,-0.011659730827375996
1.5048631665350083,0.015656872938766518,0.01779021252076384,0.009217644422453899,0.03542295464404882,-0.010569320266430716
1.5049346836899349,0.017286051262519187,0.01638689650243091,0.008230188330603324,0.03068477137444053,-0.008944602234673532
1.5050062008448615,0.019918755698584013,0.01633802742961069,0.007905738300784866,0.026173976675660956,-0.006872529128548517
1.505077717999788,0.022804926807040774,0.018597494418161224,0.009361654152707073,0.023009027526236455,-0.003980904202274018
1.5051492351547147,0.025289013466251117,0.02330552821980702,0.011726326065843064,0.025397955007160026,-0.0032045736245094303
1.5052207523096413,0.027015644551186973,0.02788543533515828,0.014241445734319206,0.028540783813273168,-0.0026919841608967227
1.5052922694645678,0.028012475009877,0.03011953980839622,0.015961322224474977,0.02987515732963798,-0.0019170512935864923
1.5053637866194944,0.028596359216805502,0.026915250981972474,0.014919408532213189,0.02781122185772006,-0.001732783330331454
1.505435303774421,0.02915112616185344,0.02094026637336026,0.013309044659559194,0.023173662790999437,-0.0006943633360290501
1.5055068209293476,0.029900153036102176,0.016918647657842435,0.012321918805932341,0.01985005541481644,0.00019239246694039824
1.5055783380842742,0.030782681811496897,0.016458293151727175,0.01250866989698158,0.018974833515002697,0.0008074852771211478
1.5056498552392008,0.03146961942071043,0.018795532045102255,0.013496870470295333,0.021013437634776783,0.000590599325569665
1.5057213723941274,0.03149161794629547,0.019923867751406067,0.013134126432083434,0.023841077515764728,-0.0011912522513719717
1.505792889549054,0.030427310908792447,0.01935079600430052,0.011855838401314541,0.026277748993202524,-0.003552004169767821
1.5058644067039806,0.02809465201809536,0.017160255414510873,0.009674998552531539,0.02720195061371128,-0.005896420815081354
1.5059359238589072,0.024683284499830333,0.013431616468709948,0.006168765257997816,0.027488391678845404,-0.0090407608150262
1.5060074410138338,0.020766913938386953,0.011125345747146465,0.003987129865862614,0.026820245722146936,-0.010556208882833868
1.5060789581687604,0.017165658691511196,0.012274237803367533,0.004506773893992003,0.025967602023984022,-0.009668335844166365
1.506150475323687,0.014695536880755058,0.014806452413171722,0.005603202541494299,0.02598721232815684,-0.008742060779585725
1.5062219924786135,0.013907828977730352,0.016882073469782363,0.006474304461408025,0.02483616260551653,-0.007398611438316717
1.5062935096335401,0.014929925183180436,0.01726852760465756,0.007024475314287043,0.021064323415900275,-0.004964816153559751
1.5063650267884667,0.01746107614733839,0.01626702215904201,0.006681651925523114,0.0175620565508901,-0.0034344109968537234
1.5064365439433933,0.020900617081537138,0.017764698982062142,0.008103902228742074,0.014649011739530683,-0.0007034038232285986
1.50650806109832,0.024545654709518663,0.021659219083384484,0.01119024144466396,0.012278348568743814,0.0031664612605726995
1.5065795782532465,0.027795889555703463,0.028290932614785998,0.015188716512202768,0.01481482979867292,0.005261964429533468
1.506651095408173,0.030315638754338018,0.036928815236825584,0.02020329875354711,0.020405534520761107,0.006637244439817664
1.5067226125630997,0.03210575674634778,0.045501669877741714,0.02516307524326057,0.027358770891737504,0.007258458825347735
1.5067941297180263,0.03344435853615213,0.05037184055842517,0.02809340030703321,0.032765987427855144,0.006950403142564057
1.5068656468729529,0.03469846610783441,0.050779844195033036,0.028836225363534616,0.035038036584417454,0.006403308086470371
1.5069371640278795,0.03608805388876267,0.04999037349576074,0.029158238083419115,0.03636491948586753,0.005988147655256537
1.507008681182806,0.03753193323000867,0.04997124794439524,0.029645090979329304,0.03886240063284883,0.005104624150836747
1.5070801983377327,0.038657419159163646,0.05027841417516161,0.03000532215028713,0.04102839327369283,0.004285202799849347
1.5071517154926592,0.038950459296790155,0.04923441196491167,0.029635790998015537,0.0418115638913086,0.0035611821636189144
1.5072232326475858,0.03795818995272562,0.04381766523835063,0.026170643808596194,0.0413845417564528,0.0008186236865318709
1.5072947498025124,0.035465807062779846,0.036966078225245474,0.02167628316777021,0.04019988942761501,-0.002408604130091671
1.507366266957439,0.03160750390290827,0.03130776799479763,0.01779655130545853,0.0392540253434943,-0.005233278731983629
1.5074377841123656,0.02689036393457737,0.026512035314949188,0.014369878001425985,0.03851042597834602,-0.007775088717553433
1.5075093012672922,0.022110982309926926,0.02254809126016218,0.012274203971852665,0.036776985460974056,-0.008662981663160683
1.5075808184222188,0.018158898886019043,0.020250303309511306,0.010838451012952628,0.03648397920586812,-0.009737235962295672
1.5076523355771454,0.015750547010193554,0.018902607954069003,0.009985828883372298,0.03529167978179206,-0.009844562070323375
1.507723852732072,0.015198153002695225,0.016027279347262356,0.008495434228764531,0.030813776973325047,-0.00878519678180372
1.5077953698869986,0.01632710132796861,0.0120312863236888,0.006411917338543193,0.02428763026366903,-0.007166273082601236
1.5078668870419252,0.01858159605132472,0.009121482387057223,0.00521914285473996,0.017512870101659368,-0.004657889865302987
1.5079384041968518,0.02125563485920751,0.007516852767422871,0.005152249488431391,0.01065894098532351,-0.0011475187845453722
1.5080099213517784,0.023737553869918368,0.007484863508280276,0.0057615299185219465,0.006448803758642947,0.0015638950985702373
1.508081438506705,0.025680396681245936,0.00926060001672356,0.007453924502377228,0.003936853339118997,0.004316369761633403
1.5081529556616315,0.027059576075294776,0.010813618311793977,0.008842952470356694,0.0025852888488559827,0.006205880877196618
1.5082244728165581,0.028112039179855254,0.010019001091887667,0.008942296206187028,0.0007091622890146788,0.007266997011195228
1.5082959899714847,0.029172386947160022,0.008101236081856675,0.008780907310022895,-0.0009146377015631213,0.007974160256895636
1.5083675071264113,0.03045818310099522,0.008395610543643937,0.010026451111954632,-0.001188179975377711,0.00918011299765354
1.508439024281338,0.03190386747651281,0.012529454548318851,0.012747040105629182,0.0011829484542946764,0.010269585371513488
1.5085105414362645,0.03314377564440417,0.018455132647802894,0.01600259242207933,0.005780203230716124,0.010658030379254772
1.508582058591191,0.03366149064758627,0.02330763453758061,0.0186299276568245,0.010237108408434331,0.010583500914053192
1.5086535757461177,0.03301661123576188,0.022790971920028432,0.017302793300784304,0.012521143807962118,0.00826144979394683
1.5087250929010443,0.031031763736761156,0.018530035430850456,0.013978643770450466,0.012864473871433458,0.0052431917076809186
1.5087966100559709,0.02787943173947238,0.013096495444488234,0.009773118861112214,0.011798885323666979,0.0022056081282775426
1.5088681272108975,0.024071143965329337,0.00806094911689964,0.005405399448016361,0.011428262641582369,-0.0013317304897876973
1.508939644365824,0.020368522042175177,0.004207585805664014,0.002619426200917792,0.010020784293840018,-0.002978344621269279
1.5090111615207507,0.017622660517009992,0.002555432500239201,0.001280243020763253,0.010000010057806846,-0.004111120306462307
1.5090826786756772,0.016549556574789192,0.002278758293815077,0.001094148915450876,0.010683985223811095,-0.00462602418886697
1.5091541958306038,0.01749078347259404,0.0025730817269282802,0.001728275756159572,0.009582618569411446,-0.0035112896085320224
1.5092257129855304,0.02026609634215111,0.003239369704403661,0.002622344403247119,0.0066240779346783945,-0.001208041301173366
1.509297230140457,0.024225306810832306,0.006615947710847842,0.005090188490138515,0.004279259796341621,0.002119652366942752
1.5093687472953836,0.028505184243561566,0.01450437787266003,0.010396256019729185,0.0040212489070763895,0.006785151890907176
1.5094402644503102,0.032363241212534366,0.02525342172367884,0.017181792517199104,0.006785650322887235,0.011142121892511531
1.5095117816052368,0.035420479974014,0.03678393374629756,0.023785576506019895,0.011722606925155426,0.01421546311687463
1.5095832987601634,0.03772295943106026,0.04514236771329168,0.028541189697550762,0.015440413663061075,0.016345944726740218
1.50965481591509,0.039632532833370364,0.047374193164515875,0.030196375009199177,0.016633583699477865,0.017140303431138152
1.5097263330700166,0.041605230836871475,0.04264157258605421,0.028415936049993602,0.014425485669938188,0.0167666666004086
1.5097978502249432,0.04392716574129624,0.03575019238145496,0.026087173799228647,0.009156980168919531,0.017516362240426603
1.5098693673798698,0.04649881119729661,0.031994849335083446,0.025125670272120693,0.004830545396631731,0.01894483389185613
1.5099408845347964,0.048782229516577,0.03251287380493839,0.025898717163670308,0.004632960764842205,0.01970798246352297
1.510012401689723,0.04998265464348263,0.03560120168709481,0.027970420605425636,0.006494162315883757,0.020510099292910155
1.5100839188446495,0.04939582665258717,0.03604613592446452,0.02744804663090382,0.008444511823413901,0.019049634592745824
1.5101554359995761,0.046726633743720845,0.033363934733348005,0.024915387052692306,0.009618400158320486,0.016275201459130532
1.5102269531545027,0.04221494386441091,0.03037162038977216,0.022036546886626967,0.01074500742540448,0.013229591133953564
1.5102984703094293,0.0365554045951188,0.028537346334160323,0.019143160662124768,0.013699714545738968,0.009220507287385311
1.510369987464356,0.030705701566729478,0.02839830136245816,0.01712115674686206,0.01776162860192124,0.0053794514451000084
1.5104415046192825,0.025671938650474672,0.029538181116678042,0.016152578444133103,0.021819333743598984,0.002440134197958369
1.510513021774209,0.02230380117340663,0.031282492874530735,0.01595046449902194,0.025896843136462233,0.00014495318342247176
1.5105845389291357,0.02110478427342222,0.029884045350344023,0.014310671393420193,0.026815823832898742,-0.001734690767856566
1.5106560560840623,0.022087028251984653,0.024921591278593554,0.011927341615445858,0.022530805347448963,-0.0015401488513186465
1.5107275732389889,0.02474352062355467,0.016950644680503373,0.008315005741078718,0.01521801706587808,-0.0008192604340900114
1.5107990903939155,0.028206425428266402,0.010997960931415935,0.006455089330600415,0.007462085872325679,0.0016288517952937913
1.510870607548842,0.03156791810921427,0.008440867718554157,0.006924877381908108,0.0013221961473749001,0.005225224314722671
1.5109421247037687,0.034217944840168574,0.008889248738572575,0.0085255112555674,-0.0019253809921140966,0.008282038383473913
1.5110136418586952,0.036025983655989566,0.012109729716787936,0.01161661354179527,-0.002573080640210321,0.011258640669470821
1.5110851590136218,0.03729532439305516,0.013672256121686979,0.013294021431409462,-0.002330680623565773,0.012564904263553717
1.5111566761685484,0.03854470610167679,0.012310287186832277,0.013163190298163863,-0.00208169737449386,0.01232363029146441
1.511228193323475,0.04022460916569971,0.011023835949017938,0.013651672900344249,-0.003766941232126561,0.013617635426688075
1.5112997104784016,0.04246467581659284,0.01194710039236979,0.01442102957265151,-0.0039437356256253435,0.014366594894214647
1.5113712276333282,0.04493429586497486,0.01688374155047555,0.016921655013448497,-0.0012517229376705636,0.015101393459129479
1.5114427447882548,0.04689231770787431,0.022748399528132665,0.019784155718843215,0.0023604651332060503,0.01566694758692259
1.5115142619431814,0.047454803887083834,0.025302767447347118,0.02007376929597759,0.005471560302794022,0.014295968085396888
