freq,gls,usurper,pdc_unbiased,shape_periodogram,shift_periodogram
1.5,0.031605246424144244,0.03561568216623425,0.022003088454338578,0.04586077811605883,-0.020731709409598408
1.5000715171549266,0.028595336453250155,0.02878045466278426,0.01679692217781675,0.03989054173724122,-0.019546692932284677
1.5001430343098532,0.024797888546036324,0.022770027467028255,0.011419584810450916,0.03464204469448553,-0.01902346123954651
1.5002145514647798,0.020789812632417533,0.020326480458851093,0.008796510756732951,0.02907972376985897,-0.016478151286091702
1.5002860686197064,0.017345459787468324,0.02218979988998113,0.009479677332466734,0.025326576178988768,-0.013173299572226613
1.500357585774633,0.015271945925960987,0.025945358651707457,0.011714688134418397,0.023068425501333513,-0.010004188356323695
1.5004291029295596,0.015165201318802408,0.030766790809528242,0.01415548030345099,0.02533156298013296,-0.010149746004816093
1.5005006200844861,0.01716595655706576,0.034916208794085614,0.016954003693511403,0.025179342508303948,-0.008221330747586754
1.5005721372394127,0.02086274426290797,0.03763376965227258,0.019187221778694714,0.022611762482437774,-0.004816809352684662
1.5006436543943393,0.02544081002802935,0.040126945719450226,0.02137618975240262,0.02025293243520581,-0.0016001930196378326
1.500715171549266,0.03000884122307953,0.04331997959691382,0.02421994995090846,0.019414071534621834,0.0008817831091938316
1.5007866887041925,0.03391266896856934,0.04775266650212567,0.02666061786266369,0.024091621254834605,-0.00110310388073195
1.500858205859119,0.0368882624749449,0.05344675325318918,0.029368029530911475,0.033483301952798965,-0.006511041009914231
1.5009297230140457,0.0390355018056212,0.06039253411189338,0.03287087235373193,0.04792837222138589,-0.01526410030603908
1.5010012401689723,0.04067274274449097,0.0645200656740717,0.0349635290275476,0.06345160075265645,-0.025768078054965667
1.5010727573238989,0.04213722341942038,0.06685868168791409,0.036798409825528795,0.07615936592193039,-0.034301235737338044
1.5011442744788255,0.043587855733941964,0.0685048335956999,0.03793328428010061,0.08689665147540855,-0.041792244835429114
1.501215791633752,0.044880915226329254,0.06903324575861039,0.03824814004694497,0.09352765041364959,-0.04667494578663246
1.5012873087886787,0.045592465454410994,0.0702223563935883,0.03896037083855539,0.09669778766914809,-0.04864616860658744
1.5013588259436053,0.04519857422015515,0.06975922995168356,0.038338310339186395,0.09829588285279024,-0.050277449935381344
1.5014303430985318,0.04331902735671992,0.06624122548770664,0.03525172960142179,0.0976100990759963,-0.05175440653077467
1.5015018602534584,0.03989064242203222,0.05850965872989969,0.029380562295107576,0.09371088443381947,-0.05256895889851166
1.501573377408385,0.035207008956161204,0.049350184949458684,0.02275340008029923,0.08825486895977148,-0.05267740299708548
1.5016448945633116,0.029854908046904056,0.04074216144944926,0.01716592382272006,0.08068018726105029,-0.050489664781651455
1.5017164117182382,0.02460404968418353,0.033288573047755406,0.01272729457488559,0.07234231773368525,-0.04697861623330358
1.5017879288731648,0.020274028275387688,0.028459610907386967,0.010756457121333964,0.0638797646736388,-0.04178118499544272
1.5018594460280914,0.01756978332877583,0.025699567859084876,0.009814843547662735,0.05752615341414498,-0.03753429805067064
1.501930963183018,0.016887968997375314,0.0236906501913371,0.009773529530205848,0.04753116312495903,-0.02992668951572252
1.5020024803379446,0.018154766828972088,0.020883974420108243,0.009545857603491862,0.035361530170750145,-0.020785399871692915
1.5020739974928712,0.020807783027131654,0.01937362461170998,0.00997328939183271,0.023456377768996353,-0.011427456888021525
1.5021455146477978,0.023992628107040868,0.02037475986401666,0.01144212206274167,0.01601036459448485,-0.004798771132371174
1.5022170318027244,0.026898257150269028,0.02451513463033999,0.014028974316248104,0.016324339832668698,-0.0033632579536287594
1.502288548957651,0.029041972437567,0.02994193888267055,0.016679671046279716,0.022775629304386015,-0.006565879142457504
1.5023600661125776,0.03036170293294545,0.03668756092691881,0.019990738498687276,0.03498389027911721,-0.01373348765370931
1.5024315832675041,0.031115659296329378,0.03975986218312491,0.02077896981185265,0.04992812177103281,-0.024630926426382215
1.5025031004224307,0.031680428730509906,0.039157914392097974,0.019519808615351825,0.06136371702240962,-0.0341848192636035
1.5025746175773573,0.032340192227813126,0.03702136523261354,0.018649627815208736,0.06772674994744489,-0.03961423973185481
1.502646134732284,0.033131945974426154,0.034732064692238905,0.017871043624403338,0.06785667652235929,-0.04021776274832181
1.5027176518872105,0.033797027787609374,0.03381420295546493,0.01799769758677829,0.06484341480627055,-0.03783114297291481
1.502789169042137,0.033871437590867574,0.03208637571684199,0.017486670760106647,0.06099656894859251,-0.035220839311174076
1.5028606861970637,0.03289397904446062,0.028540495624147365,0.015274482970942199,0.05623602516622717,-0.03301484274103878
1.5029322033519903,0.030638444170610023,0.0246011147669858,0.012011118949132128,0.052365896959444054,-0.032170700566033536
1.5030037205069169,0.02725242384486997,0.02233313125471812,0.009441040885373031,0.04937004704300193,-0.03154602609907137
1.5030752376618435,0.023245599290448483,0.023437177691767598,0.008606550278537486,0.04835750675432711,-0.03131287060085719
1.50314675481677,0.019358366958489085,0.026434717197585857,0.008953985446160287,0.0482504382948645,-0.031006281204281467
1.5032182719716967,0.01638051368297583,0.03044287313091475,0.010426555451109277,0.048881296387426894,-0.030534993583590415
1.5032897891266233,0.01497089818834955,0.03430443597158552,0.012350463029946239,0.04931340879324035,-0.029619692729357244
1.5033613062815498,0.015499460648454992,0.036709861095000226,0.013981854206916533,0.04607562666010146,-0.026091181857179686
1.5034328234364764,0.01793079665045714,0.03568689804122917,0.01416864675154985,0.03791289476746975,-0.01973941751857595
1.503504340591403,0.021792554285279486,0.032995713443453166,0.013806564009865633,0.025599287000252897,-0.010579867976489243
1.5035758577463296,0.026283745634476982,0.03365452295752621,0.015751292513310384,0.015687297588810285,-0.0017623105404912533
1.5036473749012562,0.03053094650102892,0.03791044766148257,0.019003856556851165,0.01377078896120483,0.0018051454417530477
1.5037188920561828,0.03389868374654469,0.04528767458765904,0.02304438568669538,0.02087539632234991,-0.0009940569371045726
1.5037904092111094,0.03619247413189749,0.05593521614165645,0.02836367437687625,0.037775705818833265,-0.01043732392258984
1.503861926366036,0.03764566473947448,0.06549887228345518,0.03246316988130233,0.059843216625432835,-0.024631850140976904
1.5039334435209626,0.038716510453014726,0.07177662082644794,0.03408384953452373,0.08115501424033641,-0.03989006329202943
1.5040049606758892,0.0398171228344044,0.07587101503829809,0.03557140334761458,0.09784722601721753,-0.051729056759842046
1.5040764778308158,0.041095739566223526,0.08051867450149236,0.037525773851031737,0.1083979293064904,-0.05857001813441464
1.5041479949857424,0.04234364882306056,0.08381551632372944,0.038887791087543686,0.11180531352541005,-0.06030778501019733
1.504219512140669,0.043051695709888996,0.08450755378091056,0.03921573232033744,0.109927331264927,-0.058649559824068075
1.5042910292955955,0.04260283060723393,0.07935576025933556,0.036347749549566495,0.10441136584811148,-0.05626889982826615
1.5043625464505221,0.04053910287302065,0.06832431519515242,0.030363706364527798,0.09546805400238438,-0.05328029607106965
1.5044340636054487,0.03679439695722014,0.05482081781449311,0.02344001313236871,0.08476664647645495,-0.04955863889046204
1.5045055807603753,0.03178229372791513,0.04309478451411195,0.01698689592080203,0.07624166339032458,-0.04720670171438318
1.504577097915302,0.026296542555493532,0.03484049619512866,0.012446934359831944,0.06862163407531276,-0.04431357905957538
1.5046486150702285,0.021278189004975218,0.03181603438592177,0.011187449324425095,0.06420037009593968,-0.04174745175013341
1.504720132225155,0.017555651134353225,0.030851237544423565,0.011283372248322305,0.06140891707671208,-0.039551428058383326
1.5047916493800817,0.01564621916050789,0.029358328551978577,0.010644076718018416,0.05820761901356736,-0.037518463803580634
1.5048631665350083,0.015656872938766518,0.025982163779466227,0.009217644422453899,0.050137721354656134,-0.03227683367699351
1.5049346836899349,0.017286051262519187,0.022395898148182863,0.008230188330603324,0.03757460469295974,-0.023325668863506736
1.5050062008448615,0.019918755698584013,0.02009137322230995,0.007905738300784866,0.02492513886138648,-0.013886013217856
1.505077717999788,0.022804926807040774,0.02024770406311435,0.009361654152707073,0.014134694275274235,-0.004715611523563328
1.5051492351547147,0.025289013466251117,0.024018554694335843,0.011726326065843064,0.012122118401225667,-0.0016503866622563103
1.5052207523096413,0.027015644551186973,0.029326858678689224,0.014241445734319206,0.019107819801678284,-0.005347977542536694
1.5052922694645678,0.028012475009877,0.033371885890507824,0.015961322224474977,0.03041486417863006,-0.012857620579338225
1.5053637866194944,0.028596359216805502,0.03273450671849365,0.014919408532213189,0.04326242678609959,-0.02333636823710563
1.505435303774421,0.02915112616185344,0.029059272975093156,0.013309044659559194,0.0542825204377392,-0.032794673216912124
1.5055068209293476,0.029900153036102176,0.02625951779061581,0.012321918805932341,0.06103771094497929,-0.03859563937381059
1.5055783380842742,0.030782681811496897,0.02593773551493134,0.01250866989698158,0.06264174960967053,-0.0397009445305677
1.5056498552392008,0.03146961942071043,0.027658124484167417,0.013496870470295333,0.0616069584733987,-0.03827035751189586
1.5057213723941274,0.03149161794629547,0.028086804805549044,0.013134126432083434,0.05926691066820295,-0.03671653404852201
1.505792889549054,0.030427310908792447,0.026816901482621187,0.011855838401314541,0.05426062153476798,-0.033718565360346106
1.5058644067039806,0.02809465201809536,0.02387247675350053,0.009674998552531539,0.04713765593869604,-0.029690000437587277
1.5059359238589072,0.024683284499830333,0.01967077276587247,0.006168765257997816,0.041161723796828135,-0.02739723259646193
1.5060074410138338,0.020766913938386953,0.017003280605524904,0.003987129865862614,0.0362616332229588,-0.025069725530701303
1.5060789581687604,0.017165658691511196,0.017932148176736967,0.004506773893992003,0.033563025397930935,-0.022674605201958655
1.506150475323687,0.014695536880755058,0.02030058928421246,0.005603202541494299,0.03283415224609427,-0.021409006801983394
1.5062219924786135,0.013907828977730352,0.02222391940164831,0.006474304461408025,0.032041916484551465,-0.020240863263709025
1.5062935096335401,0.014929925183180436,0.021918435079916705,0.007024475314287043,0.02745586543222547,-0.0163865907014959
1.5063650267884667,0.01746107614733839,0.019350893859760288,0.006681651925523114,0.01824243435018048,-0.00958239555515356
1.5064365439433933,0.020900617081537138,0.019169921643374343,0.008103902228742074,0.008949990925547005,-0.0015771833224918312
1.50650806109832,0.024545654709518663,0.021854504840586507,0.01119024144466396,0.0022826650875890403,0.005503104839861628
1.5065795782532465,0.027795889555703463,0.028451805712594536,0.015188716512202768,0.004055587995473932,0.006740251929598238
1.506651095408173,0.030315638754338018,0.03815715324803245,0.02020329875354711,0.012584594840801447,0.003486226343419358
1.5067226125630997,0.03210575674634778,0.04883920230299687,0.02516307524326057,0.026819412753589563,-0.0041538479853923515
1.5067941297180263,0.03344435853615213,0.05639615146636099,0.02809340030703321,0.043305945112273786,-0.014833497145308593
1.5068656468729529,0.03469846610783441,0.05918548929847878,0.028836225363534616,0.057055007877148275,-0.0248533880597512
1.5069371640278795,0.03608805388876267,0.0598958646210913,0.029158238083419115,0.06609644486054153,-0.031557372468101884
1.507008681182806,0.03753193323000867,0.060474311690109576,0.029645090979329304,0.07047675123856685,-0.03459293773155993
1.5070801983377327,0.038657419159163646,0.06020710453817921,0.03000532215028713,0.06793462035299219,-0.03241416651355445
1.5071517154926592,0.038950459296790155,0.05849603818359857,0.029635790998015537,0.0634425861247331,-0.02921796681867237
1.5072232326475858,0.03795818995272562,0.05252593588940836,0.026170643808596194,0.05676833433225637,-0.02636263487350128
1.5072947498025124,0.035465807062779846,0.04492744489417968,0.02167628316777021,0.04772046161844317,-0.02236352325872941
1.507366266957439,0.03160750390290827,0.03859729974213814,0.01779655130545853,0.03959215721519356,-0.018671509488240527
1.5074377841123656,0.02689036393457737,0.03325083005265693,0.014369878001425985,0.033487866212246586,-0.016232611230733836
1.5075093012672922,0.022110982309926926,0.029052236982423214,0.012274203971852665,0.030011528640136096,-0.014937505866025096
1.5075808184222188,0.018158898886019043,0.026632713611455684,0.010838451012952628,0.029657065112312198,-0.015596666817485932
1.5076523355771454,0.015750547010193554,0.025178486763486174,0.009985828883372298,0.030107311926309336,-0.01649209456595974
1.507723852732072,0.015198153002695225,0.021819804915629386,0.008495434228764531,0.027406405828621992,-0.015396720421399971
1.5077953698869986,0.01632710132796861,0.016556901370877904,0.006411917338543193,0.019357606032048915,-0.010607306443866532
1.5078668870419252,0.01858159605132472,0.012012040190616148,0.00521914285473996,0.00980083201072252,-0.004093125603398777
1.5079384041968518,0.02125563485920751,0.008868780686335072,0.005152249488431391,0.000788062902231538,0.0027340440871744206
1.5080099213517784,0.023737553869918368,0.008088683715606412,0.0057615299185219465,-0.0029689688314177417,0.005992275776110362
1.508081438506705,0.025680396681245936,0.010157837689518135,0.007453924502377228,-0.0009903301496273105,0.005579439449093212
1.5081529556616315,0.027059576075294776,0.01297249660584614,0.008842952470356694,0.0062850979264329025,0.0009327025652153539
1.5082244728165581,0.028112039179855254,0.013798040123865601,0.008942296206187028,0.015440521078325026,-0.005982672604059041
1.5082959899714847,0.029172386947160022,0.013225507545778992,0.008780907310022895,0.0238348633227669,-0.012488006076010402
1.5083675071264113,0.03045818310099522,0.01429107329916675,0.010026451111954632,0.030965541601559208,-0.017120483007413204
1.508439024281338,0.03190386747651281,0.01870185636600203,0.012747040105629182,0.036731746308972996,-0.019758544615552494
1.5085105414362645,0.03314377564440417,0.02444019221739478,0.01600259242207933,0.03966670964436531,-0.01989029363845854
1.508582058591191,0.03366149064758627,0.02906567392158841,0.0186299276568245,0.04106730397617877,-0.01925762199360563
1.5086535757461177,0.03301661123576188,0.028605574418161295,0.017302793300784304,0.0402335322464013,-0.019480840613563845
1.5087250929010443,0.031031763736761156,0.02422121357657973,0.013978643770450466,0.035867696529714055,-0.01830176869318622
1.5087966100559709,0.02787943173947238,0.018410352276534796,0.009773118861112214,0.028678592242165603,-0.015539976782043182
1.5088681272108975,0.024071143965329337,0.012995704770727045,0.005405399448016361,0.022274146283869357,-0.013482767581430641
1.508939644365824,0.020368522042175177,0.008938845478452605,0.002619426200917792,0.01753317260262077,-0.011670902709147151
1.5090111615207507,0.017622660517009992,0.007071632072373479,0.001280243020763253,0.015161003525001666,-0.010729023369280489
1.5090826786756772,0.016549556574789192,0.006617002419744498,0.001094148915450876,0.014578573445686418,-0.01040541921786404
1.5091541958306038,0.01749078347259404,0.006460178808436859,0.001728275756159572,0.012043701824550826,-0.008062467199192656
1.5092257129855304,0.02026609634215111,0.006352946230665123,0.002622344403247119,0.0072013483117223,-0.0037922729338838537
1.509297230140457,0.024225306810832306,0.008618063505744476,0.005090188490138515,0.0012031962559780466,0.0023774278946583965
1.5093687472953836,0.028505184243561566,0.01559852234549711,0.010396256019729185,-0.001891199505974175,0.008170608863036204
1.5094402644503102,0.032363241212534366,0.02618812269035803,0.017181792517199104,0.00043396622228233044,0.010790941727696308
1.5095117816052368,0.035420479974014,0.03862652008380431,0.023785576506019895,0.008471712768027747,0.008941409089054926
1.5095832987601634,0.03772295943106026,0.04864886729507057,0.028541189697550762,0.019194663058410444,0.003849355698557805
1.50965481591509,0.039632532833370364,0.052797385529696164,0.030196375009199177,0.029733644947680524,-0.003113723784960512
1.5097263330700166,0.041605230836871475,0.0496173059463151,0.028415936049993602,0.03665188696092488,-0.009545882649441114
1.5097978502249432,0.04392716574129624,0.04327029583061563,0.026087173799228647,0.03716242031563385,-0.011445181341065237
1.5098693673798698,0.04649881119729661,0.039078306421256044,0.025125670272120693,0.03333314498038912,-0.009146654817349723
1.5099408845347964,0.048782229516577,0.03853484507682645,0.025898717163670308,0.0284876092435582,-0.004949379450153723
1.510012401689723,0.04998265464348263,0.04059004404943682,0.027970420605425636,0.02417382738463846,-0.0003168357130874077
1.5100839188446495,0.04939582665258717,0.04052284302274939,0.02744804663090382,0.02061917040566801,0.002054866500608197
1.5101554359995761,0.046726633743720845,0.03785165662058889,0.024915387052692306,0.01725390514315456,0.002979235934832073
1.5102269531545027,0.04221494386441091,0.03482235481976385,0.022036546886626967,0.013213815403439707,0.004193999577670881
1.5102984703094293,0.0365554045951188,0.033297201531764666,0.019143160662124768,0.012933295384678667,0.002533803604282164
1.510369987464356,0.030705701566729478,0.03350366173240436,0.01712115674686206,0.014524323425641032,1.1414369909433758e-05
1.5104415046192825,0.025671938650474672,0.03513775884487093,0.016152578444133103,0.018447157775169632,-0.0036066642978778317
1.510513021774209,0.02230380117340663,0.03719264544922985,0.01595046449902194,0.022893038207342925,-0.007127663498358222
1.5105845389291357,0.02110478427342222,0.03556560566150528,0.014310671393420193,0.023145009345428343,-0.008381705414176722
1.5106560560840623,0.022087028251984653,0.02980352550269608,0.011927341615445858,0.017755258449529143,-0.005815021565131448
1.5107275732389889,0.02474352062355467,0.02050753324954524,0.008315005741078718,0.008321075065397103,-0.000961092378455174
1.5107990903939155,0.028206425428266402,0.013222296447471053,0.006455089330600415,-0.00025497906565364735,0.004372401004511886
1.510870607548842,0.03156791810921427,0.00983129034124192,0.006924877381908108,-0.004121026912001702,0.007623408715447833
1.5109421247037687,0.034217944840168574,0.01060226021998096,0.0085255112555674,1.4160440842034327e-05,0.005507369895905219
1.5110136418586952,0.036025983655989566,0.015265332042504954,0.01161661354179527,0.010432709092495206,-0.00043350164192266567
1.5110851590136218,0.03729532439305516,0.018813887666175446,0.013294021431409462,0.02374715991401274,-0.00949922031510506
1.5111566761685484,0.03854470610167679,0.019569477020575134,0.013163190298163863,0.03730510980488242,-0.01992663286086876
1.511228193323475,0.04022460916569971,0.019675021211215078,0.013651672900344249,0.04581313608272232,-0.026104541628287098
1.5112997104784016,0.04246467581659284,0.020862241059087936,0.01442102957265151,0.0490275988023628,-0.028060963693134763
1.5113712276333282,0.04493429586497486,0.025124199414233512,0.016921655013448497,0.04849212649078272,-0.026032785272674542
1.5114427447882548,0.04689231770787431,0.029684835716538533,0.019784155718843215,0.04475472925063614,-0.021324866485319074
1.5115142619431814,0.047454803887083834,0.03101107194604091,0.02007376929597759,0.03992728583470141,-0.01745214766910502
1.511585779098108,0.04599085839647899,0.027254083832526997,0.017243949592298295,0.03457046353436721,-0.015197312139050968
