freq,gls,usurper,pdc_unbiased,shape_periodogram,shift_periodogram
1.5,0.031605246424144244,0.031803867242372,0.022003088454338578,0.053270960505132435,-0.02204154813538477
1.5000715171549266,0.028595336453250155,0.02530018470531117,0.01679692217781675,0.04436359266480748,-0.019432954398265423
1.5001430343098532,0.024797888546036324,0.01972928089268382,0.011419584810450916,0.03778405395518886,-0.018592967256639188
1.5002145514647798,0.020789812632417533,0.018123987231723215,0.008796510756732951,0.03330288517651132,-0.017284850492345065
1.5002860686197064,0.017345459787468324,0.020874853316157866,0.009479677332466734,0.032514910150761044,-0.016244102886131262
1.500357585774633,0.015271945925960987,0.025514408237596275,0.011714688134418397,0.03356497579798225,-0.015402417791610123
1.5004291029295596,0.015165201318802408,0.03081593286110963,0.01415548030345099,0.03820968287188756,-0.016954975106997824
1.5005006200844861,0.01716595655706576,0.03574394954377791,0.016954003693511403,0.04202855897489956,-0.017670721729296127
1.5005721372394127,0.02086274426290797,0.03940102635574195,0.019187221778694714,0.045740446689897185,-0.01871184287524692
1.5006436543943393,0.02544081002802935,0.04248662452798189,0.02137618975240262,0.04979534625305093,-0.020027325021915166
1.500715171549266,0.03000884122307953,0.04581024752006507,0.02421994995090846,0.05356132043431632,-0.020674354473851606
1.5007866887041925,0.03391266896856934,0.04970159648911747,0.02666061786266369,0.06132815069163853,-0.024440038527930693
1.500858205859119,0.0368882624749449,0.05419257150193134,0.029368029530911475,0.0713177829520442,-0.029595550618180127
1.5009297230140457,0.0390355018056212,0.05908395753716481,0.03287087235373193,0.08347101119096431,-0.03572940672283774
1.5010012401689723,0.04067274274449097,0.06066209381831741,0.0349635290275476,0.09299661886495372,-0.041010187103735427
1.5010727573238989,0.04213722341942038,0.06059437062603768,0.036798409825528795,0.09917723014207856,-0.044102298725352124
1.5011442744788255,0.043587855733941964,0.060233304351905236,0.03793328428010061,0.10395080658929165,-0.04669403312232383
1.501215791633752,0.044880915226329254,0.05949137451863339,0.03824814004694497,0.1065531106100074,-0.04832416597535161
1.5012873087886787,0.045592465454410994,0.06017882317314226,0.03896037083855539,0.10985030816742106,-0.05016790310155248
1.5013588259436053,0.04519857422015515,0.059345577948527455,0.038338310339186395,0.1096402363504329,-0.05046070169045894
1.5014303430985318,0.04331902735671992,0.05575494962078597,0.03525172960142179,0.10674848152271414,-0.05059443950761007
1.5015018602534584,0.03989064242203222,0.04817150352198867,0.029380562295107576,0.10021950163615677,-0.05011571048684181
1.501573377408385,0.035207008956161204,0.03923262629371362,0.02275340008029923,0.09203208747597834,-0.048994728441205
1.5016448945633116,0.029854908046904056,0.03111243263067105,0.01716592382272006,0.08248177616009349,-0.04617206083497584
1.5017164117182382,0.02460404968418353,0.024351857590926413,0.01272729457488559,0.07240253898802076,-0.042167063069368634
1.5017879288731648,0.020274028275387688,0.020388793021565252,0.010756457121333964,0.06347452972375296,-0.03723704380585919
1.5018594460280914,0.01756978332877583,0.0185544636550182,0.009814843547662735,0.05733761080642357,-0.033559041481177505
1.501930963183018,0.016887968997375314,0.018323119227607952,0.009773529530205848,0.051010192493133745,-0.029110990880081036
1.5020024803379446,0.018154766828972088,0.017663183853716343,0.009545857603491862,0.045800686666558565,-0.02558776200481102
1.5020739974928712,0.020807783027131654,0.01839107862266445,0.00997328939183271,0.042478486406495354,-0.02293599835527694
1.5021455146477978,0.023992628107040868,0.021117423807275375,0.01144212206274167,0.04226427436960245,-0.021743841910072614
1.5022170318027244,0.026898257150269028,0.02578159739657357,0.014028974316248104,0.04611402228291017,-0.022632665122895645
1.502288548957651,0.029041972437567,0.030672949791297813,0.016679671046279716,0.05241655065260154,-0.025211856483372718
1.5023600661125776,0.03036170293294545,0.03592090066413971,0.019990738498687276,0.05988729084808811,-0.02815179532964252
1.5024315832675041,0.031115659296329378,0.03671528551963777,0.02077896981185265,0.06565563987988142,-0.03167814213334001
1.5025031004224307,0.031680428730509906,0.03393927735601116,0.019519808615351825,0.06799060865824014,-0.034225528858533055
1.5025746175773573,0.032340192227813126,0.030134421171364698,0.018649627815208736,0.06641759424128782,-0.033727953487306214
1.502646134732284,0.033131945974426154,0.02724129713307085,0.017871043624403338,0.06225227506387162,-0.03132947367050333
1.5027176518872105,0.033797027787609374,0.026621545031629668,0.01799769758677829,0.0600502524608249,-0.029680396122963495
1.502789169042137,0.033871437590867574,0.02521553733823077,0.017486670760106647,0.057139066852177435,-0.027981775485148533
1.5028606861970637,0.03289397904446062,0.021988649058131613,0.015274482970942199,0.05295333824412529,-0.026587722746781915
1.5029322033519903,0.030638444170610023,0.018391662263503254,0.012011118949132128,0.04876256362490683,-0.025935760491433618
1.5030037205069169,0.02725242384486997,0.016511104934210746,0.009441040885373031,0.04594388009460719,-0.025763275529453466
1.5030752376618435,0.023245599290448483,0.01801085286612713,0.008606550278537486,0.04537394286127386,-0.02595143389170229
1.50314675481677,0.019358366958489085,0.021395467695129664,0.008953985446160287,0.04535023090966963,-0.025688541151956457
1.5032182719716967,0.01638051368297583,0.025621799197005937,0.010426555451109277,0.04588760133115728,-0.025025268755294733
1.5032897891266233,0.01497089818834955,0.029631278029716844,0.012350463029946239,0.045571071904425275,-0.023438234796459814
1.5033613062815498,0.015499460648454992,0.03280342802797442,0.013981854206916533,0.044725052845846415,-0.02168388820017136
1.5034328234364764,0.01793079665045714,0.033056685900254894,0.01416864675154985,0.04195465571006618,-0.01959279189639796
1.503504340591403,0.021792554285279486,0.03225176030206426,0.013806564009865633,0.03901254647025633,-0.017769711088233654
1.5035758577463296,0.026283745634476982,0.034715082405545765,0.015751292513310384,0.039317302138445934,-0.016606754119963103
1.5036473749012562,0.03053094650102892,0.03987414624406866,0.019003856556851165,0.04517701011319414,-0.018443444347674826
1.5037188920561828,0.03389868374654469,0.04676459225577126,0.02304438568669538,0.056099293355589525,-0.023304397240355403
1.5037904092111094,0.03619247413189749,0.055285383486405,0.02836367437687625,0.06917157778004626,-0.028787433488845205
1.503861926366036,0.03764566473947448,0.06157659933720362,0.03246316988130233,0.08169753557115447,-0.03476004905394832
1.5039334435209626,0.038716510453014726,0.06447430232167596,0.03408384953452373,0.09194743889529554,-0.040889554877374466
1.5040049606758892,0.0398171228344044,0.06573882603671623,0.03557140334761458,0.09945935723144915,-0.04517562410416798
1.5040764778308158,0.041095739566223526,0.06875837373445971,0.037525773851031737,0.10464418455222933,-0.047477854849393694
1.5041479949857424,0.04234364882306056,0.07185942233943608,0.038887791087543686,0.10869476143354469,-0.04939562779793927
1.504219512140669,0.043051695709888996,0.073203444711915,0.03921573232033744,0.11110380120207466,-0.05088015151534996
1.5042910292955955,0.04260283060723393,0.06881128253237685,0.036347749549566495,0.1092638885158527,-0.051608221659827674
1.5043625464505221,0.04053910287302065,0.05840281606544803,0.030363706364527798,0.10194968050963776,-0.050649328145810246
1.5044340636054487,0.03679439695722014,0.04521680863350621,0.02344001313236871,0.09019202746194684,-0.047199745925195484
1.5045055807603753,0.03178229372791513,0.03366391655498579,0.01698689592080203,0.07919443039018134,-0.04396583260944569
1.504577097915302,0.026296542555493532,0.025841935209280617,0.012446934359831944,0.06935026350878178,-0.04020218638039566
1.5046486150702285,0.021278189004975218,0.023057813433345994,0.011187449324425095,0.0616683282476881,-0.035652627396109304
1.504720132225155,0.017555651134353225,0.02231376429848497,0.011283372248322305,0.05510077531530317,-0.03093558378206742
1.5047916493800817,0.01564621916050789,0.021381470157148065,0.010644076718018416,0.049510746300415735,-0.0274335695642493
1.5048631665350083,0.015656872938766518,0.019368772528240548,0.009217644422453899,0.04295542223079976,-0.023808530045981255
1.5049346836899349,0.017286051262519187,0.01797371055416909,0.008230188330603324,0.03774596313219213,-0.02082573847919441
1.5050062008448615,0.019918755698584013,0.018042409438059164,0.007905738300784866,0.034082439350573056,-0.018466721959417697
1.505077717999788,0.022804926807040774,0.020396784516100476,0.009361654152707073,0.03218024595225787,-0.01609127385933386
1.5051492351547147,0.025289013466251117,0.02546346564186546,0.011726326065843064,0.037136009420367225,-0.017917618527873262
1.5052207523096413,0.027015644551186973,0.030574719819140662,0.014241445734319206,0.04410144214877334,-0.021058971334093447
1.5052922694645678,0.028012475009877,0.03314010433436644,0.015961322224474977,0.048784926052428276,-0.023151999143353322
1.5053637866194944,0.028596359216805502,0.029962161664999872,0.014919408532213189,0.049516403414935614,-0.0244079199779711
1.505435303774421,0.02915112616185344,0.023387139889791436,0.013309044659559194,0.046845010718858666,-0.023659819790626778
1.5055068209293476,0.029900153036102176,0.018654693183851413,0.012321918805932341,0.043067227180966026,-0.021688087459796224
1.5055783380842742,0.030782681811496897,0.017741891778068567,0.01250866989698158,0.04088784264677052,-0.02001504556864515
1.5056498552392008,0.03146961942071043,0.01988458594807152,0.013496870470295333,0.04226464054926064,-0.020288034293155933
1.5057213723941274,0.03149161794629547,0.021052413114435047,0.013134126432083434,0.04452371223168619,-0.022142306148480236
1.505792889549054,0.030427310908792447,0.02082047999207257,0.011855838401314541,0.04534939912211152,-0.023631978990623876
1.5058644067039806,0.02809465201809536,0.018948238734416787,0.009674998552531539,0.044152215599750716,-0.02433066174258733
1.5059359238589072,0.024683284499830333,0.01541908496137943,0.006168765257997816,0.04245973418072653,-0.025617822456936046
1.5060074410138338,0.020766913938386953,0.013181062714375066,0.003987129865862614,0.04050526232564259,-0.025781367285427532
1.5060789581687604,0.017165658691511196,0.014253656372601961,0.004506773893992003,0.03837018898390533,-0.02390431269211978
1.506150475323687,0.014695536880755058,0.016684878644795214,0.005603202541494299,0.03677278603108641,-0.021998841686352855
1.5062219924786135,0.013907828977730352,0.01874216901742278,0.006474304461408025,0.03423087657476868,-0.01958561798371382
1.5062935096335401,0.014929925183180436,0.01899023830308836,0.007024475314287043,0.02935397422718733,-0.015750379360095417
1.5063650267884667,0.01746107614733839,0.017706120457023918,0.006681651925523114,0.024890214841475588,-0.012840311854264633
1.5064365439433933,0.020900617081537138,0.018971044733445703,0.008103902228742074,0.022385707646937994,-0.010063987359926526
1.50650806109832,0.024545654709518663,0.02287739216817912,0.01119024144466396,0.022256047983350083,-0.0077857607821760055
1.5065795782532465,0.027795889555703463,0.029846056222342154,0.015188716512202768,0.029271933099533676,-0.009907495058825218
1.506651095408173,0.030315638754338018,0.039082700330188326,0.02020329875354711,0.03966504598969223,-0.013696252963010507
1.5067226125630997,0.03210575674634778,0.048425017970559675,0.02516307524326057,0.05189290280751037,-0.018824744510485977
1.5067941297180263,0.03344435853615213,0.05388055588431128,0.02809340030703321,0.06155616696658658,-0.023584466254005773
1.5068656468729529,0.03469846610783441,0.05432203580733244,0.028836225363534616,0.0662405301645954,-0.026374992340890867
1.5069371640278795,0.03608805388876267,0.05315397985883641,0.029158238083419115,0.06690230253211175,-0.02661522051007042
1.507008681182806,0.03753193323000867,0.05277201533950656,0.029645090979329304,0.06703069597348305,-0.026360490145917598
1.5070801983377327,0.038657419159163646,0.052908403223245186,0.03000532215028713,0.06607450252332571,-0.025427229116928175
1.5071517154926592,0.038950459296790155,0.05170311794691663,0.029635790998015537,0.06337895040983194,-0.02378024931563869
1.5072232326475858,0.03795818995272562,0.04640975666122393,0.026170643808596194,0.058841663130465904,-0.023027313189714994
1.5072947498025124,0.035465807062779846,0.03972362922212835,0.02167628316777021,0.05263155982716664,-0.021820940948429207
1.507366266957439,0.03160750390290827,0.03425696387736181,0.01779655130545853,0.04736015747053268,-0.02084328504281085
1.5074377841123656,0.02689036393457737,0.0296313771751575,0.014369878001425985,0.043857056659017145,-0.020795153730639507
1.5075093012672922,0.022110982309926926,0.025567583835766024,0.012274203971852665,0.040054670748547724,-0.0195922501740615
1.5075808184222188,0.018158898886019043,0.023049028537053744,0.010838451012952628,0.038171943496508515,-0.019278882801433053
1.5076523355771454,0.015750547010193554,0.02154843781752186,0.009985828883372298,0.035478028927491925,-0.01797919226513032
1.507723852732072,0.015198153002695225,0.01851609362893138,0.008495434228764531,0.029842611045656515,-0.015053493609574592
1.5077953698869986,0.01632710132796861,0.01436535652574837,0.006411917338543193,0.02283346210544241,-0.01157882779329545
1.5078668870419252,0.01858159605132472,0.011276789845761385,0.00521914285473996,0.01641374578157902,-0.007890578689091338
1.5079384041968518,0.02125563485920751,0.009455678929372293,0.005152249488431391,0.01056256652709879,-0.0038069470344080083
1.5080099213517784,0.023737553869918368,0.009303910020284661,0.0057615299185219465,0.00833322422639682,-0.001801539944914779
1.508081438506705,0.025680396681245936,0.01127385809995544,0.007453924502377228,0.009847466884507055,-0.0016716603038530176
1.5081529556616315,0.027059576075294776,0.013165455217581109,0.008842952470356694,0.013295471824924595,-0.003121854769082734
1.5082244728165581,0.028112039179855254,0.012439309835604208,0.008942296206187028,0.015401692040872625,-0.004538504829184515
1.5082959899714847,0.029172386947160022,0.01023109440211178,0.008780907310022895,0.017028745230752675,-0.005801629420033754
1.5083675071264113,0.03045818310099522,0.01008215126092777,0.010026451111954632,0.018883791146896124,-0.006229020671094852
1.508439024281338,0.03190386747651281,0.013968069749984885,0.012747040105629182,0.02224230673539675,-0.006672943899178784
1.5085105414362645,0.03314377564440417,0.019902682146928207,0.01600259242207933,0.02716515999162182,-0.007842521862822874
1.508582058591191,0.03366149064758627,0.024736132510799584,0.0186299276568245,0.03139827525892222,-0.008970316543795227
1.5086535757461177,0.03301661123576188,0.024531147296691654,0.017302793300784304,0.032529570363876194,-0.010710368835723485
1.5087250929010443,0.031031763736761156,0.020502506987341247,0.013978643770450466,0.030175102399196713,-0.011403114712404277
1.5087966100559709,0.02787943173947238,0.015204977426522178,0.009773118861112214,0.02563840626009008,-0.01117859278175614
1.5088681272108975,0.024071143965329337,0.010302102191799188,0.005405399448016361,0.022139513724169325,-0.011801753458179272
1.508939644365824,0.020368522042175177,0.006429597777193679,0.002619426200917792,0.0189344337965358,-0.011511868816895013
1.5090111615207507,0.017622660517009992,0.004589729058542347,0.001280243020763253,0.018054844103985154,-0.011839316970221404
1.5090826786756772,0.016549556574789192,0.003940385832983182,0.001094148915450876,0.017650876032452478,-0.011685887844094524
1.5091541958306038,0.01749078347259404,0.003904463498040576,0.001728275756159572,0.015711425622148188,-0.009867376331309727
1.5092257129855304,0.02026609634215111,0.004301317672153967,0.002622344403247119,0.012875756569440221,-0.0072320551937590394
1.509297230140457,0.024225306810832306,0.007566392439574652,0.005090188490138515,0.012008083524904213,-0.004871414534118542
1.5093687472953836,0.028505184243561566,0.01543481404539992,0.010396256019729185,0.014086776172142821,-0.0025800611526060127
1.5094402644503102,0.032363241212534366,0.02644142828783274,0.017181792517199104,0.020269748169268693,-0.0021372118558419537
1.5095117816052368,0.035420479974014,0.03861644988800325,0.023785576506019895,0.029376777523998962,-0.0038866630896480223
1.5095832987601634,0.03772295943106026,0.047617657327126174,0.028541189697550762,0.0363851670866084,-0.005463916209155169
1.50965481591509,0.039632532833370364,0.05019206005783787,0.030196375009199177,0.03981080851238892,-0.006709832683585658
1.5097263330700166,0.041605230836871475,0.04544276428825085,0.028415936049993602,0.03959015762095873,-0.00781751756871268
1.5097978502249432,0.04392716574129624,0.038060768594599954,0.026087173799228647,0.03437948462260321,-0.005788022954891909
1.5098693673798698,0.04649881119729661,0.03377866116936303,0.025125670272120693,0.02798238260036238,-0.0019514154661819246
1.5099408845347964,0.048782229516577,0.03398269503391987,0.025898717163670308,0.025063229369719553,0.0006582876110893497
1.510012401689723,0.04998265464348263,0.036997391456784455,0.027970420605425636,0.024169415412689587,0.0027588232114428347
1.5100839188446495,0.04939582665258717,0.03767546978027043,0.02744804663090382,0.02259393322330814,0.0035006151586994194
1.5101554359995761,0.046726633743720845,0.035433982459606495,0.024915387052692306,0.019782476022027446,0.0036893194771201155
1.5102269531545027,0.04221494386441091,0.03283699805826713,0.022036546886626967,0.016596435052523277,0.003897387246694583
1.5102984703094293,0.0365554045951188,0.031463885765282244,0.019143160662124768,0.016398914179942905,0.0019858664960096637
1.510369987464356,0.030705701566729478,0.03181849928822089,0.01712115674686206,0.018570932429820365,-0.0009807098640810122
1.5104415046192825,0.025671938650474672,0.033355153183202486,0.016152578444133103,0.02214803276580016,-0.004192963580772945
1.510513021774209,0.02230380117340663,0.035320005876094726,0.01595046449902194,0.025792056516874638,-0.0069096572947950205
1.5105845389291357,0.02110478427342222,0.034066450950916455,0.014310671393420193,0.026133282139196388,-0.00831282273777006
1.5106560560840623,0.022087028251984653,0.028872505888302123,0.011927341615445858,0.021306789469907755,-0.006593137611643488
1.5107275732389889,0.02474352062355467,0.02039540420891129,0.008315005741078718,0.013941962839802452,-0.003952298077216027
1.5107990903939155,0.028206425428266402,0.013828048981484277,0.006455089330600415,0.007278069345938132,-0.0005653755861550854
1.510870607548842,0.03156791810921427,0.010609919911997555,0.006924877381908108,0.0035414225545196743,0.0024051443001416343
1.5109421247037687,0.034217944840168574,0.010656691276154382,0.0085255112555674,0.004889802544567176,0.0025871689028008986
1.5110136418586952,0.036025983655989566,0.013897564111217672,0.01161661354179527,0.009530765911241926,0.0015009106106743878
1.5110851590136218,0.03729532439305516,0.015488939435643103,0.013294021431409462,0.014685487434091293,-0.0009496117653127779
1.5111566761685484,0.03854470610167679,0.014003771871224995,0.013163190298163863,0.019798739363079323,-0.004652538857130717
1.511228193323475,0.04022460916569971,0.012461325672190037,0.013651672900344249,0.022443048533715225,-0.006173659751776334
1.5112997104784016,0.04246467581659284,0.013187321211432422,0.01442102957265151,0.024024768575278643,-0.006745460653785192
1.5113712276333282,0.04493429586497486,0.01812020315009403,0.016921655013448497,0.02760837602115064,-0.007504144813007272
1.5114427447882548,0.04689231770787431,0.023991987083135016,0.019784155718843215,0.03151540279164712,-0.008234747934561618
1.5115142619431814,0.047454803887083834,0.026562533398991207,0.02007376929597759,0.0327237974460421,-0.008883099432225313
