freq,gls,usurper,pdc_unbiased,shape_periodogram,shift_periodogram
1.5,0.031605246424144244,0.02975682406273005,0.022003088454338578,0.018505681676488892,0.00992002099308106
1.5000715171549266,0.028595336453250155,0.02303820416619702,0.01679692217781675,0.013711978059729004,0.00777697697796429
1.5001430343098532,0.024797888546036324,0.017328212568397828,0.011419584810450916,0.009719915691061036,0.005088948193166184
1.5002145514647798,0.020789812632417533,0.015556995722177678,0.008796510756732951,0.006129231305291186,0.004593857599755622
1.5002860686197064,0.017345459787468324,0.018166116000233688,0.009479677332466734,0.00430070286485053,0.0060945873516211595
1.500357585774633,0.015271945925960987,0.02272046159102963,0.011714688134418397,0.00436061275692656,0.008005237149878587
1.5004291029295596,0.015165201318802408,0.027945699059996974,0.01415548030345099,0.006591581559437844,0.0090171243466214
1.5005006200844861,0.01716595655706576,0.032820037485981744,0.016954003693511403,0.00836934289700575,0.010564823018424771
1.5005721372394127,0.02086274426290797,0.036513785013411446,0.019187221778694714,0.01085042896818707,0.011272931697612072
1.5006436543943393,0.02544081002802935,0.039762070644189275,0.02137618975240262,0.013467607307219817,0.011875418145194536
1.500715171549266,0.03000884122307953,0.04331666488593921,0.02421994995090846,0.015110266789135626,0.013530611840303762
1.5007866887041925,0.03391266896856934,0.04740303081671713,0.02666061786266369,0.01955947238828807,0.013443801903858707
1.500858205859119,0.0368882624749449,0.05200653876987347,0.029368029530911475,0.024936590745678146,0.013129177736239946
1.5009297230140457,0.0390355018056212,0.05694868990438497,0.03287087235373193,0.03162077390664498,0.012858693533035304
1.5010012401689723,0.04067274274449097,0.05862206072914339,0.0349635290275476,0.0370394884059196,0.011990532577895964
1.5010727573238989,0.04213722341942038,0.058667051894012036,0.036798409825528795,0.040718781339071475,0.01176158526844922
1.5011442744788255,0.043587855733941964,0.05853924532159497,0.03793328428010061,0.04394794153536191,0.011146968574072411
1.501215791633752,0.044880915226329254,0.05822092823034932,0.03824814004694497,0.0467484134696759,0.010031086691020026
1.5012873087886787,0.045592465454410994,0.05924016091242526,0.03896037083855539,0.04909848567938746,0.00948469857684068
1.5013588259436053,0.04519857422015515,0.058616523216495506,0.038338310339186395,0.049008674896130366,0.008987490625620485
1.5014303430985318,0.04331902735671992,0.05499517355954772,0.03525172960142179,0.04943135248818854,0.0060896869284433304
1.5015018602534584,0.03989064242203222,0.04718405956007974,0.029380562295107576,0.04758093045215416,0.0018983675393587764
1.501573377408385,0.035207008956161204,0.0380952779215848,0.02275340008029923,0.04529326236726427,-0.0027298047516257384
1.5016448945633116,0.029854908046904056,0.029878636370719386,0.01716592382272006,0.04036143747957246,-0.0051362568666032575
1.5017164117182382,0.02460404968418353,0.023003063691494508,0.01272729457488559,0.034247488839414884,-0.005954915844851937
1.5017879288731648,0.020274028275387688,0.018937811317983156,0.010756457121333964,0.028831081911012416,-0.004975985429265438
1.5018594460280914,0.01756978332877583,0.016961303716577024,0.009814843547662735,0.025576389014914953,-0.004177176104583921
1.501930963183018,0.016887968997375314,0.01661856630707633,0.009773529530205848,0.022657413709983202,-0.0027634028259186914
1.5020024803379446,0.018154766828972088,0.015878179165206095,0.009545857603491862,0.020016061686502794,-0.001649502861261896
1.5020739974928712,0.020807783027131654,0.016463673242702575,0.00997328939183271,0.018282434857580368,-0.00041755170195140613
1.5021455146477978,0.023992628107040868,0.01891210055668842,0.01144212206274167,0.01737824792927734,0.0013068577503223952
1.5022170318027244,0.026898257150269028,0.023260364879114856,0.014028974316248104,0.018836669175319624,0.002829338607319827
1.502288548957651,0.029041972437567,0.027810554060693937,0.016679671046279716,0.020792604816985565,0.004160616470016594
1.5023600661125776,0.03036170293294545,0.03268492929606789,0.019990738498687276,0.023909523342732886,0.005489717693983803
1.5024315832675041,0.031115659296329378,0.0331697048670629,0.02077896981185265,0.025854849200542904,0.00520890116777236
1.5025031004224307,0.031680428730509906,0.030144189759631367,0.019519808615351825,0.026706084034373183,0.0036922314587193145
1.5025746175773573,0.032340192227813126,0.02637802091122022,0.018649627815208736,0.025273633953888108,0.003647358348064627
1.502646134732284,0.033131945974426154,0.02385985299665447,0.017871043624403338,0.02300335836058943,0.004098039740126111
1.5027176518872105,0.033797027787609374,0.02354167939828703,0.01799769758677829,0.021533932126287823,0.004937513640214935
1.502789169042137,0.033871437590867574,0.02241035876423507,0.017486670760106647,0.01910048415809553,0.005701541070776544
1.5028606861970637,0.03289397904446062,0.019242423835169848,0.015274482970942199,0.01728895571550374,0.0046793572006332065
1.5029322033519903,0.030638444170610023,0.015492479454751974,0.012011118949132128,0.016089941366567526,0.0024405407975468594
1.5030037205069169,0.02725242384486997,0.013440286324284515,0.009441040885373031,0.015349296979840091,0.000576524090512044
1.5030752376618435,0.023245599290448483,0.014820045027566162,0.008606550278537486,0.014656349274774013,0.00019596464817358837
1.50314675481677,0.019358366958489085,0.018160328678707795,0.008953985446160287,0.014273317832187465,0.0006877935795722853
1.5032182719716967,0.01638051368297583,0.02248531448937889,0.010426555451109277,0.013878709446684684,0.002162315045082868
1.5032897891266233,0.01497089818834955,0.02669421908025202,0.012350463029946239,0.014279143438403008,0.003634124618811092
1.5033613062815498,0.015499460648454992,0.030095918625486114,0.013981854206916533,0.014544816853132875,0.004918915014587783
1.5034328234364764,0.01793079665045714,0.03063907568629598,0.01416864675154985,0.013105959905059429,0.005795319518613005
1.503504340591403,0.021792554285279486,0.0301654872932785,0.013806564009865633,0.011708637300449545,0.006174459129901662
1.5035758577463296,0.026283745634476982,0.032885090083732985,0.015751292513310384,0.012208821199054464,0.00761495234686219
1.5036473749012562,0.03053094650102892,0.038160341240455795,0.019003856556851165,0.016189400273078924,0.008464202269631571
1.5037188920561828,0.03389868374654469,0.04520160281387659,0.02304438568669538,0.022467480208656073,0.00885864424560469
1.5037904092111094,0.03619247413189749,0.05374454973060888,0.02836367437687625,0.02902823779960095,0.010225903373933113
1.503861926366036,0.03764566473947448,0.06007471325356096,0.03246316988130233,0.03503160897241737,0.010811665858375516
1.5039334435209626,0.038716510453014726,0.06289699683968179,0.03408384953452373,0.041606939602730944,0.008958225088051037
1.5040049606758892,0.0398171228344044,0.06418834366252958,0.03557140334761458,0.04594510494810861,0.008099282175225668
1.5040764778308158,0.041095739566223526,0.06748114235409183,0.037525773851031737,0.049788517612315224,0.007892595897747592
1.5041479949857424,0.04234364882306056,0.07081190520445388,0.038887791087543686,0.05362943907828229,0.007171457736180344
1.504219512140669,0.043051695709888996,0.07233331613539246,0.03921573232033744,0.05708966637767197,0.005738225226841071
1.5042910292955955,0.04260283060723393,0.06796697371988264,0.036347749549566495,0.05936353649239286,0.002108897897381344
1.5043625464505221,0.04053910287302065,0.05737898679815259,0.030363706364527798,0.05825096285456307,-0.002550223683335913
1.5044340636054487,0.03679439695722014,0.044040462499777944,0.02344001313236871,0.0532447190821041,-0.00608620710255007
1.5045055807603753,0.03178229372791513,0.03243171888592714,0.01698689592080203,0.04781683497109734,-0.008998489710667367
1.504577097915302,0.026296542555493532,0.02452677880693004,0.012446934359831944,0.04235725917536396,-0.0102293881713138
1.5046486150702285,0.021278189004975218,0.02164623601584785,0.011187449324425095,0.037074351051779655,-0.008697472000567577
1.504720132225155,0.017555651134353225,0.020858802110092507,0.011283372248322305,0.033117449271496666,-0.006647786226941964
1.5047916493800817,0.01564621916050789,0.019834574417365303,0.010644076718018416,0.03060154806580904,-0.005953112761608695
1.5048631665350083,0.015656872938766518,0.01762264285900989,0.009217644422453899,0.027362661806227265,-0.005583066606101615
1.5049346836899349,0.017286051262519187,0.016056037848391696,0.008230188330603324,0.023959219551132793,-0.004750163387629937
1.5050062008448615,0.019918755698584013,0.015907901477940696,0.007905738300784866,0.020628702111934457,-0.003377925991839947
1.505077717999788,0.022804926807040774,0.018048948676604993,0.009361654152707073,0.01816644442604483,-0.0008910771693183458
1.5051492351547147,0.025289013466251117,0.0228664571280616,0.011726326065843064,0.020216946143337244,0.0001442936513618256
1.5052207523096413,0.027015644551186973,0.027744571839551625,0.014241445734319206,0.022141896228493465,0.001372931284777467
1.5052922694645678,0.028012475009877,0.030098531391558016,0.015961322224474977,0.02213387876400107,0.0028707823351733983
1.5053637866194944,0.028596359216805502,0.02666256038787847,0.014919408532213189,0.020142272220827123,0.002954536713070602
1.505435303774421,0.02915112616185344,0.02002954968520723,0.013309044659559194,0.015880716374618624,0.0036715163983708906
1.5055068209293476,0.029900153036102176,0.015527705550141132,0.012321918805932341,0.01234502313227419,0.004569412646933135
1.5055783380842742,0.030782681811496897,0.01489900141998337,0.01250866989698158,0.010304099180007303,0.005744613224349696
1.5056498552392008,0.03146961942071043,0.017248413681278645,0.013496870470295333,0.010912132423470028,0.006300881121524503
1.5057213723941274,0.03149161794629547,0.018448445654361913,0.013134126432083434,0.012880864598473025,0.005008706075687524
1.505792889549054,0.030427310908792447,0.017968016210066114,0.011855838401314541,0.015829069214796446,0.002435203896597588
1.5058644067039806,0.02809465201809536,0.01587497447282822,0.009674998552531539,0.01749954036430209,-0.00028786866615163374
1.5059359238589072,0.024683284499830333,0.01225340128102565,0.006168765257997816,0.017654541515521514,-0.003409289366325916
1.5060074410138338,0.020766913938386953,0.009972324051472008,0.003987129865862614,0.016727648188281534,-0.0048432037064004415
1.5060789581687604,0.017165658691511196,0.011201056617424076,0.004506773893992003,0.015232027142258799,-0.0036494304413271735
1.506150475323687,0.014695536880755058,0.013899362516314424,0.005603202541494299,0.014997271681316595,-0.0025809450689809926
1.5062219924786135,0.013907828977730352,0.016324145307838912,0.006474304461408025,0.014792133045890613,-0.0017227820216491176
1.5062935096335401,0.014929925183180436,0.016986176338060804,0.007024475314287043,0.012788349409214944,-0.0002502871575560096
1.5063650267884667,0.01746107614733839,0.0161823192470347,0.006681651925523114,0.011769585846314068,-4.216589798305489e-05
1.5064365439433933,0.020900617081537138,0.017955895168227105,0.008103902228742074,0.011092609607743747,0.0015287271612793225
1.50650806109832,0.024545654709518663,0.022278225250051617,0.01119024144466396,0.009825408924658673,0.0048374542827202965
1.5065795782532465,0.027795889555703463,0.029526336225874743,0.015188716512202768,0.012337715130626998,0.007062441981302751
1.506651095408173,0.030315638754338018,0.03893745606777106,0.02020329875354711,0.016502698110108197,0.009350557882133332
1.5067226125630997,0.03210575674634778,0.04823861548106273,0.02516307524326057,0.02176431142238991,0.01104857239353052
1.5067941297180263,0.03344435853615213,0.053480903508058925,0.02809340030703321,0.026671570644014535,0.011160377206920846
1.5068656468729529,0.03469846610783441,0.05385243504564157,0.028836225363534616,0.02937709987167484,0.010463612580680444
1.5069371640278795,0.03608805388876267,0.05289268480420888,0.029158238083419115,0.03088509239073233,0.009995242459579274
1.507008681182806,0.03753193323000867,0.05279623018058006,0.029645090979329304,0.033097265365706036,0.009320707656640318
1.5070801983377327,0.038657419159163646,0.05317789886329081,0.03000532215028713,0.03504292213463608,0.008668288893228905
1.5071517154926592,0.038950459296790155,0.0521417359862715,0.029635790998015537,0.035575805777493724,0.0080823997650983
1.5072232326475858,0.03795818995272562,0.046713935514705984,0.026170643808596194,0.03627545899011394,0.004721714422127923
1.5072947498025124,0.035465807062779846,0.039726043388912974,0.02167628316777021,0.03648934191199125,0.0007080963016828136
1.507366266957439,0.03160750390290827,0.03391117251630767,0.01779655130545853,0.035775263377571545,-0.0023092931527260063
1.5074377841123656,0.02689036393457737,0.028924978461799217,0.014369878001425985,0.03460962101880857,-0.0047077632185815385
1.5075093012672922,0.022110982309926926,0.024546345949538417,0.012274203971852665,0.03211142063374907,-0.0052872277239934375
1.5075808184222188,0.018158898886019043,0.021663718931471787,0.010838451012952628,0.03075759014120929,-0.005861800725906355
1.5076523355771454,0.015750547010193554,0.01990170229188525,0.009985828883372298,0.029387948334038554,-0.005921947934088659
1.507723852732072,0.015198153002695225,0.016730817134438455,0.008495434228764531,0.026269864301944057,-0.005667466906044663
1.5077953698869986,0.01632710132796861,0.012501140970631652,0.006411917338543193,0.02191774641972241,-0.00531519153429536
1.5078668870419252,0.01858159605132472,0.009488482320204005,0.00521914285473996,0.017253926857226428,-0.004034871739093652
1.5079384041968518,0.02125563485920751,0.007778979369373793,0.005152249488431391,0.011838464683085591,-0.0014041776490755318
1.5080099213517784,0.023737553869918368,0.007691632766769634,0.0057615299185219465,0.008252070668936608,0.0009052076868692683
1.508081438506705,0.025680396681245936,0.00971794696901281,0.007453924502377228,0.005381179639052778,0.0037995902377078185
1.5081529556616315,0.027059576075294776,0.0115396485671099,0.008842952470356694,0.003297041602376258,0.0060399927218077396
1.5082244728165581,0.028112039179855254,0.010648460319482854,0.008942296206187028,0.000995173872658336,0.007268803381930588
1.5082959899714847,0.029172386947160022,0.008272945318669747,0.008780907310022895,-0.0010023999263086866,0.008120229552472857
1.5083675071264113,0.03045818310099522,0.00812913804610516,0.010026451111954632,-0.0021856517435540905,0.009788811582103039
1.508439024281338,0.03190386747651281,0.01224247562696454,0.012747040105629182,-0.0013865851589094551,0.011753962282057948
1.5085105414362645,0.03314377564440417,0.018363816187521646,0.01600259242207933,0.0015776197211796893,0.013109173489556354
1.508582058591191,0.03366149064758627,0.023371125909975952,0.0186299276568245,0.004819912524878252,0.013781410512310624
1.5086535757461177,0.03301661123576188,0.023077345670085125,0.017302793300784304,0.0071405007115349795,0.01147750320491319
1.5087250929010443,0.031031763736761156,0.01881213005854169,0.013978643770450466,0.008612463670307043,0.007860600452515213
1.5087966100559709,0.02787943173947238,0.013380440497451924,0.009773118861112214,0.008700981788429476,0.0041651872601951075
1.5088681272108975,0.024071143965329337,0.008413870496134635,0.005405399448016361,0.008891909052063458,0.0002783985073276026
1.508939644365824,0.020368522042175177,0.00448682979848763,0.002619426200917792,0.007350434772385969,-0.0013749732054542773
1.5090111615207507,0.017622660517009992,0.0026549187430745685,0.001280243020763253,0.006886847673579611,-0.0023073914415363624
1.5090826786756772,0.016549556574789192,0.0021498733134936673,0.001094148915450876,0.007652073240838982,-0.002848827428158488
1.5091541958306038,0.01749078347259404,0.0023411586686949174,0.001728275756159572,0.007479357371071066,-0.002212594661763448
1.5092257129855304,0.02026609634215111,0.0031367204525857796,0.002622344403247119,0.005766735215303747,-0.0005862478549854166
1.509297230140457,0.024225306810832306,0.0068980625825239405,0.005090188490138515,0.004566441711358034,0.002151972469194237
1.5093687472953836,0.028505184243561566,0.015346083398844475,0.010396256019729185,0.004763742362804887,0.0066605027041456545
1.5094402644503102,0.032363241212534366,0.02685796442029597,0.017181792517199104,0.007302168504394632,0.011292207884709719
1.5095117816052368,0.035420479974014,0.03942110901263603,0.023785576506019895,0.011112141783663926,0.01513681886897677
1.5095832987601634,0.03772295943106026,0.04873178249251814,0.028541189697550762,0.01422088134838031,0.017725956545144708
1.50965481591509,0.039632532833370364,0.05142520294869823,0.030196375009199177,0.016216377074340704,0.018174458489526243
1.5097263330700166,0.041605230836871475,0.0465530962611142,0.028415936049993602,0.015631325068885215,0.016917571717038796
1.5097978502249432,0.04392716574129624,0.03922563529486007,0.026087173799228647,0.01179430857524238,0.01679763620110612
1.5098693673798698,0.04649881119729661,0.0352069794630446,0.025125670272120693,0.008281771865783577,0.017704840548397285
1.5099408845347964,0.048782229516577,0.03568197333626969,0.025898717163670308,0.007928614158286874,0.018551438476680688
1.510012401689723,0.04998265464348263,0.038908660376752544,0.027970420605425636,0.009429017084817958,0.019606713840032836
1.5100839188446495,0.04939582665258717,0.03948467062736218,0.02744804663090382,0.011687541680135806,0.01803276539900233
1.5101554359995761,0.046726633743720845,0.036818266473047034,0.024915387052692306,0.013678827289596055,0.014844888433980376
1.5102269531545027,0.04221494386441091,0.033731168650992384,0.022036546886626967,0.015381624960682834,0.011499292512370082
1.5102984703094293,0.0365554045951188,0.03180461503235894,0.019143160662124768,0.01750358157337118,0.007932982032682534
1.510369987464356,0.030705701566729478,0.03149684294027891,0.01712115674686206,0.019710852846908617,0.005081080664106258
1.5104415046192825,0.025671938650474672,0.0323795373605159,0.016152578444133103,0.021515072305155016,0.0033441199714402616
1.510513021774209,0.02230380117340663,0.03382919620945407,0.01595046449902194,0.0237958348561154,0.0020362208901573624
1.5105845389291357,0.02110478427342222,0.032170483033875444,0.014310671393420193,0.024316669239700318,0.00035323149617342957
1.5106560560840623,0.022087028251984653,0.02682675504940013,0.011927341615445858,0.020897026458086665,-1.8803559270061475e-05
1.5107275732389889,0.02474352062355467,0.018344923115185346,0.008315005741078718,0.015299618770558568,-0.0003765398782169314
1.5107990903939155,0.028206425428266402,0.011875592648691171,0.006455089330600415,0.008948531030854313,0.001161596458167985
1.510870607548842,0.03156791810921427,0.008855397374817654,0.006924877381908108,0.003549555208183516,0.004249494673524901
1.5109421247037687,0.034217944840168574,0.009154421047843564,0.0085255112555674,0.000294675209059796,0.007254689183585563
1.5110136418586952,0.036025983655989566,0.01256771646742047,0.01161661354179527,-0.0014723282205090268,0.010815178011299244
1.5110851590136218,0.03729532439305516,0.014190922191407293,0.013294021431409462,-0.0018668954898654918,0.012467195566468022
1.5111566761685484,0.03854470610167679,0.012566282151061793,0.013163190298163863,-0.0018548857781225515,0.01234765823110934
1.511228193323475,0.04022460916569971,0.011000512091360165,0.013651672900344249,-0.003623770966309223,0.01364965041963587
1.5112997104784016,0.04246467581659284,0.011939931685669576,0.01442102957265151,-0.00427898388111721,0.014642717941691431
1.5113712276333282,0.04493429586497486,0.017172014816880566,0.016921655013448497,-0.0032028234189290165,0.016279425530373294
1.5114427447882548,0.04689231770787431,0.0233280182999137,0.019784155718843215,-0.0010484083260636021,0.01769542290693267
1.5115142619431814,0.047454803887083834,0.026036846443762116,0.02007376929597759,0.001984169922869189,0.016442148329479777
