freq,gls,usurper,pdc_unbiased,shape_periodogram,shift_periodogram
1.5,0.031605246424144244,0.035463257770308024,0.022003088454338578,0.05205565718381834,-0.022731151890523417
1.5000715171549266,0.028595336453250155,0.027590040584870357,0.01679692217781675,0.04336831342501529,-0.019987082477055024
1.5001430343098532,0.024797888546036324,0.02163711811433371,0.011419584810450916,0.03678055797179644,-0.018890091637586953
1.5002145514647798,0.020789812632417533,0.020804588776871632,0.008796510756732951,0.03288915027274306,-0.017862160257840227
1.5002860686197064,0.017345459787468324,0.024872404954724897,0.009479677332466734,0.0332840790171539,-0.017679953207924277
1.500357585774633,0.015271945925960987,0.031141038163835184,0.011714688134418397,0.03567604149115055,-0.017883829896057454
1.5004291029295596,0.015165201318802408,0.03793629687503966,0.01415548030345099,0.041188722250051504,-0.020216845379235585
1.5005006200844861,0.01716595655706576,0.043953772553613206,0.016954003693511403,0.0455671860585422,-0.021479472730881664
1.5005721372394127,0.02086274426290797,0.048504420019935775,0.019187221778694714,0.0495310014867308,-0.022829497942541792
1.5006436543943393,0.02544081002802935,0.05272541454201559,0.02137618975240262,0.0537707285006316,-0.024411492925095396
1.500715171549266,0.03000884122307953,0.05756953701250726,0.02421994995090846,0.057833792783444325,-0.02541498971916557
1.5007866887041925,0.03391266896856934,0.06345929092182917,0.02666061786266369,0.06533722881333244,-0.02920458797350505
1.500858205859119,0.0368882624749449,0.06946875512768245,0.029368029530911475,0.074334539800085,-0.03390464799999277
1.5009297230140457,0.0390355018056212,0.0751275056683732,0.03287087235373193,0.08417095524079789,-0.03867631987796506
1.5010012401689723,0.04067274274449097,0.07651866234649059,0.0349635290275476,0.0903723163146375,-0.04176856099481718
1.5010727573238989,0.04213722341942038,0.07547650493867267,0.036798409825528795,0.09324560531301394,-0.042605906600098435
1.5011442744788255,0.043587855733941964,0.07444876722552699,0.03793328428010061,0.09560754318446635,-0.04355216122828731
1.501215791633752,0.044880915226329254,0.07358022694538136,0.03824814004694497,0.09665795336025777,-0.04410408026792197
1.5012873087886787,0.045592465454410994,0.07420585540999912,0.03896037083855539,0.09978536573720548,-0.045903359605525274
1.5013588259436053,0.04519857422015515,0.07254720932562074,0.038338310339186395,0.10018244928425714,-0.04662337023156707
1.5014303430985318,0.04331902735671992,0.06733993248230238,0.03525172960142179,0.09761244705317781,-0.046869154663726195
1.5015018602534584,0.03989064242203222,0.05760014872372473,0.029380562295107576,0.09112397163856005,-0.04616469485217762
1.501573377408385,0.035207008956161204,0.04631043684733009,0.02275340008029923,0.08260408183244007,-0.0444964223514286
1.5016448945633116,0.029854908046904056,0.036454942882124114,0.01716592382272006,0.07337439200799585,-0.04159872059844658
1.5017164117182382,0.02460404968418353,0.02842721172523305,0.01272729457488559,0.06441409119589023,-0.03811344485986028
1.5017879288731648,0.020274028275387688,0.02351931054322379,0.010756457121333964,0.05661081052530849,-0.0337808809423507
1.5018594460280914,0.01756978332877583,0.021001013727967487,0.009814843547662735,0.05148648339870903,-0.030695640718520923
1.501930963183018,0.016887968997375314,0.020691266537940747,0.009773529530205848,0.04623342090914394,-0.026899674172934623
1.5020024803379446,0.018154766828972088,0.020651044198046323,0.009545857603491862,0.04209271035826392,-0.02404259159844525
1.5020739974928712,0.020807783027131654,0.02272859765074082,0.00997328939183271,0.03995914985858127,-0.02219645030947302
1.5021455146477978,0.023992628107040868,0.027405328209642962,0.01144212206274167,0.04117949318740147,-0.02207502242515541
1.5022170318027244,0.026898257150269028,0.034210256404325234,0.014028974316248104,0.04596073025419791,-0.023776738480028436
1.502288548957651,0.029041972437567,0.0407430152156786,0.016679671046279716,0.05286738243681045,-0.026983261247672558
1.5023600661125776,0.03036170293294545,0.04629011531633611,0.019990738498687276,0.05976716225032278,-0.02973319833349702
1.5024315832675041,0.031115659296329378,0.04608161620246224,0.02077896981185265,0.06375389191644268,-0.03209705038626298
1.5025031004224307,0.031680428730509906,0.041419252441467776,0.019519808615351825,0.06395350472247775,-0.03310855034120327
1.5025746175773573,0.032340192227813126,0.03580146308541835,0.018649627815208736,0.06108207986884626,-0.03161377946630729
1.502646134732284,0.033131945974426154,0.03210867145847707,0.017871043624403338,0.05695796017824145,-0.029143852268114234
1.5027176518872105,0.033797027787609374,0.03110656223270885,0.01799769758677829,0.05586800576348343,-0.02826270038376289
1.502789169042137,0.033871437590867574,0.02904470799618362,0.017486670760106647,0.054114621250792534,-0.027336837404576313
1.5028606861970637,0.03289397904446062,0.02433898924008755,0.015274482970942199,0.05074846777886116,-0.026406207242027115
1.5029322033519903,0.030638444170610023,0.01989542986811055,0.012011118949132128,0.0468025686135519,-0.02577637683471326
1.5030037205069169,0.02725242384486997,0.018070968875155823,0.009441040885373031,0.04439570594480481,-0.025790573092127917
1.5030752376618435,0.023245599290448483,0.0209836799572767,0.008606550278537486,0.04446189735209747,-0.026412099207244306
1.50314675481677,0.019358366958489085,0.02628858966745536,0.008953985446160287,0.045241098193068055,-0.02674049853477729
1.5032182719716967,0.01638051368297583,0.032681692513495446,0.010426555451109277,0.046516119029831424,-0.026656744456329578
1.5032897891266233,0.01497089818834955,0.03829433914737836,0.012350463029946239,0.04667037747440365,-0.025446941544080632
1.5033613062815498,0.015499460648454992,0.04235356815261106,0.013981854206916533,0.04620122325875929,-0.023984181890607685
1.5034328234364764,0.01793079665045714,0.043111298138755166,0.01416864675154985,0.04356016825894487,-0.021933524993073352
1.503504340591403,0.021792554285279486,0.043674906386346864,0.013806564009865633,0.0410675201713744,-0.02036848641021279
1.5035758577463296,0.026283745634476982,0.04858158403661064,0.015751292513310384,0.041745862443936695,-0.019525259170500308
1.5036473749012562,0.03053094650102892,0.056975420784042316,0.019003856556851165,0.047137958395016756,-0.02121337314669216
1.5037188920561828,0.03389868374654469,0.06741703779637945,0.02304438568669538,0.05699156412933593,-0.025610181244658282
1.5037904092111094,0.03619247413189749,0.07850039175091282,0.02836367437687625,0.06787224130959424,-0.029880925739633402
1.503861926366036,0.03764566473947448,0.08637656017240579,0.03246316988130233,0.07777333490528006,-0.03428338605710898
1.5039334435209626,0.038716510453014726,0.08975377066349499,0.03408384953452373,0.08450389388252148,-0.038083798263174554
1.5040049606758892,0.0398171228344044,0.09089717212244398,0.03557140334761458,0.08925440117860958,-0.040531818968779235
1.5040764778308158,0.041095739566223526,0.09453060450560881,0.037525773851031737,0.09335445282256247,-0.042183985344906784
1.5041479949857424,0.04234364882306056,0.09821000587392367,0.038887791087543686,0.09778605306711076,-0.04448896348016363
1.504219512140669,0.043051695709888996,0.09904173537557427,0.03921573232033744,0.10091977589967804,-0.046558345889960225
1.5042910292955955,0.04260283060723393,0.09161263140654691,0.036347749549566495,0.09941085105946515,-0.04743080373679394
1.5043625464505221,0.04053910287302065,0.07639084806545277,0.030363706364527798,0.0916263969967423,-0.04585525751232364
1.5044340636054487,0.03679439695722014,0.05789731777548196,0.02344001313236871,0.07953557267083697,-0.04178246442788745
1.5045055807603753,0.03178229372791513,0.04234865660981028,0.01698689592080203,0.06838086261524569,-0.03807859619278763
1.504577097915302,0.026296542555493532,0.03221478468082439,0.012446934359831944,0.05919562564527109,-0.03450259700079929
1.5046486150702285,0.021278189004975218,0.028673944915634297,0.011187449324425095,0.05284796191199145,-0.030743991887898607
1.504720132225155,0.017555651134353225,0.02775512085596487,0.011283372248322305,0.047597013147729766,-0.026854799536324966
1.5047916493800817,0.01564621916050789,0.026708857707670817,0.010644076718018416,0.04332364129554311,-0.024183719040242708
1.5048631665350083,0.015656872938766518,0.024429963550364205,0.009217644422453899,0.038051397581150226,-0.02132772569787858
1.5049346836899349,0.017286051262519187,0.02333802234888849,0.008230188330603324,0.03415845250276539,-0.019174459420387615
1.5050062008448615,0.019918755698584013,0.02471043437127171,0.007905738300784866,0.0322536319810308,-0.018012030158488884
1.505077717999788,0.022804926807040774,0.028830166329626063,0.009361654152707073,0.03211969881924767,-0.01691422639054622
1.5051492351547147,0.025289013466251117,0.036032585440602755,0.011726326065843064,0.0376441271321183,-0.019307501864345353
1.5052207523096413,0.027015644551186973,0.04255464084824436,0.014241445734319206,0.044266994977268895,-0.0223979058024062
1.5052922694645678,0.028012475009877,0.04517598131998017,0.015961322224474977,0.04802692506947313,-0.02395251205826729
1.5053637866194944,0.028596359216805502,0.040332636902015245,0.014919408532213189,0.046800723997965185,-0.023776117627793737
1.505435303774421,0.02915112616185344,0.03102475496117911,0.013309044659559194,0.04254812949198413,-0.021787865628235283
1.5055068209293476,0.029900153036102176,0.024824894053935943,0.012321918805932341,0.03814592452848607,-0.01926322589791533
1.5055783380842742,0.030782681811496897,0.023896215582939632,0.01250866989698158,0.036549583280706885,-0.017973576555635567
1.5056498552392008,0.03146961942071043,0.026711277121978665,0.013496870470295333,0.03924307793515112,-0.019253883249288534
1.5057213723941274,0.03149161794629547,0.02804013246876123,0.013134126432083434,0.04295201232736482,-0.022202006922563754
1.505792889549054,0.030427310908792447,0.026739424204269866,0.011855838401314541,0.04449975801796734,-0.024206946522583796
1.5058644067039806,0.02809465201809536,0.023272394270736282,0.009674998552531539,0.0434940377026385,-0.024973616954479937
1.5059359238589072,0.024683284499830333,0.018361091146333535,0.006168765257997816,0.041778036147508316,-0.026133778100055412
1.5060074410138338,0.020766913938386953,0.01554617186088663,0.003987129865862614,0.03999635860354129,-0.026336033408484057
1.5060789581687604,0.017165658691511196,0.017021469562579952,0.004506773893992003,0.03840567792409386,-0.02482188275851161
1.506150475323687,0.014695536880755058,0.020627580702659163,0.005603202541494299,0.03722344764168604,-0.023208698415394413
1.5062219924786135,0.013907828977730352,0.024235855546537923,0.006474304461408025,0.035310570980203675,-0.021218842455404934
1.5062935096335401,0.014929925183180436,0.025429521818758013,0.007024475314287043,0.030969341673666724,-0.01768355611694583
1.5063650267884667,0.01746107614733839,0.02550973247988998,0.006681651925523114,0.026107261627838132,-0.01438376787089069
1.5064365439433933,0.020900617081537138,0.0295205977223543,0.008103902228742074,0.02374393459347589,-0.011688361740555282
1.50650806109832,0.024545654709518663,0.03711565812605091,0.01119024144466396,0.02407943987052398,-0.009811390302696269
1.5065795782532465,0.027795889555703463,0.048356659368772106,0.015188716512202768,0.030749969008128198,-0.011913227148663604
1.506651095408173,0.030315638754338018,0.061666359659908736,0.02020329875354711,0.04002739947181153,-0.015213612103619378
1.5067226125630997,0.03210575674634778,0.0739415484627512,0.02516307524326057,0.05017586276193009,-0.019188134998261133
1.5067941297180263,0.03344435853615213,0.08091438447706084,0.02809340030703321,0.056867475045258825,-0.022044966047153395
1.5068656468729529,0.03469846610783441,0.08116967527159952,0.028836225363534616,0.05864513718261281,-0.02282877913610686
1.5069371640278795,0.03608805388876267,0.07931698054846495,0.029158238083419115,0.05729019160502773,-0.021619817373965695
1.507008681182806,0.03753193323000867,0.07829069586548619,0.029645090979329304,0.05666890681439765,-0.020831954058624154
1.5070801983377327,0.038657419159163646,0.07778852426221701,0.03000532215028713,0.056064029948019956,-0.020143246760022007
1.5071517154926592,0.038950459296790155,0.07495287461159955,0.029635790998015537,0.05430358254443291,-0.019115346684305635
1.5072232326475858,0.03795818995272562,0.06639661590717162,0.026170643808596194,0.050262414020037886,-0.018557757233189157
1.5072947498025124,0.035465807062779846,0.05607496753894392,0.02167628316777021,0.043803528582499154,-0.016948314276158803
1.507366266957439,0.03160750390290827,0.047521650414899155,0.01779655130545853,0.038661995151667086,-0.01587523389444373
1.5074377841123656,0.02689036393457737,0.04063763752456813,0.014369878001425985,0.035511996403577085,-0.01593952394488694
1.5075093012672922,0.022110982309926926,0.03442375502984064,0.012274203971852665,0.032423798064911344,-0.015133814401254775
1.5075808184222188,0.018158898886019043,0.030264945731137506,0.010838451012952628,0.031009455341449214,-0.015091972059688942
1.5076523355771454,0.015750547010193554,0.027256796641098088,0.009985828883372298,0.029275993227524413,-0.014417350446738506
1.507723852732072,0.015198153002695225,0.022367504983379183,0.008495434228764531,0.02497908823965005,-0.01231728298655023
1.5077953698869986,0.01632710132796861,0.016561034796201454,0.006411917338543193,0.019313297551874893,-0.009630198554002007
1.5078668870419252,0.01858159605132472,0.012642195796257976,0.00521914285473996,0.014571738657536828,-0.007003461131811847
1.5079384041968518,0.02125563485920751,0.01097384777430681,0.005152249488431391,0.010720510902217465,-0.004250563257435953
1.5080099213517784,0.023737553869918368,0.01195205795141054,0.0057615299185219465,0.009743565173301019,-0.003121994002214567
1.508081438506705,0.025680396681245936,0.015386303413833445,0.007453924502377228,0.011777964711783329,-0.003437606140829652
1.5081529556616315,0.027059576075294776,0.018247803905815527,0.008842952470356694,0.014659498022005031,-0.004577324585695807
1.5082244728165581,0.028112039179855254,0.017781844860103653,0.008942296206187028,0.015398534674978549,-0.005046176693498977
1.5082959899714847,0.029172386947160022,0.015281894803207996,0.008780907310022895,0.015216198993323389,-0.0050245556190981555
1.5083675071264113,0.03045818310099522,0.015412398117184145,0.010026451111954632,0.015579668651917431,-0.004432832999042202
1.508439024281338,0.03190386747651281,0.020880932358783032,0.012747040105629182,0.018797152905382503,-0.004901692166407381
1.5085105414362645,0.03314377564440417,0.02871984796865638,0.01600259242207933,0.024388450422903624,-0.006728353367324545
1.508582058591191,0.03366149064758627,0.03433945277705898,0.0186299276568245,0.02980015555958582,-0.008856682805841797
1.5086535757461177,0.03301661123576188,0.03300849403367596,0.017302793300784304,0.031979779010072464,-0.01135418850212253
1.5087250929010443,0.031031763736761156,0.026494320768866812,0.013978643770450466,0.029596084787124475,-0.011905938318629978
1.5087966100559709,0.02787943173947238,0.018647932210415632,0.009773118861112214,0.024726440106012694,-0.011255624896007002
1.5088681272108975,0.024071143965329337,0.012155472344958305,0.005405399448016361,0.020972655799449902,-0.011527912469986723
1.508939644365824,0.020368522042175177,0.00747485103143694,0.002619426200917792,0.018009436141556964,-0.01128807136923247
1.5090111615207507,0.017622660517009992,0.005570103212697443,0.001280243020763253,0.01744232205954717,-0.011795877324083213
1.5090826786756772,0.016549556574789192,0.0050154696243788835,0.001094148915450876,0.01694642782873786,-0.011563298572715285
1.5091541958306038,0.01749078347259404,0.005107519822905094,0.001728275756159572,0.015189769797593506,-0.009850943948890373
1.5092257129855304,0.02026609634215111,0.00643014741408369,0.002622344403247119,0.012791485540016996,-0.007493739942956862
1.509297230140457,0.024225306810832306,0.012244100305191775,0.005090188490138515,0.012660037994326127,-0.005702714912255054
1.5093687472953836,0.028505184243561566,0.024639022129393368,0.010396256019729185,0.015849477864590438,-0.004374803661808842
1.5094402644503102,0.032363241212534366,0.04110288855288028,0.017181792517199104,0.022639632714114163,-0.0046464127942973735
1.5095117816052368,0.035420479974014,0.058748333452270984,0.023785576506019895,0.031380518506069516,-0.0064601318702034284
1.5095832987601634,0.03772295943106026,0.07161151071079883,0.028541189697550762,0.037000618621286674,-0.0072751972119013365
1.50965481591509,0.039632532833370364,0.07548618088719326,0.030196375009199177,0.038195752372706976,-0.007005189962126017
1.5097263330700166,0.041605230836871475,0.06947251327969094,0.028415936049993602,0.035256791413231056,-0.006093088195562809
1.5097978502249432,0.04392716574129624,0.05962020850862184,0.026087173799228647,0.02761684636274902,-0.002140333276243407
1.5098693673798698,0.04649881119729661,0.0539956125240755,0.025125670272120693,0.020199166012167025,0.0025898346129774137
1.5099408845347964,0.048782229516577,0.05407276229778436,0.025898717163670308,0.017106051435803907,0.005369240418792746
1.510012401689723,0.04998265464348263,0.0572841619819953,0.027970420605425636,0.016704461743575733,0.007085987772440899
1.5100839188446495,0.04939582665258717,0.05726874120894176,0.02744804663090382,0.015689685740211977,0.007463984190298819
1.5101554359995761,0.046726633743720845,0.05305759070479,0.024915387052692306,0.013301930651891522,0.00745703303585366
1.5102269531545027,0.04221494386441091,0.04818794344708719,0.022036546886626967,0.010196454260089645,0.007733914563182997
1.5102984703094293,0.0365554045951188,0.045326721183592635,0.019143160662124768,0.010305588658690632,0.005665601911461665
1.510369987464356,0.030705701566729478,0.04476846182578758,0.01712115674686206,0.013079855718457684,0.0022598404983088572
1.5104415046192825,0.025671938650474672,0.04546604653749639,0.016152578444133103,0.017623618335293526,-0.001708028119460786
1.510513021774209,0.02230380117340663,0.04631038605527099,0.01595046449902194,0.022116594153864116,-0.005112672483982049
1.5105845389291357,0.02110478427342222,0.04278126016938711,0.014310671393420193,0.023587765979943925,-0.007309292573558975
1.5106560560840623,0.022087028251984653,0.033888910797401264,0.011927341615445858,0.019834835739373554,-0.006219288225105719
1.5107275732389889,0.02474352062355467,0.021732317985654944,0.008315005741078718,0.01330324308212843,-0.003954422897581371
1.5107990903939155,0.028206425428266402,0.012924963996896301,0.006455089330600415,0.008006735865511878,-0.0013833307475212995
1.510870607548842,0.03156791810921427,0.009201146524052139,0.006924877381908108,0.005712431477076755,0.0006066459757444298
1.5109421247037687,0.034217944840168574,0.010423092707484097,0.0085255112555674,0.008088767444337008,-2.0377386059473257e-05
1.5110136418586952,0.036025983655989566,0.015317121513518916,0.01161661354179527,0.012774579811363396,-0.0013014808118564246
1.5110851590136218,0.03729532439305516,0.018010827326968015,0.013294021431409462,0.016775701852619604,-0.003056539084133465
1.5111566761685484,0.03854470610167679,0.016663520617934056,0.013163190298163863,0.020188931235269856,-0.005627305980708296
1.511228193323475,0.04022460916569971,0.014814135074805583,0.013651672900344249,0.02123373593358275,-0.0060510252307017865
1.5112997104784016,0.04246467581659284,0.016303200133466002,0.01442102957265151,0.022168336044770573,-0.006201591273702466
1.5113712276333282,0.04493429586497486,0.023030799754095728,0.016921655013448497,0.026190677248436964,-0.007406766819911078
1.5114427447882548,0.04689231770787431,0.030765510630724052,0.019784155718843215,0.03096830443460293,-0.008912447159429394
1.5115142619431814,0.047454803887083834,0.03413354410510193,0.02007376929597759,0.032564436471994064,-0.009874023666448262
