freq,gls,usurper,pdc_unbiased,shape_periodogram,shift_periodogram
1.5,0.031605246424144244,0.03213073942411854,0.022003088454338578,0.05077897240218932,-0.019727562719100398
1.5000715171549266,0.028595336453250155,0.025433692074480808,0.01679692217781675,0.04207203262997067,-0.017367230288961786
1.5001430343098532,0.024797888546036324,0.019703055349024275,0.011419584810450916,0.035164721914466866,-0.016389198074121078
1.5002145514647798,0.020789812632417533,0.0178556976352004,0.008796510756732951,0.02939595121830927,-0.014235454699369193
1.5002860686197064,0.017345459787468324,0.02041730437860295,0.009479677332466734,0.02669245210618968,-0.011857186754333397
1.500357585774633,0.015271945925960987,0.024883542818070044,0.011714688134418397,0.02605715493230292,-0.009812939550361258
1.5004291029295596,0.015165201318802408,0.030126385993790524,0.01415548030345099,0.02973538394944577,-0.01063517846225489
1.5005006200844861,0.01716595655706576,0.03494101179938085,0.016954003693511403,0.03216267381600394,-0.010326970974625203
1.5005721372394127,0.02086274426290797,0.03845827465242085,0.019187221778694714,0.03384669960938905,-0.009904028659935676
1.5006436543943393,0.02544081002802935,0.04149569109326336,0.02137618975240262,0.03599030947910252,-0.0098338183638375
1.500715171549266,0.03000884122307953,0.044802013343985585,0.02421994995090846,0.03788955121408537,-0.009123213572611503
1.5007866887041925,0.03391266896856934,0.04881268643322471,0.02666061786266369,0.0446371072350361,-0.012091379815978258
1.500858205859119,0.0368882624749449,0.053528224438470225,0.029368029530911475,0.05457537942720336,-0.01710296002771534
1.5009297230140457,0.0390355018056212,0.0587900267242155,0.03287087235373193,0.06811369899140306,-0.024071889493273727
1.5010012401689723,0.04067274274449097,0.06078241154770827,0.0349635290275476,0.08006903675159195,-0.030955569085579213
1.5010727573238989,0.04213722341942038,0.06115196761145684,0.036798409825528795,0.0888264861189675,-0.03578906884634172
1.5011442744788255,0.043587855733941964,0.06126169708686734,0.03793328428010061,0.09640883280825789,-0.040306363735678336
1.501215791633752,0.044880915226329254,0.06091012941147007,0.03824814004694497,0.10128497999616483,-0.043513164982583674
1.5012873087886787,0.045592465454410994,0.06182738589677771,0.03896037083855539,0.10493644580361006,-0.04557381525560454
1.5013588259436053,0.04519857422015515,0.061137801904920644,0.038338310339186395,0.10512793412294824,-0.046156118397134335
1.5014303430985318,0.04331902735671992,0.05751949085881474,0.03525172960142179,0.10315465800146449,-0.04698420051342677
1.5015018602534584,0.03989064242203222,0.04975086436162938,0.029380562295107576,0.09731063027775497,-0.0470848741153742
1.501573377408385,0.035207008956161204,0.0406417345571735,0.02275340008029923,0.09004202184172906,-0.04672517537748268
1.5016448945633116,0.029854908046904056,0.032265981719958474,0.01716592382272006,0.08058852409577735,-0.04408730876223885
1.5017164117182382,0.02460404968418353,0.02524752916797896,0.01272729457488559,0.07028192139443235,-0.04003465653496278
1.5017879288731648,0.020274028275387688,0.021029593775423485,0.010756457121333964,0.06077278960716464,-0.03478165645261478
1.5018594460280914,0.01756978332877583,0.018987923614047525,0.009814843547662735,0.054492321335758424,-0.03105795955104247
1.501930963183018,0.016887968997375314,0.0184577410685634,0.009773529530205848,0.047315679484842665,-0.026065180681941993
1.5020024803379446,0.018154766828972088,0.017412794093039193,0.009545857603491862,0.04002742072487976,-0.021130579928323817
1.5020739974928712,0.020807783027131654,0.017736169225876543,0.00997328939183271,0.03417718862015469,-0.01673452123136992
1.5021455146477978,0.023992628107040868,0.02013144646486408,0.01144212206274167,0.03167319972180816,-0.013932600063308544
1.5022170318027244,0.026898257150269028,0.02471242768231825,0.014028974316248104,0.034600305364460036,-0.014125929533606968
1.502288548957651,0.029041972437567,0.029654471055520475,0.016679671046279716,0.04090020557534992,-0.016631752840780757
1.5023600661125776,0.03036170293294545,0.035092875851096536,0.019990738498687276,0.05022752501287978,-0.02078399937871193
1.5024315832675041,0.031115659296329378,0.03616484109606131,0.02077896981185265,0.05897868757544826,-0.026345441027120893
1.5025031004224307,0.031680428730509906,0.03369082105676401,0.019519808615351825,0.06451169673180202,-0.03112409748098361
1.5025746175773573,0.032340192227813126,0.030208992796336723,0.018649627815208736,0.06611088587050801,-0.032868437818982056
1.502646134732284,0.033131945974426154,0.027569461497545737,0.017871043624403338,0.06409884373771313,-0.03201626926636187
1.5027176518872105,0.033797027787609374,0.027016489298538515,0.01799769758677829,0.061882326878769676,-0.030372517587989235
1.502789169042137,0.033871437590867574,0.025675685190463156,0.017486670760106647,0.058333575959014734,-0.02825298091613416
1.5028606861970637,0.03289397904446062,0.022415110531046115,0.015274482970942199,0.053720402869053246,-0.026607831840820072
1.5029322033519903,0.030638444170610023,0.018652378086827997,0.012011118949132128,0.04917650929507266,-0.025764957449269286
1.5030037205069169,0.02725242384486997,0.01661617410831462,0.009441040885373031,0.04584279334533893,-0.025272835383703014
1.5030752376618435,0.023245599290448483,0.017958677401385653,0.008606550278537486,0.04434974338556162,-0.024825897928408117
1.50314675481677,0.019358366958489085,0.021263738100035116,0.008953985446160287,0.0436031263429652,-0.02405494775343522
1.5032182719716967,0.01638051368297583,0.02552134638397417,0.010426555451109277,0.043329599046295644,-0.02280930301149368
1.5032897891266233,0.01497089818834955,0.029648094407756124,0.012350463029946239,0.04306888192357957,-0.021249279868865316
1.5033613062815498,0.015499460648454992,0.032842962166110795,0.013981854206916533,0.04167200931291216,-0.01910397145729891
1.5034328234364764,0.01793079665045714,0.03294779924119298,0.01416864675154985,0.037057939137402345,-0.015743927844865186
1.503504340591403,0.021792554285279486,0.031885931071030556,0.013806564009865633,0.031120822626872546,-0.011853277631565061
1.5035758577463296,0.026283745634476982,0.034105908396476724,0.015751292513310384,0.028263139927078133,-0.00846341341386939
1.5036473749012562,0.03053094650102892,0.03913855728857625,0.019003856556851165,0.03189153609894095,-0.008668936850609817
1.5037188920561828,0.03389868374654469,0.046122684216897046,0.02304438568669538,0.04189275741476403,-0.012764857197840016
1.5037904092111094,0.03619247413189749,0.055003038757355044,0.02836367437687625,0.05657658333021939,-0.019224486941348345
1.503861926366036,0.03764566473947448,0.06180666025494717,0.03246316988130233,0.07225661209946051,-0.027269444698153372
1.5039334435209626,0.038716510453014726,0.06523212230327897,0.03408384953452373,0.0865711156408932,-0.036154412246586894
1.5040049606758892,0.0398171228344044,0.06697603321416251,0.03557140334761458,0.09747476881849838,-0.042754300099733134
1.5040764778308158,0.041095739566223526,0.07044254319326321,0.037525773851031737,0.10540329139217934,-0.04693443082411563
1.5041479949857424,0.04234364882306056,0.07379795977587064,0.038887791087543686,0.11044962311533646,-0.0495138218999876
1.504219512140669,0.043051695709888996,0.07524208051739914,0.03921573232033744,0.1127567724116808,-0.050906126619748915
1.5042910292955955,0.04260283060723393,0.0707777358955805,0.036347749549566495,0.1109670428926037,-0.05170515445119636
1.5043625464505221,0.04053910287302065,0.060106901066621324,0.030363706364527798,0.1037552849125087,-0.05091817283692737
1.5044340636054487,0.03679439695722014,0.04667701600671312,0.02344001313236871,0.09223497041261824,-0.047775017882884456
1.5045055807603753,0.03178229372791513,0.034905088842566837,0.01698689592080203,0.08158943539438258,-0.04491835613326605
1.504577097915302,0.026296542555493532,0.026832202103338032,0.012446934359831944,0.07174580767365024,-0.041261929469296285
1.5046486150702285,0.021278189004975218,0.023872289040080878,0.011187449324425095,0.06399042370302362,-0.036727261630931804
1.504720132225155,0.017555651134353225,0.023041620063794586,0.011283372248322305,0.05800754639934338,-0.032467729769934034
1.5047916493800817,0.01564621916050789,0.022032900189057247,0.010644076718018416,0.05326021174170753,-0.02960178716995438
1.5048631665350083,0.015656872938766518,0.019798207009782524,0.009217644422453899,0.04634837479666181,-0.02578645479796104
1.5049346836899349,0.017286051262519187,0.01803886412650077,0.008230188330603324,0.038797683869669405,-0.02121268547339381
1.5050062008448615,0.019918755698584013,0.017674125305046837,0.007905738300784866,0.03198059202489046,-0.016679515407773293
1.505077717999788,0.022804926807040774,0.019644107280254376,0.009361654152707073,0.026890060249134012,-0.012079765678673802
1.5051492351547147,0.025289013466251117,0.024477488187205035,0.011726326065843064,0.029631369243320854,-0.012302129162509846
1.5052207523096413,0.027015644551186973,0.0295769383173613,0.014241445734319206,0.0363617649214509,-0.015205091879280827
1.5052922694645678,0.028012475009877,0.03230587443545812,0.015961322224474977,0.04285384174623743,-0.01851261140547951
1.5053637866194944,0.028596359216805502,0.029381713753145196,0.014919408532213189,0.04682137129757636,-0.02203422533877577
1.505435303774421,0.02915112616185344,0.023142783762989717,0.013309044659559194,0.047457358230973884,-0.02363258983013304
1.5055068209293476,0.029900153036102176,0.018740600768719265,0.012321918805932341,0.04669396969942518,-0.023805454458457394
1.5055783380842742,0.030782681811496897,0.01805173718164999,0.01250866989698158,0.04574816526940744,-0.023010061870184728
1.5056498552392008,0.03146961942071043,0.020293705375515805,0.013496870470295333,0.04661136553627305,-0.022906202101358603
1.5057213723941274,0.03149161794629547,0.02146727456773611,0.013134126432083434,0.04779715855537893,-0.02399560355730284
1.505792889549054,0.030427310908792447,0.021016212140315505,0.011855838401314541,0.047554348963334346,-0.02474115573671943
1.5058644067039806,0.02809465201809536,0.018897485067339105,0.009674998552531539,0.04498092031951438,-0.024502437370523465
1.5059359238589072,0.024683284499830333,0.01522177963649696,0.006168765257997816,0.04197691933330642,-0.024911480503968974
1.5060074410138338,0.020766913938386953,0.012889824178938861,0.003987129865862614,0.038649151298115046,-0.024146105503168362
1.5060789581687604,0.017165658691511196,0.013960384155477668,0.004506773893992003,0.03551550275998441,-0.02158346465474745
1.506150475323687,0.014695536880755058,0.016467356125679584,0.005603202541494299,0.03369898180795716,-0.01952889936012089
1.5062219924786135,0.013907828977730352,0.018611973089917036,0.006474304461408025,0.03166254254250693,-0.017481993878832973
1.5062935096335401,0.014929925183180436,0.018904721830219094,0.007024475314287043,0.026869345762982416,-0.01373858892245223
1.5063650267884667,0.01746107614733839,0.017554010770609793,0.006681651925523114,0.02129741492677876,-0.010091173102700276
1.5064365439433933,0.020900617081537138,0.018733942714025356,0.008103902228742074,0.016871441859571918,-0.005981316723900191
1.50650806109832,0.024545654709518663,0.022549849924633717,0.01119024144466396,0.014460415539353373,-0.0020876436991358826
1.5065795782532465,0.027795889555703463,0.02956987658822758,0.015188716512202768,0.019772524770084177,-0.0029346480147759797
1.506651095408173,0.030315638754338018,0.03899010353148995,0.02020329875354711,0.029701273668150067,-0.006278966432460809
1.5067226125630997,0.03210575674634778,0.04858521041729047,0.02516307524326057,0.04276468983332549,-0.011855711292559202
1.5067941297180263,0.03344435853615213,0.05430288810395263,0.02809340030703321,0.05465154174158616,-0.018070718636871545
1.5068656468729529,0.03469846610783441,0.05506657552359893,0.028836225363534616,0.06222531934027012,-0.022841460872471762
1.5069371640278795,0.03608805388876267,0.054245730511703526,0.029158238083419115,0.06615222981878291,-0.025361972911277154
1.507008681182806,0.03753193323000867,0.05411005739219131,0.029645090979329304,0.06866782984682047,-0.026775912389516987
1.5070801983377327,0.038657419159163646,0.054278212937946387,0.03000532215028713,0.06835518362395027,-0.026298203590758584
1.5071517154926592,0.038950459296790155,0.05306505213044392,0.029635790998015537,0.0660099545185674,-0.024919561789214943
1.5072232326475858,0.03795818995272562,0.04756468942927634,0.026170643808596194,0.061847652293341014,-0.024489146693088507
1.5072947498025124,0.035465807062779846,0.040574725290710975,0.02167628316777021,0.055818507834789456,-0.02348934794370385
1.507366266957439,0.03160750390290827,0.03481022652592691,0.01779655130545853,0.050372278908670715,-0.022457616679653614
1.5074377841123656,0.02689036393457737,0.02991395765330619,0.014369878001425985,0.046290672808365525,-0.02205657375410009
1.5075093012672922,0.022110982309926926,0.025699305133548775,0.012274203971852665,0.0421628553770951,-0.020670235827131726
1.5075808184222188,0.018158898886019043,0.023134312009304974,0.010838451012952628,0.04033704053131511,-0.02042155892697356
1.5076523355771454,0.015750547010193554,0.021620791735870594,0.009985828883372298,0.038434077349193976,-0.01970147329696102
1.507723852732072,0.015198153002695225,0.01851105068079672,0.008495434228764531,0.03352146874868987,-0.017334307234675262
1.5077953698869986,0.01632710132796861,0.014122542817317,0.006411917338543193,0.0257807498404647,-0.013416495363999111
1.5078668870419252,0.01858159605132472,0.01075158679822966,0.00521914285473996,0.01766606113006423,-0.0086015241646116
1.5079384041968518,0.02125563485920751,0.008680233142951264,0.005152249488431391,0.009914544875221741,-0.003235563816731
1.5080099213517784,0.023737553869918368,0.008412705753616958,0.0057615299185219465,0.006383549153360151,-0.00033355888687256065
1.508081438506705,0.025680396681245936,0.010382323965180386,0.007453924502377228,0.007111235390054119,0.0003697945183925886
1.5081529556616315,0.027059576075294776,0.01235332870229317,0.008842952470356694,0.010822466714466033,-0.0012275170869834682
1.5082244728165581,0.028112039179855254,0.01172654895678624,0.008942296206187028,0.013944402136728623,-0.003336712819389184
1.5082959899714847,0.029172386947160022,0.009638993234286422,0.008780907310022895,0.016395900921465333,-0.005164473741991484
1.5083675071264113,0.03045818310099522,0.009629878607406937,0.010026451111954632,0.018979814553111138,-0.006077531028524889
1.508439024281338,0.03190386747651281,0.013709302411857896,0.012747040105629182,0.022863098615097794,-0.00684214782120622
1.5085105414362645,0.03314377564440417,0.019773631974466584,0.01600259242207933,0.027552822254525218,-0.007787086436906164
1.508582058591191,0.03366149064758627,0.024741214045654335,0.0186299276568245,0.03141271457877283,-0.008602212812924982
1.5086535757461177,0.03301661123576188,0.02450416665045353,0.017302793300784304,0.03237552554651023,-0.010225869576783711
1.5087250929010443,0.031031763736761156,0.02032338982890944,0.013978643770450466,0.03001530065509635,-0.01095744132797955
1.5087966100559709,0.02787943173947238,0.014866381833671899,0.009773118861112214,0.025189714146554125,-0.010597112569103439
1.5088681272108975,0.024071143965329337,0.009828198752430215,0.005405399448016361,0.02136042640491448,-0.011048831965600973
1.508939644365824,0.020368522042175177,0.00586267988226852,0.002619426200917792,0.017606607015443972,-0.010420941684140496
1.5090111615207507,0.017622660517009992,0.004054242161709992,0.001280243020763253,0.016123703807027153,-0.010343743936417349
1.5090826786756772,0.016549556574789192,0.0035398722694898353,0.001094148915450876,0.015915637530002014,-0.01033162065419014
1.5091541958306038,0.01749078347259404,0.0036028090074034028,0.001728275756159572,0.01414701362507697,-0.008642451176347467
1.5092257129855304,0.02026609634215111,0.0040405270149179405,0.002622344403247119,0.010602536423963688,-0.005527016230866914
1.509297230140457,0.024225306810832306,0.007282662280872983,0.005090188490138515,0.007823403696426092,-0.0018196340927613634
1.5093687472953836,0.028505184243561566,0.015185641843908282,0.010396256019729185,0.007906379889543147,0.0019209454351169235
1.5094402644503102,0.032363241212534366,0.026332344067725975,0.017181792517199104,0.012683292583810585,0.0034438481865209686
1.5095117816052368,0.035420479974014,0.038784972075670124,0.023785576506019895,0.021502415726525264,0.0020155309770556198
1.5095832987601634,0.03772295943106026,0.04815748918521748,0.028541189697550762,0.030013578758115417,-0.0005210430696426313
1.50965481591509,0.039632532833370364,0.05105697033318454,0.030196375009199177,0.036010885724580936,-0.00352474390365627
1.5097263330700166,0.041605230836871475,0.04642886993308996,0.028415936049993602,0.03786983933088223,-0.006100942613707787
1.5097978502249432,0.04392716574129624,0.0390867659057058,0.026087173799228647,0.034153241916516835,-0.005173067911682394
1.5098693673798698,0.04649881119729661,0.03481413223062042,0.025125670272120693,0.02867737756300299,-0.002036018179127754
1.5099408845347964,0.048782229516577,0.03498019162374321,0.025898717163670308,0.02583925488994813,0.0005007559572255885
1.510012401689723,0.04998265464348263,0.03793665408557588,0.027970420605425636,0.024800126794137123,0.0027115781969133
1.5100839188446495,0.04939582665258717,0.03847451904755791,0.02744804663090382,0.023701373773693232,0.0031045377373321126
1.5101554359995761,0.046726633743720845,0.03599843203906924,0.024915387052692306,0.021714755512459227,0.0026768447348350767
1.5102269531545027,0.04221494386441091,0.03316585725832064,0.022036546886626967,0.01916218797587746,0.002396772805782121
1.5102984703094293,0.0365554045951188,0.03162122092664144,0.019143160662124768,0.019618814476870524,5.081375480228189e-06
1.510369987464356,0.030705701566729478,0.03182335983801745,0.01712115674686206,0.02201868397324615,-0.003119569689225672
1.5104415046192825,0.025671938650474672,0.03329337056406666,0.016152578444133103,0.025766541475230997,-0.006431589600835857
1.510513021774209,0.02230380117340663,0.035257839719430986,0.01595046449902194,0.030035264103840824,-0.009559083649599011
1.5105845389291357,0.02110478427342222,0.033910811153370496,0.014310671393420193,0.03073595818095856,-0.011223265138465843
1.5106560560840623,0.022087028251984653,0.028586548419674295,0.011927341615445858,0.025569206392908817,-0.009319734673137643
1.5107275732389889,0.02474352062355467,0.019900448124314,0.008315005741078718,0.01680948385087154,-0.0057869050148838495
1.5107990903939155,0.028206425428266402,0.013134798471738485,0.006455089330600415,0.008278894474255125,-0.0011606554824379564
1.510870607548842,0.03156791810921427,0.009832577207737312,0.006924877381908108,0.0029499300823084005,0.0028969483634917544
1.5109421247037687,0.034217944840168574,0.009972490102303133,0.0085255112555674,0.0034915063782807354,0.0036645866716805524
1.5110136418586952,0.036025983655989566,0.013429723777697421,0.01161661354179527,0.00849624333986693,0.002382745728530753
1.5110851590136218,0.03729532439305516,0.015305221607465863,0.013294021431409462,0.015016281264424995,-0.0009694901129962702
1.5111566761685484,0.03854470610167679,0.014062623073969759,0.013163190298163863,0.02136313941436706,-0.005496300728821877
1.511228193323475,0.04022460916569971,0.01269105926167633,0.013651672900344249,0.02442406932196444,-0.007284839695537864
1.5112997104784016,0.04246467581659284,0.013550380801718834,0.01442102957265151,0.025957977518312716,-0.007805531108870616
1.5113712276333282,0.04493429586497486,0.018544862942758172,0.016921655013448497,0.028199924498610206,-0.007580912950119188
1.5114427447882548,0.04689231770787431,0.024404022360242087,0.019784155718843215,0.02980789819755174,-0.006653787028849915
1.5115142619431814,0.047454803887083834,0.026905903545366854,0.02007376929597759,0.029777868796608906,-0.006425296948811397
