freq,gls,usurper,pdc_unbiased,shape_periodogram,shift_periodogram
1.5,0.031605246424144244,0.032161539749338094,0.022003088454338578,0.0538684307335193,-0.022538638510134993
1.5000715171549266,0.028595336453250155,0.02559188835862015,0.01679692217781675,0.04483794261227929,-0.019828719434162125
1.5001430343098532,0.024797888546036324,0.019956256272654,0.011419584810450916,0.03807697474555522,-0.01884845727164239
1.5002145514647798,0.020789812632417533,0.01829960704065756,0.008796510756732951,0.03336460733953263,-0.017369742947394757
1.5002860686197064,0.017345459787468324,0.02103274249946676,0.009479677332466734,0.03233800028980175,-0.016160057202388004
1.500357585774633,0.015271945925960987,0.025681931591600995,0.011714688134418397,0.033216262475826076,-0.015200024334824095
1.5004291029295596,0.015165201318802408,0.03101091578997859,0.01415548030345099,0.037751768734559994,-0.01668217108707264
1.5005006200844861,0.01716595655706576,0.03595604366935145,0.016954003693511403,0.04139127219997501,-0.017277345408725324
1.5005721372394127,0.02086274426290797,0.03960191069410555,0.019187221778694714,0.044813552265976137,-0.01811911365714741
1.5006436543943393,0.02544081002802935,0.042678454126321076,0.02137618975240262,0.048623967010639646,-0.019267350767291788
1.500715171549266,0.03000884122307953,0.04599789497163743,0.02421994995090846,0.05218650449008485,-0.019776481287006948
1.5007866887041925,0.03391266896856934,0.04991372662810784,0.02666061786266369,0.059906792995045116,-0.02351846782947127
1.500858205859119,0.0368882624749449,0.05444796164618775,0.029368029530911475,0.06999175899756976,-0.028753002185719512
1.5009297230140457,0.0390355018056212,0.05940537836831818,0.03287087235373193,0.0824235648283434,-0.03509880763368449
1.5010012401689723,0.04067274274449097,0.06103144386782659,0.0349635290275476,0.09230623652887789,-0.040644162531797236
1.5010727573238989,0.04213722341942038,0.06100039833366689,0.036798409825528795,0.09884105244093293,-0.04399610483100204
1.5011442744788255,0.043587855733941964,0.06068270051073509,0.03793328428010061,0.10396895100942398,-0.04684619515523187
1.501215791633752,0.044880915226329254,0.05997430656607941,0.03824814004694497,0.10682361911492017,-0.04865930554370371
1.5012873087886787,0.045592465454410994,0.060696038556298515,0.03896037083855539,0.1101922531030638,-0.05055812138659533
1.5013588259436053,0.04519857422015515,0.05988042798817251,0.038338310339186395,0.11006570111374021,-0.050909725060835354
1.5014303430985318,0.04331902735671992,0.05625507980670255,0.03525172960142179,0.10723746837874794,-0.05108272475586996
1.5015018602534584,0.03989064242203222,0.048604079914807884,0.029380562295107576,0.10069644641645582,-0.0505827650925374
1.501573377408385,0.035207008956161204,0.03957769546140323,0.02275340008029923,0.09242509609851378,-0.0493869709475178
1.5016448945633116,0.029854908046904056,0.03136566512263273,0.01716592382272006,0.08270751241654072,-0.046430118917470016
1.5017164117182382,0.02460404968418353,0.024540767375515277,0.01272729457488559,0.07246358564530528,-0.04229375394732231
1.5017879288731648,0.020274028275387688,0.02053167539260113,0.010756457121333964,0.06339963760743399,-0.03725661001317178
1.5018594460280914,0.01756978332877583,0.018677775141311966,0.009814843547662735,0.05722444860206368,-0.03354458519066883
1.501930963183018,0.016887968997375314,0.018432299717493408,0.009773529530205848,0.05078640065609624,-0.029011977101753204
1.5020024803379446,0.018154766828972088,0.01773960131196532,0.009545857603491862,0.045331341389080584,-0.025309615837914887
1.5020739974928712,0.020807783027131654,0.018448962626952323,0.00997328939183271,0.04174966051740326,-0.022471406103238233
1.5021455146477978,0.023992628107040868,0.021178530170886122,0.01144212206274167,0.041353857789289315,-0.021151936219004484
1.5022170318027244,0.026898257150269028,0.025878850615236176,0.014028974316248104,0.04527293137646976,-0.02209597242604524
1.502288548957651,0.029041972437567,0.030828713255219548,0.016679671046279716,0.051782957305954835,-0.024830637177589023
1.5023600661125776,0.03036170293294545,0.036146214575608765,0.019990738498687276,0.05967898099855879,-0.028082352525466866
1.5024315832675041,0.031115659296329378,0.03699231370141631,0.02077896981185265,0.0659365621995836,-0.031962118174295194
1.5025031004224307,0.031680428730509906,0.034243728752012335,0.019519808615351825,0.06870328483516866,-0.03481699978376123
1.5025746175773573,0.032340192227813126,0.030457624369283273,0.018649627815208736,0.06750435897060869,-0.03458237355368437
1.502646134732284,0.033131945974426154,0.02758085333651734,0.017871043624403338,0.0635394976553715,-0.032320877847149244
1.5027176518872105,0.033797027787609374,0.026970608688993227,0.01799769758677829,0.06128496951303803,-0.030632331148256937
1.502789169042137,0.033871437590867574,0.025561399583384416,0.017486670760106647,0.0582433356892037,-0.028837631099812067
1.5028606861970637,0.03289397904446062,0.0222942127657603,0.015274482970942199,0.053925694006986206,-0.02734352409259222
1.5029322033519903,0.030638444170610023,0.018631325286427195,0.012011118949132128,0.0495903517166679,-0.02658159811316622
1.5030037205069169,0.02725242384486997,0.016695727951790078,0.009441040885373031,0.04661015954569507,-0.026289320216893678
1.5030752376618435,0.023245599290448483,0.018162258051205585,0.008606550278537486,0.045859841242590633,-0.026348349539717
1.50314675481677,0.019358366958489085,0.021539240123713378,0.008953985446160287,0.0456661647450936,-0.025965422941581832
1.5032182719716967,0.01638051368297583,0.025788643313924532,0.010426555451109277,0.04606072827628312,-0.02520300666457086
1.5032897891266233,0.01497089818834955,0.029831410172084225,0.012350463029946239,0.0456936391932639,-0.023581745984301027
1.5033613062815498,0.015499460648454992,0.033021670200811176,0.013981854206916533,0.044712150128985106,-0.021732243512016417
1.5034328234364764,0.01793079665045714,0.03324905867405447,0.01416864675154985,0.04165524950250468,-0.019435797474413447
1.503504340591403,0.021792554285279486,0.03240724722351662,0.013806564009865633,0.03833733052577494,-0.01734353792874667
1.5035758577463296,0.026283745634476982,0.03484811530944853,0.015751292513310384,0.03828175174907226,-0.015927750550103602
1.5036473749012562,0.03053094650102892,0.040011940866070975,0.019003856556851165,0.04394320840247508,-0.017632713218242762
1.5037188920561828,0.03389868374654469,0.046946440559048175,0.02304438568669538,0.05486153089272382,-0.02250474036424063
1.5037904092111094,0.03619247413189749,0.05554349194772916,0.02836367437687625,0.06829234035919933,-0.028259065727540403
1.503861926366036,0.03764566473947448,0.06191660924487739,0.03246316988130233,0.08131285690404416,-0.034598554962086164
1.5039334435209626,0.038716510453014726,0.06487461296244287,0.03408384953452373,0.0921159161206798,-0.04113310239732528
1.5040049606758892,0.0398171228344044,0.06618045361718647,0.03557140334761458,0.1000689818785891,-0.045742623793874594
1.5040764778308158,0.041095739566223526,0.06926692579712622,0.037525773851031737,0.1056020709054272,-0.04830076227156916
1.5041479949857424,0.04234364882306056,0.07242763971629129,0.038887791087543686,0.10980001451022149,-0.050329598841282776
1.504219512140669,0.043051695709888996,0.07380449055785673,0.03921573232033744,0.11221109454463625,-0.051818628865756215
1.5042910292955955,0.04260283060723393,0.06937156347097678,0.036347749549566495,0.11029950290267615,-0.05249057259174903
1.5043625464505221,0.04053910287302065,0.058855430495395294,0.030363706364527798,0.10282763588938883,-0.051405133822652514
1.5044340636054487,0.03679439695722014,0.045543593758009204,0.02344001313236871,0.09090643125514229,-0.04781954461765103
1.5045055807603753,0.03178229372791513,0.03387477535529051,0.01698689592080203,0.0797585247284476,-0.044460862371345465
1.504577097915302,0.026296542555493532,0.025967606683496267,0.012446934359831944,0.06976800286326536,-0.04057874146800743
1.5046486150702285,0.021278189004975218,0.023150213944709803,0.011187449324425095,0.06202284846612307,-0.03597535422078302
1.504720132225155,0.017555651134353225,0.022402293820918996,0.011283372248322305,0.05551267408707296,-0.03129248593553041
1.5047916493800817,0.01564621916050789,0.02148792119578605,0.010644076718018416,0.04999600034835613,-0.02783619273399425
1.5048631665350083,0.015656872938766518,0.019467208633549653,0.009217644422453899,0.04338820356843623,-0.02416601360844445
1.5049346836899349,0.017286051262519187,0.01803876809489193,0.008230188330603324,0.03795307732399461,-0.021017335623804645
1.5050062008448615,0.019918755698584013,0.01808441547157732,0.007905738300784866,0.03402253963366403,-0.018465452009122446
1.505077717999788,0.022804926807040774,0.020439231491660312,0.009361654152707073,0.03190077513696191,-0.015934226567554454
1.5051492351547147,0.025289013466251117,0.02553272402802186,0.011726326065843064,0.0367886563064526,-0.017719645706672706
1.5052207523096413,0.027015644551186973,0.03070599372908837,0.014241445734319206,0.043908784482772856,-0.020979699176042435
1.5052922694645678,0.028012475009877,0.03334765891400035,0.015961322224474977,0.048935283880919465,-0.023321907625509602
1.5053637866194944,0.028596359216805502,0.03019983028798514,0.014919408532213189,0.05008528204673147,-0.024873989179352265
1.505435303774421,0.02915112616185344,0.023604529639378865,0.013309044659559194,0.04775542945456216,-0.024363489180637965
1.5055068209293476,0.029900153036102176,0.018871280444002537,0.012321918805932341,0.04424901027484084,-0.022579038675965505
1.5055783380842742,0.030782681811496897,0.017980251469301937,0.01250866989698158,0.0421666887388974,-0.020972631357916192
1.5056498552392008,0.03146961942071043,0.02015462076486708,0.013496870470295333,0.04348702015202635,-0.021208047776565417
1.5057213723941274,0.03149161794629547,0.021332722201169472,0.013134126432083434,0.045649372394515185,-0.022995830163362818
1.505792889549054,0.030427310908792447,0.02105742672792262,0.011855838401314541,0.0463232120916259,-0.02437757270578359
1.5058644067039806,0.02809465201809536,0.019114234245200066,0.009674998552531539,0.04488112615543453,-0.024899467304808947
1.5059359238589072,0.024683284499830333,0.015517311638476134,0.006168765257997816,0.04289282930041608,-0.025972034840710687
1.5060074410138338,0.020766913938386953,0.013228273321964117,0.003987129865862614,0.040645375299786034,-0.0259241030001774
1.5060789581687604,0.017165658691511196,0.014282620991951153,0.004506773893992003,0.03830247574212457,-0.02389837288154047
1.506150475323687,0.014695536880755058,0.01673007057710016,0.005603202541494299,0.036618669007453655,-0.021931271949704338
1.5062219924786135,0.013907828977730352,0.018821393489278023,0.006474304461408025,0.03406444096613794,-0.019507711258932303
1.5062935096335401,0.014929925183180436,0.019088654236576515,0.007024475314287043,0.02911358674609122,-0.015615952103487912
1.5063650267884667,0.01746107614733839,0.01778784779521129,0.006681651925523114,0.024423054549506544,-0.012540828248087431
1.5064365439433933,0.020900617081537138,0.019046240382094667,0.008103902228742074,0.02164584332517774,-0.009570627278247687
1.50650806109832,0.024545654709518663,0.022963643155005344,0.01119024144466396,0.021293291336469414,-0.007137683850099036
1.5065795782532465,0.027795889555703463,0.02996890611731126,0.015188716512202768,0.02824500190461019,-0.009224619887796716
1.506651095408173,0.030315638754338018,0.039281044986097115,0.02020329875354711,0.038808875096927264,-0.013148915742143472
1.5067226125630997,0.03210575674634778,0.04871021586699755,0.02516307524326057,0.051373705988423314,-0.018532424182213073
1.5067941297180263,0.03344435853615213,0.05422314790143185,0.02809340030703321,0.061424178883753684,-0.023578730899351932
1.5068656468729529,0.03469846610783441,0.05467793742722564,0.028836225363534616,0.06645470047732593,-0.02662012404211053
1.5069371640278795,0.03608805388876267,0.05351611695538918,0.029158238083419115,0.06741880914608038,-0.02707584928598146
1.507008681182806,0.03753193323000867,0.05314071952141273,0.029645090979329304,0.06771983519947251,-0.026944222276646293
1.5070801983377327,0.038657419159163646,0.05327867916294086,0.03000532215028713,0.06675646793972224,-0.026005231535937767
1.5071517154926592,0.038950459296790155,0.052066442682138725,0.029635790998015537,0.06403952092937153,-0.02433992132656281
1.5072232326475858,0.03795818995272562,0.046711139295247776,0.026170643808596194,0.05943057191163816,-0.023528109019435618
1.5072947498025124,0.035465807062779846,0.03994210235154897,0.02167628316777021,0.05312233128616795,-0.022241458388443228
1.507366266957439,0.03160750390290827,0.034404404023163,0.01779655130545853,0.047751130083488386,-0.02118399460134034
1.5074377841123656,0.02689036393457737,0.029715519086061744,0.014369878001425985,0.044124783149378684,-0.021041732879798106
1.5075093012672922,0.022110982309926926,0.025606341701312416,0.012274203971852665,0.04023666191358403,-0.019772311910834527
1.5075808184222188,0.018158898886019043,0.02308123289773276,0.010838451012952628,0.038372019448425485,-0.019468476831353623
1.5076523355771454,0.015750547010193554,0.02159240899791161,0.009985828883372298,0.03582440069848882,-0.018268813302030347
1.507723852732072,0.015198153002695225,0.01857060230998533,0.008495434228764531,0.030303422810568654,-0.015417017656459638
1.5077953698869986,0.01632710132796861,0.01439930513179416,0.006411917338543193,0.023210541408425607,-0.011874130764920455
1.5078668870419252,0.01858159605132472,0.011285299629071748,0.00521914285473996,0.016587690529059965,-0.008034744621617277
1.5079384041968518,0.02125563485920751,0.00944906956558474,0.005152249488431391,0.010537750170156845,-0.0038047854743791945
1.5080099213517784,0.023737553869918368,0.009311380735860299,0.0057615299185219465,0.008226050775172012,-0.001739571084365632
1.508081438506705,0.025680396681245936,0.011308848064548413,0.007453924502377228,0.009770144914048332,-0.0016339310326611118
1.5081529556616315,0.027059576075294776,0.013235725518585676,0.008842952470356694,0.01338666453103599,-0.003207994231926718
1.5082244728165581,0.028112039179855254,0.012524285055870004,0.008942296206187028,0.015709087871258586,-0.004779668557926072
1.5082959899714847,0.029172386947160022,0.010292704575525427,0.008780907310022895,0.017474597930621505,-0.006142136923436764
1.5083675071264113,0.03045818310099522,0.010132992389138024,0.010026451111954632,0.019406507902550583,-0.006626931050704427
1.508439024281338,0.03190386747651281,0.01406138678395168,0.012747040105629182,0.022816584067779838,-0.0071133080410610994
1.5085105414362645,0.03314377564440417,0.02005519750862137,0.01600259242207933,0.02774727367451945,-0.008296516587471705
1.508582058591191,0.03366149064758627,0.024928645160978216,0.0186299276568245,0.031971660521980964,-0.009424938683764903
1.5086535757461177,0.03301661123576188,0.02470694714429203,0.017302793300784304,0.03305854427011379,-0.011133411068180006
1.5087250929010443,0.031031763736761156,0.020622068512570386,0.013978643770450466,0.030613619048786872,-0.011756562641911422
1.5087966100559709,0.02787943173947238,0.015259419785760536,0.009773118861112214,0.025914292192767665,-0.011408390342774377
1.5088681272108975,0.024071143965329337,0.010297094129698453,0.005405399448016361,0.022221712419796,-0.011886851487091543
1.508939644365824,0.020368522042175177,0.006379172433827472,0.002619426200917792,0.01882843107540535,-0.011458020918989129
1.5090111615207507,0.017622660517009992,0.004527343931786773,0.001280243020763253,0.017829381150998625,-0.011698834722446927
1.5090826786756772,0.016549556574789192,0.0038854817190811866,0.001094148915450876,0.01740060547522834,-0.011527289708562403
1.5091541958306038,0.01749078347259404,0.003865599807747106,0.001728275756159572,0.015417344030179699,-0.009676531783719257
1.5092257129855304,0.02026609634215111,0.004277604372250845,0.002622344403247119,0.012487202196571397,-0.006972530049684416
1.509297230140457,0.024225306810832306,0.007551052148832189,0.005090188490138515,0.011410758261991638,-0.004465863822422451
1.5093687472953836,0.028505184243561566,0.015457240658774957,0.010396256019729185,0.013327484677462705,-0.0020672209244413783
1.5094402644503102,0.032363241212534366,0.026539105155139978,0.017181792517199104,0.019499148771265594,-0.001629010417275524
1.5095117816052368,0.035420479974014,0.03882116957064274,0.023785576506019895,0.028772935853030167,-0.0035116301521134013
1.5095832987601634,0.03772295943106026,0.04792733633866498,0.028541189697550762,0.03612474195577397,-0.0053432478313812015
1.50965481591509,0.039632532833370364,0.050547291914940964,0.030196375009199177,0.039895310209429984,-0.006838204378582814
1.5097263330700166,0.041605230836871475,0.04574557160032519,0.028415936049993602,0.03986679713316677,-0.008079903703642677
1.5097978502249432,0.04392716574129624,0.038278091191807896,0.026087173799228647,0.03472298456910048,-0.0060902545535236365
1.5098693673798698,0.04649881119729661,0.03395018964412172,0.025125670272120693,0.028308544581438774,-0.0022340790223689426
1.5099408845347964,0.048782229516577,0.03415005753962595,0.025898717163670308,0.025311597943544543,0.00043277917821932954
1.510012401689723,0.04998265464348263,0.037180030775102124,0.027970420605425636,0.024355508149455463,0.0025762131068066203
1.5100839188446495,0.04939582665258717,0.03785614496422426,0.02744804663090382,0.022814546336954775,0.0032956649177312064
1.5101554359995761,0.046726633743720845,0.03557314561193173,0.024915387052692306,0.02007022210572868,0.0034421541371116434
1.5102269531545027,0.04221494386441091,0.03292644808687768,0.022036546886626967,0.01690782454460847,0.003639458523681185
1.5102984703094293,0.0365554045951188,0.03152437478469722,0.019143160662124768,0.016759089586952908,0.001696458959181861
1.510369987464356,0.030705701566729478,0.031873886006638125,0.01712115674686206,0.018970501939606015,-0.0012981509964292257
1.5104415046192825,0.025671938650474672,0.03343244457541585,0.016152578444133103,0.022645361666386928,-0.004582137237858756
1.510513021774209,0.02230380117340663,0.03544568294571853,0.01595046449902194,0.026462217147031265,-0.007424501044843486
1.5105845389291357,0.02110478427342222,0.03422202461636512,0.014310671393420193,0.026894126631467386,-0.008890551331566193
1.5106560560840623,0.022087028251984653,0.02902211279543575,0.011927341615445858,0.022027164815391152,-0.007135085080652231
1.5107275732389889,0.02474352062355467,0.020498757958606704,0.008315005741078718,0.014431462374988312,-0.004320157980753738
1.5107990903939155,0.028206425428266402,0.013885319279683393,0.006455089330600415,0.007509857392158906,-0.0007426674086787508
1.510870607548842,0.03156791810921427,0.010640496273384174,0.006924877381908108,0.003601410877747005,0.002352502281187513
1.5109421247037687,0.034217944840168574,0.010705699041279342,0.0085255112555674,0.004944448203121651,0.0025354180786135586
1.5110136418586952,0.036025983655989566,0.013999712942650192,0.01161661354179527,0.009781989416450827,0.0013026283899791476
1.5110851590136218,0.03729532439305516,0.015637036386127578,0.013294021431409462,0.015203698743335829,-0.0013433593948256955
1.5111566761685484,0.03854470610167679,0.014142047104625834,0.013163190298163863,0.020496519218844732,-0.005178205827644739
1.511228193323475,0.04022460916569971,0.012568170235393989,0.013651672900344249,0.02316915727023837,-0.006722478138048378
1.5112997104784016,0.04246467581659284,0.013290993869574462,0.01442102957265151,0.024715486363604582,-0.0072715833504376414
1.5113712276333282,0.04493429586497486,0.018257827569219884,0.016921655013448497,0.028157914828883718,-0.007936437620743201
1.5114427447882548,0.04689231770787431,0.02417232282113507,0.019784155718843215,0.03184362645482564,-0.00851717390996981
1.5115142619431814,0.047454803887083834,0.026767554205322095,0.02007376929597759,0.032925838312388385,-0.00907773721797128
