freq,gls,usurper,pdc_unbiased,shape_periodogram,shift_periodogram
1.5,0.031605246424144244,0.03181041781034243,0.022003088454338578,0.031269954188641855,0.003172636153529346
1.5000715171549266,0.028595336453250155,0.025595965859992523,0.01679692217781675,0.02503262259288119,0.0018324664101958767
1.5001430343098532,0.024797888546036324,0.02032936436812182,0.011419584810450916,0.020427766932008228,-0.00047956282177461206
1.5002145514647798,0.020789812632417533,0.018831262223824686,0.008796510756732951,0.01683664409435699,-0.0009265661145562935
1.5002860686197064,0.017345459787468324,0.02157488461336151,0.009479677332466734,0.015451228020800442,0.00036371811081092165
1.500357585774633,0.015271945925960987,0.02618441526176499,0.011714688134418397,0.015946066712008426,0.002042076778005871
1.5004291029295596,0.015165201318802408,0.03181836094308603,0.01415548030345099,0.019811870799618336,0.0021932280025891873
1.5005006200844861,0.01716595655706576,0.037204331316907306,0.016954003693511403,0.022565608871569935,0.0032159771592882636
1.5005721372394127,0.02086274426290797,0.0415716112640194,0.019187221778694714,0.024679690402679057,0.004074656886908793
1.5006436543943393,0.02544081002802935,0.04527743609637112,0.02137618975240262,0.026280832987324584,0.005154907376778957
1.500715171549266,0.03000884122307953,0.04924815943130266,0.02421994995090846,0.026626882381091906,0.007435767794143137
1.5007866887041925,0.03391266896856934,0.05371476931863523,0.02666061786266369,0.029636083427705944,0.008022227564398316
1.500858205859119,0.0368882624749449,0.05867357049602962,0.029368029530911475,0.034103858995121694,0.008102169160360015
1.5009297230140457,0.0390355018056212,0.06387053973610989,0.03287087235373193,0.04057465942662928,0.007857508927237562
1.5010012401689723,0.04067274274449097,0.06549589122970442,0.0349635290275476,0.046444350648002286,0.006698121144735806
1.5010727573238989,0.04213722341942038,0.06523087434668937,0.036798409825528795,0.05049993443114845,0.006233702251799754
1.5011442744788255,0.043587855733941964,0.06470148775148908,0.03793328428010061,0.054499973991617975,0.0051915468848331495
1.501215791633752,0.044880915226329254,0.06371279005437136,0.03824814004694497,0.05813710140285047,0.0036227097721605976
1.5012873087886787,0.045592465454410994,0.06438792291395838,0.03896037083855539,0.06232909261546265,0.0021163844329588977
1.5013588259436053,0.04519857422015515,0.06363455001122043,0.038338310339186395,0.06323552392348158,0.0011182357389852647
1.5014303430985318,0.04331902735671992,0.060228207954717165,0.03525172960142179,0.06275220250397917,-0.0013102768021682402
1.5015018602534584,0.03989064242203222,0.052989990450053086,0.029380562295107576,0.05997968322109287,-0.004987268547151352
1.501573377408385,0.035207008956161204,0.0441948203197616,0.02275340008029923,0.056278932700466126,-0.008843292949803818
1.5016448945633116,0.029854908046904056,0.036089643133815116,0.01716592382272006,0.050723922217818386,-0.010856548974513911
1.5017164117182382,0.02460404968418353,0.02909235374836249,0.01272729457488559,0.0448156883136712,-0.011696419545023288
1.5017879288731648,0.020274028275387688,0.024521429379689576,0.010756457121333964,0.03962014158220371,-0.01076615476767568
1.5018594460280914,0.01756978332877583,0.02214564864568109,0.009814843547662735,0.03699757240511969,-0.010250856080880113
1.501930963183018,0.016887968997375314,0.02130808556523181,0.009773529530205848,0.03365271658267329,-0.008592885111804378
1.5020024803379446,0.018154766828972088,0.020103311429987454,0.009545857603491862,0.030362351190199283,-0.007123745392856898
1.5020739974928712,0.020807783027131654,0.020370420676069936,0.00997328939183271,0.02807662830069633,-0.005597951164285991
1.5021455146477978,0.023992628107040868,0.022991538126900975,0.01144212206274167,0.02725856027175508,-0.003916168580375452
1.5022170318027244,0.026898257150269028,0.027612353777484642,0.014028974316248104,0.028526671581237097,-0.0023248813529851632
1.502288548957651,0.029041972437567,0.03267107705911238,0.016679671046279716,0.030944834697166478,-0.0012600465618144774
1.5023600661125776,0.03036170293294545,0.03807295156670054,0.019990738498687276,0.03394199286562046,8.258927345771847e-05
1.5024315832675041,0.031115659296329378,0.03892816113014107,0.02077896981185265,0.036780093132518545,-0.0006728927009650936
1.5025031004224307,0.031680428730509906,0.03606127010949049,0.019519808615351825,0.037982021311769906,-0.002368934433636214
1.5025746175773573,0.032340192227813126,0.03182410304824466,0.018649627815208736,0.03653552057378168,-0.002388334559481692
1.502646134732284,0.033131945974426154,0.02834848173095102,0.017871043624403338,0.03389219818647771,-0.0017228548927400067
1.5027176518872105,0.033797027787609374,0.02735089269535339,0.01799769758677829,0.0328563701020977,-0.0010892630179618334
1.502789169042137,0.033871437590867574,0.02575061364515333,0.017486670760106647,0.030562504509238517,-0.00036976653076231143
1.5028606861970637,0.03289397904446062,0.022503847158341268,0.015274482970942199,0.02796714617181895,-0.0009665186293950332
1.5029322033519903,0.030638444170610023,0.019029219783473047,0.012011118949132128,0.02589820850569612,-0.0027366816461920533
1.5030037205069169,0.02725242384486997,0.017472762769100054,0.009441040885373031,0.02457091863644698,-0.004283268682733741
1.5030752376618435,0.023245599290448483,0.019467764672415948,0.008606550278537486,0.02508263158575195,-0.005262383031584353
1.50314675481677,0.019358366958489085,0.023292895628890385,0.008953985446160287,0.026026898844818066,-0.005440374718537176
1.5032182719716967,0.01638051368297583,0.027759099373610797,0.010426555451109277,0.02674276028826389,-0.004531709557332313
1.5032897891266233,0.01497089818834955,0.031828206410719144,0.012350463029946239,0.027396037561130612,-0.0032016889565031647
1.5033613062815498,0.015499460648454992,0.03499630699868979,0.013981854206916533,0.02660904490646936,-0.0013952409068832728
1.5034328234364764,0.01793079665045714,0.03527367636566813,0.01416864675154985,0.023059626695666746,0.0005617361193974588
1.503504340591403,0.021792554285279486,0.0343005852211827,0.013806564009865633,0.018541194273435552,0.002534795082645799
1.5035758577463296,0.026283745634476982,0.036433603017677924,0.015751292513310384,0.016935812885625966,0.00502517916221946
1.5036473749012562,0.03053094650102892,0.04135387199187603,0.019003856556851165,0.019812347677333614,0.006377996911190219
1.5037188920561828,0.03389868374654469,0.04831082447224944,0.02304438568669538,0.026586444196989825,0.006440951144329921
1.5037904092111094,0.03619247413189749,0.05744928746256135,0.02836367437687625,0.034269565424269705,0.007150415056222375
1.503861926366036,0.03764566473947448,0.06444219167292414,0.03246316988130233,0.041983207596625154,0.006792450077651683
1.5039334435209626,0.038716510453014726,0.0680074857219443,0.03408384953452373,0.0494829321013003,0.0043993670168658
1.5040049606758892,0.0398171228344044,0.06973839804387293,0.03557140334761458,0.05554906215042123,0.002615672632820392
1.5040764778308158,0.041095739566223526,0.07306202445349465,0.037525773851031737,0.06111509139663694,0.0014887338700334183
1.5041479949857424,0.04234364882306056,0.07635162248850184,0.038887791087543686,0.06598042794192463,0.00020327058835782017
1.504219512140669,0.043051695709888996,0.07769004148882509,0.03921573232033744,0.06895098874085415,-0.001018424522061332
1.5042910292955955,0.04260283060723393,0.07317201578246492,0.036347749549566495,0.06875378949001812,-0.003403749181576977
1.5043625464505221,0.04053910287302065,0.06255214911063688,0.030363706364527798,0.06507706620660632,-0.006721217295932176
1.5044340636054487,0.03679439695722014,0.049086817003499095,0.02344001313236871,0.05789727937087112,-0.00907015741556551
1.5045055807603753,0.03178229372791513,0.03724514130374455,0.01698689592080203,0.051778879386194694,-0.01154599532051859
1.504577097915302,0.026296542555493532,0.029006036444587414,0.012446934359831944,0.04660654163342517,-0.012846023087522753
1.5046486150702285,0.021278189004975218,0.025648428090718572,0.011187449324425095,0.04275947588672141,-0.011984294928940804
1.504720132225155,0.017555651134353225,0.02425906145342359,0.011283372248322305,0.04029194011476823,-0.010651498310293583
1.5047916493800817,0.01564621916050789,0.022722501670729194,0.010644076718018416,0.038109696193155,-0.010098191021453694
1.5048631665350083,0.015656872938766518,0.020439399788541885,0.009217644422453899,0.034449869812987546,-0.009476314488648132
1.5049346836899349,0.017286051262519187,0.01897609861264615,0.008230188330603324,0.02967451201602002,-0.00791112865195877
1.5050062008448615,0.019918755698584013,0.018921825477984877,0.007905738300784866,0.025524453052272352,-0.006090761515222469
1.505077717999788,0.022804926807040774,0.021171148543914844,0.009361654152707073,0.022247052834204424,-0.0031759657289963444
1.5051492351547147,0.025289013466251117,0.026255329427472513,0.011726326065843064,0.024791973092748772,-0.002422760169720896
1.5052207523096413,0.027015644551186973,0.03155077394383485,0.014241445734319206,0.028819957960484102,-0.0022898696671997606
1.5052922694645678,0.028012475009877,0.034467715267310794,0.015961322224474977,0.0309383759541299,-0.0018770224694299677
1.5053637866194944,0.028596359216805502,0.031590784951392094,0.014919408532213189,0.03028037195870903,-0.0024436049437378572
1.505435303774421,0.02915112616185344,0.02489728562090294,0.013309044659559194,0.026861827237793685,-0.0021039279124404862
1.5055068209293476,0.029900153036102176,0.019756396379200538,0.012321918805932341,0.023876635273138894,-0.0014455792384219697
1.5055783380842742,0.030782681811496897,0.018488432596338096,0.01250866989698158,0.022627041538693576,-0.0006522008860959711
1.5056498552392008,0.03146961942071043,0.020329398538956198,0.013496870470295333,0.023592057122274714,-0.00028746535449267874
1.5057213723941274,0.03149161794629547,0.02134140298702211,0.013134126432083434,0.02444185673717949,-0.0010304990762141474
1.505792889549054,0.030427310908792447,0.02116486607991148,0.011855838401314541,0.02479246540240727,-0.002311225414193448
1.5058644067039806,0.02809465201809536,0.019450005457310068,0.009674998552531539,0.023328533882323928,-0.0034527309225566107
1.5059359238589072,0.024683284499830333,0.01641093342608305,0.006168765257997816,0.02194112413825274,-0.005776443943948951
1.5060074410138338,0.020766913938386953,0.01453601122801421,0.003987129865862614,0.020773141140632636,-0.007067899276263459
1.5060789581687604,0.017165658691511196,0.01569976345983096,0.004506773893992003,0.0193716797820817,-0.005910460210291907
1.506150475323687,0.014695536880755058,0.01810220425133089,0.005603202541494299,0.01913036224085432,-0.00484233694413918
1.5062219924786135,0.013907828977730352,0.020033236794415512,0.006474304461408025,0.01893207124542506,-0.003990384264539135
1.5062935096335401,0.014929925183180436,0.020013601155738504,0.007024475314287043,0.015957243575499745,-0.002010759222367966
1.5063650267884667,0.01746107614733839,0.018305311504756654,0.006681651925523114,0.012435164332711697,-0.0005249950613710851
1.5064365439433933,0.020900617081537138,0.019033285494801332,0.008103902228742074,0.009825653906150958,0.0020219605346773594
1.50650806109832,0.024545654709518663,0.02267684317416895,0.01119024144466396,0.00759617912749484,0.005812394996696177
1.5065795782532465,0.027795889555703463,0.029620147592765867,0.015188716512202768,0.010097216370199006,0.007997852234165378
1.506651095408173,0.030315638754338018,0.03910142591724106,0.02020329875354711,0.015040716366078203,0.009826127840407444
1.5067226125630997,0.03210575674634778,0.049034320365456456,0.02516307524326057,0.021736448738430586,0.0107229845644301
1.5067941297180263,0.03344435853615213,0.05485333789555854,0.02809340030703321,0.028541052606440326,0.009813725295947588
1.5068656468729529,0.03469846610783441,0.055535635199339885,0.028836225363534616,0.03264013628392202,0.00838282532373539
1.5069371640278795,0.03608805388876267,0.05445372956074028,0.029158238083419115,0.03495103150784217,0.007492410618268451
1.507008681182806,0.03753193323000867,0.05401154156441325,0.029645090979329304,0.03782202670537754,0.0064610444789762024
1.5070801983377327,0.038657419159163646,0.053853711218249736,0.03000532215028713,0.03914947668903359,0.006100929643842438
1.5071517154926592,0.038950459296790155,0.05232284721833426,0.029635790998015537,0.03873416519996553,0.005991590652516085
1.5072232326475858,0.03795818995272562,0.04692815293946758,0.026170643808596194,0.03730622885390811,0.0037191581148818555
1.5072947498025124,0.035465807062779846,0.040183165726579866,0.02167628316777021,0.034639796213407195,0.0011853586421178355
1.507366266957439,0.03160750390290827,0.03479241710708559,0.01779655130545853,0.031930207916942954,-0.0007942739699971472
1.5074377841123656,0.02689036393457737,0.030124944302246128,0.014369878001425985,0.0302022984539956,-0.0028785257828168836
1.5075093012672922,0.022110982309926926,0.025713214015059598,0.012274203971852665,0.02843798079284166,-0.003794783750586513
1.5075808184222188,0.018158898886019043,0.022813591064091206,0.010838451012952628,0.02849888445932173,-0.0050649085369868195
1.5076523355771454,0.015750547010193554,0.02121248787241889,0.009985828883372298,0.0282192771126588,-0.005659321790956849
1.507723852732072,0.015198153002695225,0.017948364617045343,0.008495434228764531,0.02523828691161548,-0.005437043288956411
1.5077953698869986,0.01632710132796861,0.013822893560407992,0.006411917338543193,0.02041144405945755,-0.004792671772080849
1.5078668870419252,0.01858159605132472,0.010779682733708499,0.00521914285473996,0.015214713564029593,-0.003192824589736084
1.5079384041968518,0.02125563485920751,0.008917557980409075,0.005152249488431391,0.009701252365780864,-0.0004617267692305662
1.5080099213517784,0.023737553869918368,0.008861410141852757,0.0057615299185219465,0.0068027252197259466,0.0015299159495187503
1.508081438506705,0.025680396681245936,0.01117481502789626,0.007453924502377228,0.00555171675550796,0.003622705195479357
1.5081529556616315,0.027059576075294776,0.01347041116247179,0.008842952470356694,0.005163715039979543,0.005017311850702026
1.5082244728165581,0.028112039179855254,0.012942518502575521,0.008942296206187028,0.004630736474650226,0.005372557801262388
1.5082959899714847,0.029172386947160022,0.010735458067905834,0.008780907310022895,0.004762150757020543,0.005166860906097395
1.5083675071264113,0.03045818310099522,0.010412813977227724,0.010026451111954632,0.00662133682068201,0.005301258143563105
1.508439024281338,0.03190386747651281,0.01419382854841508,0.012747040105629182,0.010638067873633555,0.005617397035985313
1.5085105414362645,0.03314377564440417,0.020193759507916104,0.01600259242207933,0.015583686315932509,0.005925858237573936
1.508582058591191,0.03366149064758627,0.024984457254769454,0.0186299276568245,0.018373663302321108,0.006782738777601926
1.5086535757461177,0.03301661123576188,0.02502775409376586,0.017302793300784304,0.018559840507477457,0.0055430176936535494
1.5087250929010443,0.031031763736761156,0.021343598019898123,0.013978643770450466,0.016614659344064208,0.0036576998883996476
1.5087966100559709,0.02787943173947238,0.016303713551335166,0.009773118861112214,0.012803836914659918,0.001955949933593359
1.5088681272108975,0.024071143965329337,0.011645376151431906,0.005405399448016361,0.010137752745642874,-0.00046409693681195185
1.508939644365824,0.020368522042175177,0.007702977710507358,0.002619426200917792,0.007114420817943842,-0.0013384835674633022
1.5090111615207507,0.017622660517009992,0.005386480342369327,0.001280243020763253,0.005421148314986562,-0.001637374464590073
1.5090826786756772,0.016549556574789192,0.004323888663296165,0.001094148915450876,0.005683922728736565,-0.0019308195619268226
1.5091541958306038,0.01749078347259404,0.003885460141689536,0.001728275756159572,0.0048424761885355275,-0.0009581872707479195
1.5092257129855304,0.02026609634215111,0.0042595560798971525,0.002622344403247119,0.0025891742315736098,0.000952747944923812
1.509297230140457,0.024225306810832306,0.007746300813873138,0.005090188490138515,0.0007426320475441733,0.004015614796352018
1.5093687472953836,0.028505184243561566,0.015807037822354264,0.010396256019729185,0.0016112896912448872,0.008153897719903514
1.5094402644503102,0.032363241212534366,0.02720421902556402,0.017181792517199104,0.005868226776662939,0.01185597004162571
1.5095117816052368,0.035420479974014,0.03992894214486113,0.023785576506019895,0.011741813705680835,0.014585982275573306
1.5095832987601634,0.03772295943106026,0.04924849145828742,0.028541189697550762,0.016117504670262343,0.016480170244905248
1.50965481591509,0.039632532833370364,0.0518779162144768,0.030196375009199177,0.01847573143817934,0.01671783123498675
1.5097263330700166,0.041605230836871475,0.046739389864382176,0.028415936049993602,0.017969313743456977,0.01543616931024115
1.5097978502249432,0.04392716574129624,0.0387649393929186,0.026087173799228647,0.013827730572631725,0.015518561158206712
1.5098693673798698,0.04649881119729661,0.03363578070360042,0.025125670272120693,0.009897654127901261,0.016674828977258773
1.5099408845347964,0.048782229516577,0.032875041929923146,0.025898717163670308,0.010235882178157798,0.017171177314282297
1.510012401689723,0.04998265464348263,0.03511628497623033,0.027970420605425636,0.011838493344673724,0.01814971404674289
1.5100839188446495,0.04939582665258717,0.03540294026712361,0.02744804663090382,0.01272311948585727,0.017251695545255668
1.5101554359995761,0.046726633743720845,0.03320129833566972,0.024915387052692306,0.012299286994872724,0.015279481600111876
1.5102269531545027,0.04221494386441091,0.03077625454495495,0.022036546886626967,0.011620404243508225,0.013137651015542845
1.5102984703094293,0.0365554045951188,0.029920845145215747,0.019143160662124768,0.012812985941698031,0.010037414438662882
1.510369987464356,0.030705701566729478,0.03098794557722514,0.01712115674686206,0.015892024281056474,0.006735351575634895
1.5104415046192825,0.025671938650474672,0.03305608489245244,0.016152578444133103,0.019307183616576892,0.0041722358736283
1.510513021774209,0.02230380117340663,0.03550981540035264,0.01595046449902194,0.022810073633432536,0.0022260281524887023
1.5105845389291357,0.02110478427342222,0.03468400919257375,0.014310671393420193,0.023116944565722622,0.0006553313241313407
1.5106560560840623,0.022087028251984653,0.02967925906005401,0.011927341615445858,0.018823361877553586,0.0007702326810580947
1.5107275732389889,0.02474352062355467,0.021251162772921946,0.008315005741078718,0.012314211334618083,0.0009454633392060786
1.5107990903939155,0.028206425428266402,0.014559437459424677,0.006455089330600415,0.005786486946324496,0.0026422380109939235
1.510870607548842,0.03156791810921427,0.011311515969457021,0.006924877381908108,0.0013112128176494882,0.005310839176714214
1.5109421247037687,0.034217944840168574,0.011591745529482143,0.0085255112555674,0.0006679673902866899,0.007017016432639986
1.5110136418586952,0.036025983655989566,0.015155186823216428,0.01161661354179527,0.0022149791273985914,0.008901470856667612
1.5110851590136218,0.03729532439305516,0.01697199082207251,0.013294021431409462,0.004772235294416846,0.009055577411559962
1.5111566761685484,0.03854470610167679,0.01568315424823194,0.013163190298163863,0.0072240114413183575,0.007702918803191505
1.511228193323475,0.04022460916569971,0.014357510484595637,0.013651672900344249,0.008000069121733781,0.007731981104043537
1.5112997104784016,0.04246467581659284,0.015135464733527027,0.01442102957265151,0.009152370935972313,0.007813169398670102
1.5113712276333282,0.04493429586497486,0.020005672628543594,0.016921655013448497,0.011938374676391125,0.008562358973700716
1.5114427447882548,0.04689231770787431,0.025688647554440513,0.019784155718843215,0.014555693651957274,0.009709564264751459
1.5115142619431814,0.047454803887083834,0.027928470761662858,0.02007376929597759,0.016418691372898173,0.009017608135864521
