freq,gls,usurper,pdc_unbiased,shape_periodogram,shift_periodogram
1.5,0.031605246424144244,0.03204586404527543,0.022003088454338578,0.038714412055903015,-0.00012354163279498426
1.5000715171549266,0.028595336453250155,0.025401160217429088,0.01679692217781675,0.0317340743989412,-0.0011788784686487253
1.5001430343098532,0.024797888546036324,0.019735373187058643,0.011419584810450916,0.026372179450584992,-0.003185370147192684
1.5002145514647798,0.020789812632417533,0.017994869867349515,0.008796510756732951,0.02239409018972918,-0.0034866603472782
1.5002860686197064,0.017345459787468324,0.020676950249357205,0.009479677332466734,0.021430310265718358,-0.0024146845257071157
1.500357585774633,0.015271945925960987,0.025300382598100305,0.011714688134418397,0.022670568917734807,-0.0010900930332872752
1.5004291029295596,0.015165201318802408,0.03067250410516262,0.01415548030345099,0.027175123511468436,-0.0012082132512085543
1.5005006200844861,0.01716595655706576,0.03571458840134105,0.016954003693511403,0.03091024396597371,-0.0006330615239881223
1.5005721372394127,0.02086274426290797,0.03965091193781317,0.019187221778694714,0.034954243911462346,-0.0007021752233720749
1.5006436543943393,0.02544081002802935,0.04309562689420297,0.02137618975240262,0.0392966199343487,-0.0009578354744544515
1.500715171549266,0.03000884122307953,0.046693605957767295,0.02421994995090846,0.042387701123354486,-2.1959849064583494e-05
1.5007866887041925,0.03391266896856934,0.05075928964267685,0.02666061786266369,0.048428213030860416,-0.0009023124238288445
1.500858205859119,0.0368882624749449,0.055270390115217914,0.029368029530911475,0.05549774839323854,-0.0020625326695737555
1.5009297230140457,0.0390355018056212,0.06018934127869386,0.03287087235373193,0.06382860317066794,-0.003158209052517924
1.5010012401689723,0.04067274274449097,0.061757042623804576,0.0349635290275476,0.06979462221562527,-0.004305548199788965
1.5010727573238989,0.04213722341942038,0.06173470582417678,0.036798409825528795,0.07313501866821935,-0.004369932142154069
1.5011442744788255,0.043587855733941964,0.06152460308083682,0.03793328428010061,0.07606298202634389,-0.004839196628618083
1.501215791633752,0.044880915226329254,0.060952234001344044,0.03824814004694497,0.07838894118044995,-0.005723976695107613
1.5012873087886787,0.045592465454410994,0.06181260453033662,0.03896037083855539,0.08162714847579358,-0.0067172807003404245
1.5013588259436053,0.04519857422015515,0.06106107627801436,0.038338310339186395,0.0818545360167306,-0.007373626431453839
1.5014303430985318,0.04331902735671992,0.057421467465532,0.03525172960142179,0.08111182444042889,-0.009696253053150115
1.5015018602534584,0.03989064242203222,0.04967806419692126,0.029380562295107576,0.07706655648086558,-0.012796855429745704
1.501573377408385,0.035207008956161204,0.04059899064972924,0.02275340008029923,0.07187420950159525,-0.01597862610066999
1.5016448945633116,0.029854908046904056,0.032322175550616145,0.01716592382272006,0.0644569072910638,-0.017141618855504467
1.5017164117182382,0.02460404968418353,0.025414324870661305,0.01272729457488559,0.05629930559650463,-0.01693564567560382
1.5017879288731648,0.020274028275387688,0.021296370815032786,0.010756457121333964,0.04921547827728083,-0.015120863153490212
1.5018594460280914,0.01756978332877583,0.019349592884462676,0.009814843547662735,0.044963313106879475,-0.013822664613561965
1.501930963183018,0.016887968997375314,0.018997765183871834,0.009773529530205848,0.040890090888286074,-0.011832117122149792
1.5020024803379446,0.018154766828972088,0.018315788710654722,0.009545857603491862,0.037423943023801885,-0.010306023833848548
1.5020739974928712,0.020807783027131654,0.019016228937970784,0.00997328939183271,0.0354040324184107,-0.008930426161798082
1.5021455146477978,0.023992628107040868,0.021645736679250883,0.01144212206274167,0.035406818219711006,-0.0076560186961231545
1.5022170318027244,0.026898257150269028,0.026162982789413838,0.014028974316248104,0.038059125182665146,-0.0067274756305450295
1.502288548957651,0.029041972437567,0.030891986062029336,0.016679671046279716,0.041859021821078236,-0.006313699328716554
1.5023600661125776,0.03036170293294545,0.03589569846318169,0.019990738498687276,0.046015249670569545,-0.005502712824588449
1.5024315832675041,0.031115659296329378,0.03648152671495811,0.02077896981185265,0.04836364920513071,-0.005985523937841804
1.5025031004224307,0.031680428730509906,0.033622346362536706,0.019519808615351825,0.04853178330188615,-0.007163964683770234
1.5025746175773573,0.032340192227813126,0.029887688000294354,0.018649627815208736,0.046133759295041696,-0.006727529750208901
1.502646134732284,0.033131945974426154,0.027180422654581243,0.017871043624403338,0.04255549493837831,-0.0056246355244163404
1.5027176518872105,0.033797027787609374,0.02669221726931209,0.01799769758677829,0.04099115127054211,-0.004736696837838796
1.502789169042137,0.033871437590867574,0.025417451312967874,0.017486670760106647,0.03868479258414982,-0.004034151505599175
1.5028606861970637,0.03289397904446062,0.022242652191470293,0.015274482970942199,0.03590002743376789,-0.004572000205068856
1.5029322033519903,0.030638444170610023,0.01859704952504216,0.012011118949132128,0.033473868333941455,-0.006200893118344679
1.5030037205069169,0.02725242384486997,0.01664758001151161,0.009441040885373031,0.03200901273141026,-0.007704929913890258
1.5030752376618435,0.023245599290448483,0.018082390133013992,0.008606550278537486,0.03172676943339455,-0.008289335224045033
1.50314675481677,0.019358366958489085,0.02144387549021309,0.008953985446160287,0.032155943745949135,-0.008200947590499236
1.5032182719716967,0.01638051368297583,0.025685593557703945,0.010426555451109277,0.032898288682548044,-0.007291065105077652
1.5032897891266233,0.01497089818834955,0.029796141846734684,0.012350463029946239,0.0338591323484166,-0.006097641282523012
1.5033613062815498,0.015499460648454992,0.033060089151542675,0.013981854206916533,0.034244538092591925,-0.004872086358476628
1.5034328234364764,0.01793079665045714,0.03344797082094801,0.01416864675154985,0.032284777334496986,-0.0037357842264719335
1.503504340591403,0.021792554285279486,0.03282341914528211,0.013806564009865633,0.03020115062819975,-0.003014835597006268
1.5035758577463296,0.026283745634476982,0.03540426098123894,0.015751292513310384,0.031050479055426364,-0.0017475798475253155
1.5036473749012562,0.03053094650102892,0.0405783838847525,0.019003856556851165,0.036166278801477096,-0.0014638589745454408
1.5037188920561828,0.03389868374654469,0.047547765378639556,0.02304438568669538,0.04501405293383079,-0.002349810741082582
1.5037904092111094,0.03619247413189749,0.05602402174141698,0.02836367437687625,0.05410192329960782,-0.0022422925475358616
1.503861926366036,0.03764566473947448,0.06236127179909777,0.03246316988130233,0.06233745856840426,-0.0027710813340305162
1.5039334435209626,0.038716510453014726,0.06530470878679355,0.03408384953452373,0.06983300640259235,-0.00509141825798563
1.5040049606758892,0.0398171228344044,0.06669144070374798,0.03557140334761458,0.07534256464591599,-0.006540121211112431
1.5040764778308158,0.041095739566223526,0.06993785789995309,0.037525773851031737,0.08015966980135204,-0.007237271593321217
1.5041479949857424,0.04234364882306056,0.0731931415834266,0.038887791087543686,0.08506047981784201,-0.008493674903068812
1.504219512140669,0.043051695709888996,0.07462072330163119,0.03921573232033744,0.08896184534726505,-0.010155117808324333
1.5042910292955955,0.04260283060723393,0.07010746534620575,0.036347749549566495,0.08916338325068277,-0.012759918415210555
1.5043625464505221,0.04053910287302065,0.0594857095737859,0.030363706364527798,0.0845467357682058,-0.015674322979284165
1.5044340636054487,0.03679439695722014,0.04611300035584326,0.02344001313236871,0.07506171566620669,-0.016971298741161604
1.5045055807603753,0.03178229372791513,0.034423732405500986,0.01698689592080203,0.06599951197442828,-0.01806647328870585
1.504577097915302,0.026296542555493532,0.02645488262559787,0.012446934359831944,0.05807079603944423,-0.01806189789269037
1.5046486150702285,0.021278189004975218,0.023548345554060948,0.011187449324425095,0.05169963851372115,-0.015983114319915052
1.504720132225155,0.017555651134353225,0.022709938652350655,0.011283372248322305,0.04682625181081573,-0.013473870247292411
1.5047916493800817,0.01564621916050789,0.021684164260924704,0.010644076718018416,0.043172416463123316,-0.012211231521843462
1.5048631665350083,0.015656872938766518,0.01960950822918723,0.009217644422453899,0.03846585972532109,-0.011109235799677543
1.5049346836899349,0.017286051262519187,0.018216382400910648,0.008230188330603324,0.034172391983021584,-0.009831951162597219
1.5050062008448615,0.019918755698584013,0.018245004104466587,0.007905738300784866,0.03081120517267669,-0.008442819365864333
1.505077717999788,0.022804926807040774,0.020521979867560318,0.009361654152707073,0.02858743763754106,-0.006073292460483215
1.5051492351547147,0.025289013466251117,0.02540199504206887,0.011726326065843064,0.031993712796398954,-0.005712546622541324
1.5052207523096413,0.027015644551186973,0.03026437906056068,0.014241445734319206,0.03576549974314077,-0.005402610086411408
1.5052922694645678,0.028012475009877,0.03266878978376474,0.015961322224474977,0.037178195339724565,-0.004610620586408465
1.5053637866194944,0.028596359216805502,0.029327027380494846,0.014919408532213189,0.035176685571577423,-0.004520930621346263
1.505435303774421,0.02915112616185344,0.022793093900301205,0.013309044659559194,0.03046693466505771,-0.0035790564186603865
1.5055068209293476,0.029900153036102176,0.018206453849951783,0.012321918805932341,0.026389941052076878,-0.002410565844823668
1.5055783380842742,0.030782681811496897,0.01748985704004036,0.01250866989698158,0.024873344779277457,-0.0014948988553530494
1.5056498552392008,0.03146961942071043,0.019806096430406015,0.013496870470295333,0.02695808113261908,-0.0016724055735047746
1.5057213723941274,0.03149161794629547,0.021024366447610212,0.013134126432083434,0.02972838216594275,-0.003363973855728611
1.505792889549054,0.030427310908792447,0.0207014349851837,0.011855838401314541,0.03199742633693581,-0.005601903701164046
1.5058644067039806,0.02809465201809536,0.01871109932053257,0.009674998552531539,0.031940447947901046,-0.007467665788701624
1.5059359238589072,0.024683284499830333,0.015147069395584148,0.006168765257997816,0.030845454121902958,-0.009968123847834898
1.5060074410138338,0.020766913938386953,0.012956147133731225,0.003987129865862614,0.0294217993571611,-0.011154675394651864
1.5060789581687604,0.017165658691511196,0.014121419825209537,0.004506773893992003,0.02789378680300284,-0.009944036846426038
1.506150475323687,0.014695536880755058,0.01662829211898357,0.005603202541494299,0.027748871404404036,-0.008920066792733817
1.5062219924786135,0.013907828977730352,0.01875607929497606,0.006474304461408025,0.02723175124970612,-0.00790672964010645
1.5062935096335401,0.014929925183180436,0.019119053370241557,0.007024475314287043,0.024233844725997832,-0.005939315953261836
1.5063650267884667,0.01746107614733839,0.017990766366380757,0.006681651925523114,0.02180904283262487,-0.0050322004898620066
1.5064365439433933,0.020900617081537138,0.019416755664351325,0.008103902228742074,0.02074725669793584,-0.0032698815026580503
1.50650806109832,0.024545654709518663,0.023378609090437506,0.01119024144466396,0.020095514139853547,-0.000266352931307982
1.5065795782532465,0.027795889555703463,0.03030705626940675,0.015188716512202768,0.02442713493301801,0.0010543454235952363
1.506651095408173,0.030315638754338018,0.03946034750727666,0.02020329875354711,0.031014031007484035,0.002138482350737732
1.5067226125630997,0.03210575674634778,0.048640781446209876,0.02516307524326057,0.03864036076914806,0.002660374672301015
1.5067941297180263,0.03344435853615213,0.05388643812967671,0.02809340030703321,0.044765808827222184,0.002164726751274169
1.5068656468729529,0.03469846610783441,0.05430666478197009,0.028836225363534616,0.04773326540386217,0.001335937707585105
1.5069371640278795,0.03608805388876267,0.05325252863021988,0.029158238083419115,0.04879151431817986,0.0010900230008399935
1.507008681182806,0.03753193323000867,0.0530148661249905,0.029645090979329304,0.05079531777094778,0.0005173990294052221
1.5070801983377327,0.038657419159163646,0.05318325187233194,0.03000532215028713,0.052491879842809216,-1.2735107539909221e-05
1.5071517154926592,0.038950459296790155,0.05200638632112472,0.029635790998015537,0.052350728775488166,-0.0002641529335505857
1.5072232326475858,0.03795818995272562,0.046581170740750105,0.026170643808596194,0.050822161298391275,-0.0025190991075899607
1.5072947498025124,0.035465807062779846,0.03967928873716832,0.02167628316777021,0.047558269375953144,-0.004804675820165788
1.507366266957439,0.03160750390290827,0.034005490535159985,0.01779655130545853,0.043970376737822905,-0.006393020074646238
1.5074377841123656,0.02689036393457737,0.029163190902475395,0.014369878001425985,0.04095169524640801,-0.007869618849651878
1.5075093012672922,0.022110982309926926,0.024896110706059245,0.012274203971852665,0.03684488043535637,-0.007648198419158623
1.5075808184222188,0.018158898886019043,0.022219598723886756,0.010838451012952628,0.034879640929887844,-0.007918275580484182
1.5076523355771454,0.015750547010193554,0.020607111951513515,0.009985828883372298,0.0329135720599331,-0.007681435258102298
1.507723852732072,0.015198153002695225,0.017567065651969364,0.008495434228764531,0.028662607807502544,-0.00686285502541924
1.5077953698869986,0.01632710132796861,0.013483346060549226,0.006411917338543193,0.023098795902690435,-0.005907186987709358
1.5078668870419252,0.01858159605132472,0.010518653533133112,0.00521914285473996,0.017811372105078684,-0.004315895677290113
1.5079384041968518,0.02125563485920751,0.008798803450896139,0.005152249488431391,0.012296256780854655,-0.0016345520816963114
1.5080099213517784,0.023737553869918368,0.008728995187384072,0.0057615299185219465,0.009190674387387262,0.0004367255649091078
1.508081438506705,0.025680396681245936,0.010690294725204899,0.007453924502377228,0.007891102173684796,0.0025512111148538077
1.5081529556616315,0.027059576075294776,0.012465952037664986,0.008842952470356694,0.007288666202808298,0.004056149540020264
1.5082244728165581,0.028112039179855254,0.011611877644466915,0.008942296206187028,0.005588506199689842,0.00498665232735227
1.5082959899714847,0.029172386947160022,0.00934697382476155,0.008780907310022895,0.004075382253348773,0.005597936569048626
1.5083675071264113,0.03045818310099522,0.009243177573777467,0.010026451111954632,0.003826510623838841,0.006802703403529791
1.508439024281338,0.03190386747651281,0.013271428175702597,0.012747040105629182,0.006516307668373872,0.007828800977261569
1.5085105414362645,0.03314377564440417,0.019347078762467836,0.01600259242207933,0.011815059742944398,0.008024347257357496
1.508582058591191,0.03366149064758627,0.02436726560400181,0.0186299276568245,0.016865173774410082,0.007798439293797826
1.5086535757461177,0.03301661123576188,0.02418167556008288,0.017302793300784304,0.019320656116698826,0.00542660008853678
1.5087250929010443,0.031031763736761156,0.020112251977535838,0.013978643770450466,0.019139440399648062,0.002629804139531391
1.5087966100559709,0.02787943173947238,0.014800449369573964,0.009773118861112214,0.016824575360103802,0.00012788854906367828
1.5088681272108975,0.024071143965329337,0.009883697339386507,0.005405399448016361,0.015084943382787873,-0.0027999034579924277
1.508939644365824,0.020368522042175177,0.005967882587682799,0.002619426200917792,0.012306502673433046,-0.003838251096765657
1.5090111615207507,0.017622660517009992,0.004065229627602805,0.001280243020763253,0.011291763175000477,-0.0044966755209573835
1.5090826786756772,0.016549556574789192,0.0034006293166651195,0.001094148915450876,0.011468876561689751,-0.004746174722133866
1.5091541958306038,0.01749078347259404,0.003456087541852413,0.001728275756159572,0.01068393388843586,-0.0038058863879520477
1.5092257129855304,0.02026609634215111,0.0040916010970157325,0.002622344403247119,0.008742305061388598,-0.002065499265162997
1.509297230140457,0.024225306810832306,0.00766034789679324,0.005090188490138515,0.008340339484288375,0.00027627418586191225
1.5093687472953836,0.028505184243561566,0.015823506503632234,0.010396256019729185,0.01033238677573532,0.0038931093674529718
1.5094402644503102,0.032363241212534366,0.02703771787568239,0.017181792517199104,0.01531177924081871,0.007312121764382426
1.5095117816052368,0.035420479974014,0.03926359230476082,0.023785576506019895,0.021995296808322864,0.009729760357997842
1.5095832987601634,0.03772295943106026,0.04818444575606639,0.028541189697550762,0.026588224054868808,0.011582262151059697
1.50965481591509,0.039632532833370364,0.05055331841403039,0.030196375009199177,0.028150654699059325,0.012245468851265987
1.5097263330700166,0.041605230836871475,0.04548767863472345,0.028415936049993602,0.026186673003436946,0.011672719016972723
1.5097978502249432,0.04392716574129624,0.03792460557314324,0.026087173799228647,0.02010506256757736,0.012667714992845821
1.5098693673798698,0.04649881119729661,0.033616904724601535,0.025125670272120693,0.01455609880666162,0.014586479213461317
1.5099408845347964,0.048782229516577,0.03384865518249076,0.025898717163670308,0.013455039403453894,0.01580438231352232
1.510012401689723,0.04998265464348263,0.036894438277287084,0.027970420605425636,0.014851971370759534,0.01691077525726463
1.5100839188446495,0.04939582665258717,0.03749139744618732,0.02744804663090382,0.016086555199251947,0.01584434941665506
1.5101554359995761,0.046726633743720845,0.03506686887997983,0.024915387052692306,0.016252897062246724,0.013561684458188871
1.5102269531545027,0.04221494386441091,0.03227145978026282,0.022036546886626967,0.01568904346321021,0.011341003846065406
1.5102984703094293,0.0365554045951188,0.030731031226944955,0.019143160662124768,0.016855547997854572,0.00824894885964307
1.510369987464356,0.030705701566729478,0.030905163070416717,0.01712115674686206,0.01937680689415147,0.005240968361998876
1.5104415046192825,0.025671938650474672,0.03226828840859872,0.016152578444133103,0.02230181202062896,0.002947130035142732
1.510513021774209,0.02230380117340663,0.03408673762903024,0.01595046449902194,0.02558413749417733,0.001141236371112607
1.5105845389291357,0.02110478427342222,0.03271119302617712,0.014310671393420193,0.026239391818213702,-0.0006085373531104796
1.5106560560840623,0.022087028251984653,0.027526916939955983,0.011927341615445858,0.021738977362446864,-0.0004426606803656202
1.5107275732389889,0.02474352062355467,0.019236361319398553,0.008315005741078718,0.014948821337806674,-0.00020638272348626245
1.5107990903939155,0.028206425428266402,0.012926532262664735,0.006455089330600415,0.008385113692647635,0.0014388325786526084
1.510870607548842,0.03156791810921427,0.00997104334745917,0.006924877381908108,0.003763030914763873,0.004141959050046081
1.5109421247037687,0.034217944840168574,0.01026918272760596,0.0085255112555674,0.0025408762591083416,0.006138238005721287
1.5110136418586952,0.036025983655989566,0.01360254897265,0.01161661354179527,0.003352341160454798,0.008418497703123433
1.5110851590136218,0.03729532439305516,0.015211757939993797,0.013294021431409462,0.004654729285447533,0.009227952851540894
1.5111566761685484,0.03854470610167679,0.013702368031078636,0.013163190298163863,0.006104740358533364,0.008394422919126728
1.511228193323475,0.04022460916569971,0.012209490800521089,0.013651672900344249,0.005605447595469524,0.009066391219137392
1.5112997104784016,0.04246467581659284,0.013068864118376494,0.01442102957265151,0.005841425301604313,0.009617127911569512
1.5113712276333282,0.04493429586497486,0.018178025622632404,0.016921655013448497,0.008935823455632166,0.010251830097912206
1.5114427447882548,0.04689231770787431,0.024209448803280697,0.019784155718843215,0.013056522381363983,0.010691689518415634
1.5115142619431814,0.047454803887083834,0.026859394881850088,0.02007376929597759,0.016200323276674547,0.009382477684921372
