freq,gls,usurper,pdc_unbiased,shape_periodogram,shift_periodogram
1.5,0.031605246424144244,0.03233502356284091,0.022003088454338578,0.031498139686517795,0.012414761254229656
1.5000715171549266,0.028595336453250155,0.027431389284158347,0.01679692217781675,0.02730131993430972,0.008571575923201144
1.5001430343098532,0.024797888546036324,0.02343111255268948,0.011419584810450916,0.024835256377322323,0.004085884379091554
1.5002145514647798,0.020789812632417533,0.022970815395926186,0.008796510756732951,0.02352077318229563,0.0019291728564268895
1.5002860686197064,0.017345459787468324,0.026540275105871095,0.009479677332466734,0.024485223552012256,0.0023183060263788093
1.500357585774633,0.015271945925960987,0.031840365124541345,0.011714688134418397,0.02723781022605677,0.0037032785463047206
1.5004291029295596,0.015165201318802408,0.03734917337870727,0.01415548030345099,0.031214173403768822,0.004947133157154996
1.5005006200844861,0.01716595655706576,0.04231904831260237,0.016954003693511403,0.034472128621044804,0.006734812888443793
1.5005721372394127,0.02086274426290797,0.04618213624525081,0.019187221778694714,0.037326235985414756,0.008091461447394222
1.5006436543943393,0.02544081002802935,0.04932474402105423,0.02137618975240262,0.03982361519945864,0.00950498899451579
1.500715171549266,0.03000884122307953,0.05253281209538278,0.02421994995090846,0.041125228014126804,0.01188045106212266
1.5007866887041925,0.03391266896856934,0.05643063789904642,0.02666061786266369,0.04317307368912379,0.013661971323013136
1.500858205859119,0.0368882624749449,0.060562205302723555,0.029368029530911475,0.046068350163940015,0.015466394012114209
1.5009297230140457,0.0390355018056212,0.0641665206223396,0.03287087235373193,0.049255013926092196,0.017957288608332445
1.5010012401689723,0.04067274274449097,0.0640774952988755,0.0349635290275476,0.05069772336240651,0.019573740249158436
1.5010727573238989,0.04213722341942038,0.06194508320962968,0.036798409825528795,0.049857209344985415,0.021573548264920236
1.5011442744788255,0.043587855733941964,0.059877291491802445,0.03793328428010061,0.04827842237263774,0.023103011264662125
1.501215791633752,0.044880915226329254,0.05805432034111027,0.03824814004694497,0.04785167187925184,0.023524193411022184
1.5012873087886787,0.045592465454410994,0.058100253394816295,0.03896037083855539,0.049938056356761115,0.02363383933779113
1.5013588259436053,0.04519857422015515,0.05701789615490388,0.038338310339186395,0.05044590582542194,0.022894255892444884
1.5014303430985318,0.04331902735671992,0.05412507531545851,0.03525172960142179,0.04944625512782476,0.02019738930653849
1.5015018602534584,0.03989064242203222,0.047925725751052514,0.029380562295107576,0.04704676238968171,0.015207612751111278
1.501573377408385,0.035207008956161204,0.04055385732464087,0.02275340008029923,0.04471557472163283,0.00947437166638264
1.5016448945633116,0.029854908046904056,0.03399314586367111,0.01716592382272006,0.04303181035211998,0.00456493948890282
1.5017164117182382,0.02460404968418353,0.028328318365855424,0.01272729457488559,0.04113287496451698,0.000822139305396525
1.5017879288731648,0.020274028275387688,0.02487703822143281,0.010756457121333964,0.04013853290671182,-0.0007973530275044161
1.5018594460280914,0.01756978332877583,0.02307480992524985,0.009814843547662735,0.039938277759948404,-0.001647305814280593
1.501930963183018,0.016887968997375314,0.022867412463500277,0.009773529530205848,0.04015365819828303,-0.0017468315446166976
1.5020024803379446,0.018154766828972088,0.022257444873549755,0.009545857603491862,0.04042314091080269,-0.0020405977905660986
1.5020739974928712,0.020807783027131654,0.023389049327082793,0.00997328939183271,0.04149140122052534,-0.0019261316367538966
1.5021455146477978,0.023992628107040868,0.0267047399447354,0.01144212206274167,0.04418251637713374,-0.0012605890267914288
1.5022170318027244,0.026898257150269028,0.03166519429199558,0.014028974316248104,0.04588063579414317,0.0007564745331371232
1.502288548957651,0.029041972437567,0.03648349046150107,0.016679671046279716,0.04649673768851972,0.0031358092061431423
1.5023600661125776,0.03036170293294545,0.040884352206951864,0.019990738498687276,0.04580516658279597,0.006513723057142703
1.5024315832675041,0.031115659296329378,0.04061243267300854,0.02077896981185265,0.043693182599904935,0.007857797336157225
1.5025031004224307,0.031680428730509906,0.036745032411551394,0.019519808615351825,0.04021211975301844,0.007611386761866991
1.5025746175773573,0.032340192227813126,0.03141377532105596,0.018649627815208736,0.034695933149358406,0.008303492820637847
1.502646134732284,0.033131945974426154,0.027472700242601688,0.017871043624403338,0.02945789732195894,0.009006597089378395
1.5027176518872105,0.033797027787609374,0.026244297237637198,0.01799769758677829,0.027046037306402326,0.00979680532995251
1.502789169042137,0.033871437590867574,0.024336872043056634,0.017486670760106647,0.02439898995092588,0.010039080763127027
1.5028606861970637,0.03289397904446062,0.021214665485377954,0.015274482970942199,0.021953261242202274,0.00859036988422828
1.5029322033519903,0.030638444170610023,0.01840884502917869,0.012011118949132128,0.0199437346688231,0.006010783156372757
1.5030037205069169,0.02725242384486997,0.017618169532668128,0.009441040885373031,0.01856629250200541,0.003922664782827391
1.5030752376618435,0.023245599290448483,0.020915416210179144,0.008606550278537486,0.019878652325797948,0.002756735343538819
1.50314675481677,0.019358366958489085,0.026080432993180306,0.008953985446160287,0.022150343597667318,0.002460622601461671
1.5032182719716967,0.01638051368297583,0.03148531260272267,0.010426555451109277,0.024976014690683404,0.003092323922419995
1.5032897891266233,0.01497089818834955,0.03569706932591453,0.012350463029946239,0.026956969054677878,0.004392339134624569
1.5033613062815498,0.015499460648454992,0.03859416498336431,0.013981854206916533,0.028023787501973402,0.005664858208703077
1.5034328234364764,0.01793079665045714,0.038457942781840816,0.01416864675154985,0.026307480961962938,0.006320296208638611
1.503504340591403,0.021792554285279486,0.03759412830565403,0.013806564009865633,0.023764004986429797,0.0066773855101409105
1.5035758577463296,0.026283745634476982,0.03982244207668499,0.015751292513310384,0.024380083344075626,0.008376040700121299
1.5036473749012562,0.03053094650102892,0.04450185112223795,0.019003856556851165,0.027486608577297136,0.010642111366700737
1.5037188920561828,0.03389868374654469,0.050849963159160766,0.02304438568669538,0.032519194400069215,0.013133409566231411
1.5037904092111094,0.03619247413189749,0.05844074385825134,0.02836367437687625,0.036372585151602195,0.017183467109844062
1.503861926366036,0.03764566473947448,0.06357641088888802,0.03246316988130233,0.038878416338342714,0.02043502770361073
1.5039334435209626,0.038716510453014726,0.06563503449590057,0.03408384953452373,0.04079538981723942,0.021464820739913234
1.5040049606758892,0.0398171228344044,0.06591486948939167,0.03557140334761458,0.041494503714061465,0.02270351726419918
1.5040764778308158,0.041095739566223526,0.06840361823482234,0.037525773851031737,0.04224864127321253,0.024376665477305073
1.5041479949857424,0.04234364882306056,0.07127779081904917,0.038887791087543686,0.04454871562276906,0.025052722851611767
1.504219512140669,0.043051695709888996,0.07208618550497183,0.03921573232033744,0.04660228772018944,0.024801303513958352
1.5042910292955955,0.04260283060723393,0.06735449712074094,0.036347749549566495,0.04635263330237866,0.02210818792931243
1.5043625464505221,0.04053910287302065,0.057009980071809505,0.030363706364527798,0.0434969244023225,0.017136573574588476
1.5044340636054487,0.03679439695722014,0.043799813193061435,0.02344001313236871,0.037975026647497336,0.012002711895136168
1.5045055807603753,0.03178229372791513,0.03267512561019564,0.01698689592080203,0.03435008553101321,0.006800281191183447
1.504577097915302,0.026296542555493532,0.025548621550312123,0.012446934359831944,0.03283961735546371,0.0028535562654734277
1.5046486150702285,0.021278189004975218,0.023395213733859735,0.011187449324425095,0.032094803853203846,0.0018492079222153768
1.504720132225155,0.017555651134353225,0.022750589180987702,0.011283372248322305,0.0318157805213356,0.0020188369504243763
1.5047916493800817,0.01564621916050789,0.021805824285429213,0.010644076718018416,0.03231377916388215,0.0012660378203988984
1.5048631665350083,0.015656872938766518,0.020098383167116807,0.009217644422453899,0.03210507837846632,-4.7447826070876696e-05
1.5049346836899349,0.017286051262519187,0.019124078638780878,0.008230188330603324,0.03022867064056046,-0.0004760769369687813
1.5050062008448615,0.019918755698584013,0.019936791362952254,0.007905738300784866,0.02850359917243727,-0.00030931553931353237
1.505077717999788,0.022804926807040774,0.02274494682208193,0.009361654152707073,0.02676283954073235,0.0015731072165172898
1.5051492351547147,0.025289013466251117,0.02838045144778701,0.011726326065843064,0.0279026101640328,0.0035300937627886957
1.5052207523096413,0.027015644551186973,0.0336800343004002,0.014241445734319206,0.0292529228151245,0.005573623699754298
1.5052922694645678,0.028012475009877,0.0354518736829764,0.015961322224474977,0.027866313382042433,0.007611593274963579
1.5053637866194944,0.028596359216805502,0.03143778186480422,0.014919408532213189,0.024002169196708674,0.007681106009313803
1.505435303774421,0.02915112616185344,0.02360787608620807,0.013309044659559194,0.017586696458833484,0.007911674114907752
1.5055068209293476,0.029900153036102176,0.017862719854006393,0.012321918805932341,0.011676676444643786,0.008601384511621072
1.5055783380842742,0.030782681811496897,0.016392403250112694,0.01250866989698158,0.008305148458121057,0.009715502884621804
1.5056498552392008,0.03146961942071043,0.01803233268985623,0.013496870470295333,0.00839120120286191,0.01064121066583401
1.5057213723941274,0.03149161794629547,0.01905216983309675,0.013134126432083434,0.008777931884480167,0.010185441108001745
1.505792889549054,0.030427310908792447,0.019557180692133976,0.011855838401314541,0.008942127686266664,0.008911609353291243
1.5058644067039806,0.02809465201809536,0.01854452321190313,0.009674998552531539,0.00770221330230305,0.0071598494586985134
1.5059359238589072,0.024683284499830333,0.016243125470108248,0.006168765257997816,0.006729715666359293,0.004060569365862381
1.5060074410138338,0.020766913938386953,0.015110629905907929,0.003987129865862614,0.007921728244146007,0.0016338337836100008
1.5060789581687604,0.017165658691511196,0.016875330483536313,0.004506773893992003,0.009380119994658107,0.0017286685204796755
1.506150475323687,0.014695536880755058,0.019711221958031554,0.005603202541494299,0.011150719256906453,0.0022911419698540656
1.5062219924786135,0.013907828977730352,0.02193872918787351,0.006474304461408025,0.012689691694107632,0.002701379367100095
1.5062935096335401,0.014929925183180436,0.021913378331096686,0.007024475314287043,0.01207688295989417,0.003399978980727825
1.5063650267884667,0.01746107614733839,0.020349171820030546,0.006681651925523114,0.010705561739041528,0.003450844671461849
1.5064365439433933,0.020900617081537138,0.0212536640665878,0.008103902228742074,0.01049534043851828,0.004875752220100877
1.50650806109832,0.024545654709518663,0.02482501436008103,0.01119024144466396,0.010145527987218015,0.007938405021576824
1.5065795782532465,0.027795889555703463,0.031293813760617156,0.015188716512202768,0.011754895613051233,0.011334605650398502
1.506651095408173,0.030315638754338018,0.04001483798164634,0.02020329875354711,0.0136814148286436,0.015619971072535535
1.5067226125630997,0.03210575674634778,0.04867507065261512,0.02516307524326057,0.016187088165993062,0.019693179833571405
1.5067941297180263,0.03344435853615213,0.0533713654466095,0.02809340030703321,0.01778088941241682,0.022068893589753426
1.5068656468729529,0.03469846610783441,0.05261891242692475,0.028836225363534616,0.01789209718719388,0.022752244627148605
1.5069371640278795,0.03608805388876267,0.05030507179145108,0.029158238083419115,0.016808826532366445,0.023361617520262907
1.507008681182806,0.03753193323000867,0.049411732203994994,0.029645090979329304,0.01646402192230813,0.023925075939504978
1.5070801983377327,0.038657419159163646,0.04891403155226932,0.03000532215028713,0.01783239123433365,0.02389272612706429
1.5071517154926592,0.038950459296790155,0.04716331354898493,0.029635790998015537,0.017885601526003936,0.023522734925797747
1.5072232326475858,0.03795818995272562,0.04203868164690253,0.026170643808596194,0.0177535134824448,0.0202280457058686
1.5072947498025124,0.035465807062779846,0.03590030690355223,0.02167628316777021,0.016738132130534395,0.0161889618579145
1.507366266957439,0.03160750390290827,0.031304045077216576,0.01779655130545853,0.015861890044250367,0.012702672780102623
1.5074377841123656,0.02689036393457737,0.027528778469790245,0.014369878001425985,0.017104431020899744,0.009064914275112506
1.5075093012672922,0.022110982309926926,0.023676137475526486,0.012274203971852665,0.018258178286293354,0.0067309507061288545
1.5075808184222188,0.018158898886019043,0.021113484091208088,0.010838451012952628,0.020636682675333678,0.004691576073330127
1.5076523355771454,0.015750547010193554,0.019404797794338863,0.009985828883372298,0.022893284276067315,0.00324631758018846
1.507723852732072,0.015198153002695225,0.01625875394720686,0.008495434228764531,0.022455583917143467,0.0019352427795267827
1.5077953698869986,0.01632710132796861,0.012195336998486366,0.006411917338543193,0.01870059567511473,0.0009743632508138697
1.5078668870419252,0.01858159605132472,0.009494793500274878,0.00521914285473996,0.014830762708817481,0.0009014885414073459
1.5079384041968518,0.02125563485920751,0.008172714846816503,0.005152249488431391,0.010979071293258135,0.0019054384985867849
1.5080099213517784,0.023737553869918368,0.008374088461995858,0.0057615299185219465,0.008058657676305633,0.0033007560869081944
1.508081438506705,0.025680396681245936,0.010508648151326815,0.007453924502377228,0.00591410346528615,0.005521553999564272
1.5081529556616315,0.027059576075294776,0.012163557029047574,0.008842952470356694,0.0034670896751939637,0.007534690027780697
1.5082244728165581,0.028112039179855254,0.011221404497583756,0.008942296206187028,-4.4162165236355694e-05,0.008603791747336758
1.5082959899714847,0.029172386947160022,0.008381320824348023,0.008780907310022895,-0.003900915821161174,0.009518288270817004
1.5083675071264113,0.03045818310099522,0.0074702558499907005,0.010026451111954632,-0.006095271859940876,0.011323547510458562
1.508439024281338,0.03190386747651281,0.011064921433456294,0.012747040105629182,-0.005449821393800176,0.013758339068390905
1.5085105414362645,0.03314377564440417,0.01692030124779395,0.01600259242207933,-0.002719779495915714,0.016129083329158907
1.508582058591191,0.03366149064758627,0.02167963327096849,0.0186299276568245,-0.0007406171650625731,0.01810467926502322
1.5086535757461177,0.03301661123576188,0.022278987970666263,0.017302793300784304,-1.3611438784775479e-05,0.016628025664770396
1.5087250929010443,0.031031763736761156,0.019149111587848402,0.013978643770450466,-0.00042859221953780747,0.013549240356242734
1.5087966100559709,0.02787943173947238,0.014952729301724128,0.009773118861112214,-0.0022295930333684384,0.010008067673774167
1.5088681272108975,0.024071143965329337,0.011319484141549851,0.005405399448016361,-0.0024719512223685355,0.005878914304876974
1.508939644365824,0.020368522042175177,0.008358325396099008,0.002619426200917792,-0.0017597784778920248,0.003004722713314245
1.5090111615207507,0.017622660517009992,0.006527331112275355,0.001280243020763253,-0.00020972249255810462,0.001288186623498019
1.5090826786756772,0.016549556574789192,0.005376691488071864,0.001094148915450876,0.0025487558711845353,0.00034437121677552364
1.5091541958306038,0.01749078347259404,0.004638173210893718,0.001728275756159572,0.0044709528382125595,0.00042053551153913845
1.5092257129855304,0.02026609634215111,0.004439786554339902,0.002622344403247119,0.004297711375611253,0.0013275917976835038
1.509297230140457,0.024225306810832306,0.0075202178203088174,0.005090188490138515,0.0043564729156041326,0.0036823873157009676
1.5093687472953836,0.028505184243561566,0.015497793418078274,0.010396256019729185,0.006005573699947861,0.008323289754500746
1.5094402644503102,0.032363241212534366,0.02671494593823484,0.017181792517199104,0.009236596480051405,0.013947849313750389
1.5095117816052368,0.035420479974014,0.038979916756402964,0.023785576506019895,0.012018465593352082,0.01952355854676581
1.5095832987601634,0.03772295943106026,0.04744933374757162,0.028541189697550762,0.01311644254075525,0.023790448707702815
1.50965481591509,0.039632532833370364,0.04895232581836854,0.030196375009199177,0.012263886132095083,0.025617416072898736
1.5097263330700166,0.041605230836871475,0.04282035781232583,0.028415936049993602,0.008784637037618653,0.024869277593061696
1.5097978502249432,0.04392716574129624,0.0339285955033389,0.026087173799228647,0.002811392833091021,0.024285624640813155
1.5098693673798698,0.04649881119729661,0.02838302140034516,0.025125670272120693,-0.0024041766205782802,0.024806893156348427
1.5099408845347964,0.048782229516577,0.02759130988812923,0.025898717163670308,-0.002666520532343965,0.02562233993761465
1.510012401689723,0.04998265464348263,0.029713428915449456,0.027970420605425636,-0.00022860602073383613,0.026937372727242448
1.5100839188446495,0.04939582665258717,0.030364441868395462,0.02744804663090382,0.002503683553079212,0.025678539398722163
1.5101554359995761,0.046726633743720845,0.02881853759758187,0.024915387052692306,0.003856027444177906,0.022870245622521185
1.5102269531545027,0.04221494386441091,0.027041400653842723,0.022036546886626967,0.004703437788282711,0.019869135436607437
1.5102984703094293,0.0365554045951188,0.02693342190908124,0.019143160662124768,0.007636940981703724,0.016275934086208865
1.510369987464356,0.030705701566729478,0.02884874301887644,0.01712115674686206,0.0135855361032804,0.01268436471980238
1.5104415046192825,0.025671938650474672,0.031665363101937016,0.016152578444133103,0.018761869641649758,0.010318931748761275
1.510513021774209,0.02230380117340663,0.0346006693268375,0.01595046449902194,0.023078735492892594,0.008928207741395537
1.5105845389291357,0.02110478427342222,0.03374065956181853,0.014310671393420193,0.02543818192365972,0.006697834328954703
1.5106560560840623,0.022087028251984653,0.02811337030614605,0.011927341615445858,0.023141987146366,0.005043486718775591
1.5107275732389889,0.02474352062355467,0.01930030357158458,0.008315005741078718,0.01829785184642962,0.0029149499403363674
1.5107990903939155,0.028206425428266402,0.012259782371401273,0.006455089330600415,0.014357413443480137,0.0022204147536829433
1.510870607548842,0.03156791810921427,0.008717530840651347,0.006924877381908108,0.011430225446774404,0.003483599941372911
1.5109421247037687,0.034217944840168574,0.008472997928915347,0.0085255112555674,0.009753240895223466,0.005486642973128725
1.5110136418586952,0.036025983655989566,0.011283946824096244,0.01161661354179527,0.008241162672093603,0.00887607256420297
1.5110851590136218,0.03729532439305516,0.01218227175331092,0.013294021431409462,0.006554446412287654,0.010955468580860474
1.5111566761685484,0.03854470610167679,0.010210486138494521,0.013163190298163863,0.004277625888196685,0.0114609530566629
1.511228193323475,0.04022460916569971,0.008429948119747786,0.013651672900344249,0.0012001786333671746,0.012783497348398972
1.5112997104784016,0.04246467581659284,0.009322543830802863,0.01442102957265151,-0.0015602627931521702,0.014288054741383397
1.5113712276333282,0.04493429586497486,0.014734462873527076,0.016921655013448497,-0.0008684407756368657,0.01649881089541869
1.5114427447882548,0.04689231770787431,0.02089491215448373,0.019784155718843215,0.0010741702603455474,0.0187106382277681
1.5115142619431814,0.047454803887083834,0.02389643113238732,0.02007376929597759,0.0032216747036865768,0.018393727018232147
1.511585779098108,0.04599085839647899,0.021726974384086026,0.017243949592298295,0.00378863904130417,0.015517509313719743
