freq,gls,usurper,pdc_unbiased,shape_periodogram,shift_periodogram
1.5,0.031605246424144244,0.030497880492175552,0.022003088454338578,0.03457812784450052,0.0045263806276599
1.5000715171549266,0.028595336453250155,0.024913756593732257,0.01679692217781675,0.02798380389212835,0.002753632872688298
1.5001430343098532,0.024797888546036324,0.020020684613769265,0.011419584810450916,0.023343493476225424,-3.192721622495883e-05
1.5002145514647798,0.020789812632417533,0.018773563767065907,0.008796510756732951,0.019853736972998366,-0.0008497953392645017
1.5002860686197064,0.017345459787468324,0.02148712571977793,0.009479677332466734,0.01892980800775895,0.00017081999847228403
1.500357585774633,0.015271945925960987,0.025867075964736426,0.011714688134418397,0.020192558867769446,0.0016215603480768182
1.5004291029295596,0.015165201318802408,0.030913381332811646,0.01415548030345099,0.024403968822294356,0.0019581392297425035
1.5005006200844861,0.01716595655706576,0.03550464262558757,0.016954003693511403,0.028002533436995523,0.002886509315626117
1.5005721372394127,0.02086274426290797,0.03912645105527626,0.019187221778694714,0.03175271482029303,0.003240621244206771
1.5006436543943393,0.02544081002802935,0.042114535074153754,0.02137618975240262,0.03454815761974369,0.00397608719905808
1.500715171549266,0.03000884122307953,0.04521916589837186,0.02421994995090846,0.03528411377672694,0.006208161669388663
1.5007866887041925,0.03391266896856934,0.048785580452875475,0.02666061786266369,0.038259825104219554,0.007091624370683928
1.500858205859119,0.0368882624749449,0.052978192305521185,0.029368029530911475,0.0420344567734374,0.007863737698706472
1.5009297230140457,0.0390355018056212,0.05756990049230121,0.03287087235373193,0.04732229761289906,0.00868598368013513
1.5010012401689723,0.04067274274449097,0.05884128546452308,0.0349635290275476,0.05091405233402876,0.008987363367598589
1.5010727573238989,0.04213722341942038,0.05849397186019235,0.036798409825528795,0.05292819899735581,0.009752325191604872
1.5011442744788255,0.043587855733941964,0.05795295355686711,0.03793328428010061,0.05555977273751867,0.009615100915637605
1.501215791633752,0.044880915226329254,0.05695151251769566,0.03824814004694497,0.0585471534623683,0.00858224771841919
1.5012873087886787,0.045592465454410994,0.057479118174648236,0.03896037083855539,0.06215702535105609,0.007632831170264563
1.5013588259436053,0.04519857422015515,0.05677663535274529,0.038338310339186395,0.06311191051942697,0.006651030376077101
1.5014303430985318,0.04331902735671992,0.05375243903592563,0.03525172960142179,0.06302460673529416,0.003907584355158452
1.5015018602534584,0.03989064242203222,0.047075523496752966,0.029380562295107576,0.060694005351034655,-0.0003530077912851358
1.501573377408385,0.035207008956161204,0.03902598472842757,0.02275340008029923,0.0577554775366882,-0.005021536234026605
1.5016448945633116,0.029854908046904056,0.03143409304756753,0.01716592382272006,0.053759527987209635,-0.008283481312765986
1.5017164117182382,0.02460404968418353,0.024909883994970364,0.01272729457488559,0.04803624294103552,-0.009747130481469768
1.5017879288731648,0.020274028275387688,0.02081743506949101,0.010756457121333964,0.04337363256536413,-0.009460293742089227
1.5018594460280914,0.01756978332877583,0.018745268792846034,0.009814843547662735,0.04136651613020129,-0.00942064689297426
1.501930963183018,0.016887968997375314,0.018098956003854694,0.009773529530205848,0.03997874180403697,-0.008845422622370168
1.5020024803379446,0.018154766828972088,0.0170948000007942,0.009545857603491862,0.0393111389397048,-0.00875542496377292
1.5020739974928712,0.020807783027131654,0.01745627088729881,0.00997328939183271,0.039097466301311605,-0.008277131996312208
1.5021455146477978,0.023992628107040868,0.019913657559118753,0.01144212206274167,0.039492151881363444,-0.007131519397521929
1.5022170318027244,0.026898257150269028,0.024125654929017536,0.014028974316248104,0.04061540655970564,-0.005302455106092616
1.502288548957651,0.029041972437567,0.028653439681825207,0.016679671046279716,0.042233223965626475,-0.0036336826358780738
1.5023600661125776,0.03036170293294545,0.03364689793241269,0.019990738498687276,0.04392950646817898,-0.0014052087424550833
1.5024315832675041,0.031115659296329378,0.03451669956663511,0.02077896981185265,0.04461169693666599,-0.000997337134519772
1.5025031004224307,0.031680428730509906,0.0318942339035554,0.019519808615351825,0.04309724012125163,-0.0014615588893455047
1.5025746175773573,0.032340192227813126,0.028136080922819138,0.018649627815208736,0.03963497390272522,-0.0007170377972613068
1.502646134732284,0.033131945974426154,0.025092885259522184,0.017871043624403338,0.03584797456392461,0.0002527859809570331
1.5027176518872105,0.033797027787609374,0.024556059594355917,0.01799769758677829,0.03433908203634668,0.0010317443811062922
1.502789169042137,0.033871437590867574,0.02327055694820127,0.017486670760106647,0.03164552241424493,0.0017597127016483367
1.5028606861970637,0.03289397904446062,0.020371643674440425,0.015274482970942199,0.028565585152876483,0.0011294588947938845
1.5029322033519903,0.030638444170610023,0.017213794072528946,0.012011118949132128,0.02593316389043632,-0.0006418965331665338
1.5030037205069169,0.02725242384486997,0.015847752048015463,0.009441040885373031,0.02484452381378654,-0.0024704430062702717
1.5030752376618435,0.023245599290448483,0.017745233194586044,0.008606550278537486,0.025448963257510508,-0.003486320936442907
1.50314675481677,0.019358366958489085,0.02132517754343549,0.008953985446160287,0.025526160024543085,-0.0032083150459744966
1.5032182719716967,0.01638051368297583,0.025389876363689057,0.010426555451109277,0.025665179887542005,-0.0019470237083642733
1.5032897891266233,0.01497089818834955,0.02908616599828485,0.012350463029946239,0.026117983486912657,-0.00041854282712877437
1.5033613062815498,0.015499460648454992,0.03197160669074632,0.013981854206916533,0.026091990971579115,0.001058329844238384
1.5034328234364764,0.01793079665045714,0.03191350718133446,0.01416864675154985,0.02425888811518882,0.002033894311634926
1.503504340591403,0.021792554285279486,0.030648344182108548,0.013806564009865633,0.022351471536168215,0.0025491147177452325
1.5035758577463296,0.026283745634476982,0.032589469859769196,0.015751292513310384,0.0232385752808812,0.0039050891254036307
1.5036473749012562,0.03053094650102892,0.03696945581921564,0.019003856556851165,0.027063726976392317,0.0051418994198645885
1.5037188920561828,0.03389868374654469,0.04306376262200913,0.02304438568669538,0.03361977531590302,0.005884665405753191
1.5037904092111094,0.03619247413189749,0.05095880390254151,0.02836367437687625,0.03972972955460331,0.007975683838370745
1.503861926366036,0.03764566473947448,0.05684562313083322,0.03246316988130233,0.04549196474196451,0.0091254288578153
1.5039334435209626,0.038716510453014726,0.05963607257413282,0.03408384953452373,0.05035226842363522,0.008442855598287499
1.5040049606758892,0.0398171228344044,0.06093759584269517,0.03557140334761458,0.054112795986226946,0.008125190256211829
1.5040764778308158,0.041095739566223526,0.06392002818442027,0.037525773851031737,0.058703276913746764,0.007862492670616164
1.5041479949857424,0.04234364882306056,0.0671645978978483,0.038887791087543686,0.06375639735355611,0.006862169625451518
1.504219512140669,0.043051695709888996,0.06877984766928723,0.03921573232033744,0.06785064448866907,0.005351940028857989
1.5042910292955955,0.04260283060723393,0.06513309888823895,0.036347749549566495,0.06874364212313622,0.00237168790264946
1.5043625464505221,0.04053910287302065,0.055827373853770235,0.030363706364527798,0.06545478125542632,-0.0015693545587678382
1.5044340636054487,0.03679439695722014,0.04372294310058859,0.02344001313236871,0.05831765896889867,-0.004651876896618134
1.5045055807603753,0.03178229372791513,0.03292391248683201,0.01698689592080203,0.05173112488400035,-0.007548833468794069
1.504577097915302,0.026296542555493532,0.025490069609388842,0.012446934359831944,0.04640516314322375,-0.009279095114218497
1.5046486150702285,0.021278189004975218,0.022672899466711395,0.011187449324425095,0.04225756623219534,-0.008580486878433135
1.504720132225155,0.017555651134353225,0.02150544171654219,0.011283372248322305,0.039476931168236536,-0.007267445847592085
1.5047916493800817,0.01564621916050789,0.020142039619839062,0.010644076718018416,0.037443183891287826,-0.006944701035794099
1.5048631665350083,0.015656872938766518,0.017856720208697184,0.009217644422453899,0.034794897995510624,-0.007058098508055579
1.5049346836899349,0.017286051262519187,0.01627036397529446,0.008230188330603324,0.0321323561531718,-0.006770895284661478
1.5050062008448615,0.019918755698584013,0.016027939339251472,0.007905738300784866,0.03018562369712185,-0.006203903851099351
1.505077717999788,0.022804926807040774,0.017952034368347285,0.009361654152707073,0.02869253898734791,-0.0042379535433801395
1.5051492351547147,0.025289013466251117,0.022613594079863467,0.011726326065843064,0.03161736132467709,-0.003403312455623796
1.5052207523096413,0.027015644551186973,0.02737876578928248,0.014241445734319206,0.03453624010528754,-0.0024305611046854412
1.5052922694645678,0.028012475009877,0.02987951043680803,0.015961322224474977,0.034105755508511845,-0.000695366596960463
1.5053637866194944,0.028596359216805502,0.02705746337096623,0.014919408532213189,0.030022349210085474,0.0001684149347224551
1.505435303774421,0.02915112616185344,0.02089191389902495,0.013309044659559194,0.023341645188675632,0.0016659489186517914
1.5055068209293476,0.029900153036102176,0.01608127091700682,0.012321918805932341,0.018420621445515182,0.002947607306852328
1.5055783380842742,0.030782681811496897,0.014951465492643921,0.01250866989698158,0.016226777975685055,0.004081832879575179
1.5056498552392008,0.03146961942071043,0.01693832457793158,0.013496870470295333,0.017484169600787153,0.004415360381923011
1.5057213723941274,0.03149161794629547,0.018120594835816822,0.013134126432083434,0.019907710516110278,0.003021867751332585
1.505792889549054,0.030427310908792447,0.018380099836326297,0.011855838401314541,0.021800989589177654,0.0010396082145620318
1.5058644067039806,0.02809465201809536,0.017223833582408688,0.009674998552531539,0.021626482595678183,-0.0008420860259263576
1.5059359238589072,0.024683284499830333,0.01447604320196281,0.006168765257997816,0.020486050799995974,-0.0034880992349898866
1.5060074410138338,0.020766913938386953,0.012633554867671965,0.003987129865862614,0.01942218189953357,-0.004978149002613331
1.5060789581687604,0.017165658691511196,0.013595554788475291,0.004506773893992003,0.017862710882159596,-0.0038243040414448672
1.506150475323687,0.014695536880755058,0.01551500203226895,0.005603202541494299,0.017599800946962396,-0.0027239787961003837
1.5062219924786135,0.013907828977730352,0.017043861724289528,0.006474304461408025,0.017086779117037747,-0.001715746809459323
1.5062935096335401,0.014929925183180436,0.016997822557414593,0.007024475314287043,0.014493691325378666,-7.916124780301885e-05
1.5063650267884667,0.01746107614733839,0.015291866424915658,0.006681651925523114,0.012377139338126461,0.0005455750026511099
1.5064365439433933,0.020900617081537138,0.015867781007195703,0.008103902228742074,0.011480159684788712,0.0022177394147956135
1.50650806109832,0.024545654709518663,0.019041215537797532,0.01119024144466396,0.010495038754030407,0.005422890812729866
1.5065795782532465,0.027795889555703463,0.025121819615628344,0.015188716512202768,0.013540879978359217,0.007671740851220079
1.506651095408173,0.030315638754338018,0.03342464048537447,0.02020329875354711,0.01868463420811058,0.00991020966364748
1.5067226125630997,0.03210575674634778,0.0422355477791314,0.02516307524326057,0.02511643655202329,0.011534200540637364
1.5067941297180263,0.03344435853615213,0.047538927182491766,0.02809340030703321,0.03101148130805874,0.0115724225168199
1.5068656468729529,0.03469846610783441,0.04831072171798945,0.028836225363534616,0.03354642577914523,0.011124071353711545
1.5069371640278795,0.03608805388876267,0.047438761856739356,0.029158238083419115,0.034283999604105435,0.011088833241147929
1.507008681182806,0.03753193323000867,0.047201597420139234,0.029645090979329304,0.0360285589272234,0.010758401586865711
1.5070801983377327,0.038657419159163646,0.04745599824772433,0.03000532215028713,0.03768078443892928,0.010354753126593744
1.5071517154926592,0.038950459296790155,0.04658931976153503,0.029635790998015537,0.038253198401970445,0.009770276871584353
1.5072232326475858,0.03795818995272562,0.04219214211697508,0.026170643808596194,0.03743490864008346,0.007014457919293585
1.5072947498025124,0.035465807062779846,0.03660055317435423,0.02167628316777021,0.03570102541516727,0.0037377822944687496
1.507366266957439,0.03160750390290827,0.03216320934715174,0.01779655130545853,0.03392584351815813,0.0010331265638963195
1.5074377841123656,0.02689036393457737,0.028260877816088187,0.014369878001425985,0.03293966673073075,-0.001611272028467924
1.5075093012672922,0.022110982309926926,0.0245736071930881,0.012274203971852665,0.030577258568445745,-0.0024525933703965497
1.5075808184222188,0.018158898886019043,0.022147365039030132,0.010838451012952628,0.029515060074097155,-0.0032740676726928674
1.5076523355771454,0.015750547010193554,0.020551166189919347,0.009985828883372298,0.027890514324360172,-0.0033237665476491198
1.507723852732072,0.015198153002695225,0.017458964679723504,0.008495434228764531,0.024319504820124363,-0.003088279698426848
1.5077953698869986,0.01632710132796861,0.013332747575366935,0.006411917338543193,0.020122605267113212,-0.0031095872256012643
1.5078668870419252,0.01858159605132472,0.01022240294168484,0.00521914285473996,0.015970349975289806,-0.002350783593991838
1.5079384041968518,0.02125563485920751,0.008235041728543356,0.005152249488431391,0.011442089708901301,-0.0004156007238582924
1.5080099213517784,0.023737553869918368,0.007722306800768716,0.0057615299185219465,0.008072655170799593,0.0016159050453075192
1.508081438506705,0.025680396681245936,0.009305884514074726,0.007453924502377228,0.005529584554240137,0.004255658299104039
1.5081529556616315,0.027059576075294776,0.010938793990846721,0.008842952470356694,0.003574652262910606,0.00636389577430151
1.5082244728165581,0.028112039179855254,0.010102673543531141,0.008942296206187028,0.0013211679743581973,0.007445773128424732
1.5082959899714847,0.029172386947160022,0.007953691017254126,0.008780907310022895,-0.0005377268078987696,0.008119761817282922
1.5083675071264113,0.03045818310099522,0.007753939034815801,0.010026451111954632,-0.0012227065703636513,0.009539678116977595
1.508439024281338,0.03190386747651281,0.011198080913849199,0.012747040105629182,0.0010108880323019041,0.010998225733603506
1.5085105414362645,0.03314377564440417,0.016748493811089532,0.01600259242207933,0.0052901261751402235,0.012036414673913526
1.508582058591191,0.03366149064758627,0.021403811835297683,0.0186299276568245,0.009065846963260626,0.012732860104818637
1.5086535757461177,0.03301661123576188,0.021575839290722286,0.017302793300784304,0.010279516877336784,0.011006612804766365
1.5087250929010443,0.031031763736761156,0.018204342658950153,0.013978643770450466,0.00936160795265406,0.00842589682387162
1.5087966100559709,0.02787943173947238,0.013640041997089729,0.009773118861112214,0.0073177505666123825,0.005550127767604441
1.5088681272108975,0.024071143965329337,0.009246462793879888,0.005405399448016361,0.00658386362800207,0.0019520737581556885
1.508939644365824,0.020368522042175177,0.005517292968303464,0.002619426200917792,0.004948173793114673,0.0001715615762174265
1.5090111615207507,0.017622660517009992,0.003441444170446899,0.001280243020763253,0.004345283074817371,-0.0007650607305630136
1.5090826786756772,0.016549556574789192,0.0023734666442690364,0.001094148915450876,0.00457271482633478,-0.001032322666547908
1.5091541958306038,0.01749078347259404,0.0018238986305298636,0.001728275756159572,0.004051858982321538,-0.00023357397400691212
1.5092257129855304,0.02026609634215111,0.0016109830609135568,0.002622344403247119,0.002536712724166294,0.0012365758472896431
1.509297230140457,0.024225306810832306,0.004186449522691352,0.005090188490138515,0.0023638788406281615,0.0035281962035137106
1.5093687472953836,0.028505184243561566,0.011195064183971476,0.010396256019729185,0.004921874200215136,0.007164985088377147
1.5094402644503102,0.032363241212534366,0.021306529604180183,0.017181792517199104,0.009677783320460655,0.011162951359168956
1.5095117816052368,0.035420479974014,0.032751340642366004,0.023785576506019895,0.01530843056532855,0.014614772266702634
1.5095832987601634,0.03772295943106026,0.041282421092577896,0.028541189697550762,0.019104545753404128,0.017216417452632263
1.50965481591509,0.039632532833370364,0.04386475623238871,0.030196375009199177,0.020071510879938696,0.018278272511521917
1.5097263330700166,0.041605230836871475,0.03942123266510447,0.028415936049993602,0.017728865786837526,0.01770932276487249
1.5097978502249432,0.04392716574129624,0.03255085115259734,0.026087173799228647,0.0117797808409147,0.018235562783915738
1.5098693673798698,0.04649881119729661,0.0282988540435919,0.025125670272120693,0.007499226308694713,0.019256128493456266
1.5099408845347964,0.048782229516577,0.028210440289291296,0.025898717163670308,0.00816588047624257,0.01965697367116956
1.510012401689723,0.04998265464348263,0.031072620831201384,0.027970420605425636,0.011021080956236396,0.020261143023845136
1.5100839188446495,0.04939582665258717,0.03205032058845185,0.02744804663090382,0.013408132979289965,0.01874133733496766
1.5101554359995761,0.046726633743720845,0.030642994442443134,0.024915387052692306,0.014092895763289696,0.016164789866364108
1.5102269531545027,0.04221494386441091,0.028886208260905447,0.022036546886626967,0.014227764840559251,0.013519469634406811
1.5102984703094293,0.0365554045951188,0.02841557082416321,0.019143160662124768,0.016177131380034498,0.010062215927586736
1.510369987464356,0.030705701566729478,0.029515824457701963,0.01712115674686206,0.019311302319557504,0.006865640237923288
1.5104415046192825,0.025671938650474672,0.0315315075162972,0.016152578444133103,0.022344202557989523,0.004659583228934517
1.510513021774209,0.02230380117340663,0.03380273724663791,0.01595046449902194,0.025790451095027714,0.0029596498176198784
1.5105845389291357,0.02110478427342222,0.032980520998333256,0.014310671393420193,0.026543283898720033,0.001154829997953845
1.5106560560840623,0.022087028251984653,0.028284445874500096,0.011927341615445858,0.02248609687706615,0.0008019369590004626
1.5107275732389889,0.02474352062355467,0.020341884129536827,0.008315005741078718,0.01618825049266009,0.0003329769602760412
1.5107990903939155,0.028206425428266402,0.0139330684443971,0.006455089330600415,0.009536133289355502,0.0015938340558671654
1.510870607548842,0.03156791810921427,0.010480681908392898,0.006924877381908108,0.004370146578690562,0.004291460698337542
1.5109421247037687,0.034217944840168574,0.01012262578461387,0.0085255112555674,0.002383348655628399,0.006603693044063054
1.5110136418586952,0.036025983655989566,0.012809562252733298,0.01161661354179527,0.0020381787295300127,0.009530852784966074
1.5110851590136218,0.03729532439305516,0.014128394972512573,0.013294021431409462,0.001651750106488752,0.011207021211923077
1.5111566761685484,0.03854470610167679,0.01259745749216632,0.013163190298163863,0.0012733670612334758,0.011256225247198343
1.511228193323475,0.04022460916569971,0.01127217497015406,0.013651672900344249,-0.0006325195480109138,0.012534245097107856
1.5112997104784016,0.04246467581659284,0.011792418402522046,0.01442102957265151,-0.0014801206188278977,0.013598277494464668
1.5113712276333282,0.04493429586497486,0.01610482110438829,0.016921655013448497,0.0006698935965565628,0.014896358053816216
1.5114427447882548,0.04689231770787431,0.02130792965260972,0.019784155718843215,0.004749767131285638,0.015669865350559007
1.5115142619431814,0.047454803887083834,0.023684440928241113,0.02007376929597759,0.008881391596597702,0.014110683138922225
