freq,gls,usurper,pdc_unbiased,shape_periodogram,shift_periodogram
1.5,0.031605246424144244,0.033045096292501706,0.022003088454338578,0.04988714667679203,-0.026486627993967317
1.5000715171549266,0.028595336453250155,0.026377658984299956,0.01679692217781675,0.04213230546329862,-0.023443738278096562
1.5001430343098532,0.024797888546036324,0.020503561566012723,0.011419584810450916,0.03581578269190487,-0.02165345582847386
1.5002145514647798,0.020789812632417533,0.01837762041187796,0.008796510756732951,0.030414099115393053,-0.018929893927601013
1.5002860686197064,0.017345459787468324,0.020525707924191495,0.009479677332466734,0.027756974616922347,-0.016398343126977324
1.500357585774633,0.015271945925960987,0.0245960132283401,0.011714688134418397,0.02691246469076304,-0.014374628193747789
1.5004291029295596,0.015165201318802408,0.029565178431041058,0.01415548030345099,0.030694331575721365,-0.01591558029846286
1.5005006200844861,0.01716595655706576,0.03405539723786051,0.016954003693511403,0.03246385856897582,-0.015635563496341105
1.5005721372394127,0.02086274426290797,0.037292528329892126,0.019187221778694714,0.032712076832912475,-0.014483634140968094
1.5006436543943393,0.02544081002802935,0.04017994092398426,0.02137618975240262,0.033007033919472094,-0.013395489995975956
1.500715171549266,0.03000884122307953,0.043584255530241686,0.02421994995090846,0.03406610439275696,-0.01252056961504364
1.5007866887041925,0.03391266896856934,0.047829568455724676,0.02666061786266369,0.040183813833704944,-0.015924863937231134
1.500858205859119,0.0368882624749449,0.052940662421247855,0.029368029530911475,0.049912833339459416,-0.022052270393727286
1.5009297230140457,0.0390355018056212,0.0588848255261544,0.03287087235373193,0.06333845734853481,-0.03065777931275618
1.5010012401689723,0.04067274274449097,0.06182604888221604,0.0349635290275476,0.0762645697817342,-0.039730129201374816
1.5010727573238989,0.04213722341942038,0.06305030172969392,0.036798409825528795,0.08604998891070965,-0.04645592049757657
1.5011442744788255,0.043587855733941964,0.06376097906469624,0.03793328428010061,0.09443388481914268,-0.052490589658349636
1.501215791633752,0.044880915226329254,0.06367364434256084,0.03824814004694497,0.09982255750674182,-0.05662429745508874
1.5012873087886787,0.045592465454410994,0.06456212228159194,0.03896037083855539,0.10358684788464546,-0.059215773035894245
1.5013588259436053,0.04519857422015515,0.06383073446976321,0.038338310339186395,0.1044783621414411,-0.060308524864829266
1.5014303430985318,0.04331902735671992,0.060203782791536646,0.03525172960142179,0.10240651698639883,-0.06051257815417592
1.5015018602534584,0.03989064242203222,0.05253620722303755,0.029380562295107576,0.09668615137931776,-0.0594719031133973
1.501573377408385,0.035207008956161204,0.043459707248197185,0.02275340008029923,0.08919808472705719,-0.05747225754829804
1.5016448945633116,0.029854908046904056,0.03511225705226139,0.01716592382272006,0.08006799807137788,-0.053534199528817696
1.5017164117182382,0.02460404968418353,0.028023121489056443,0.01272729457488559,0.07064389573303856,-0.048674549727247315
1.5017879288731648,0.020274028275387688,0.023644899467096088,0.010756457121333964,0.06179548791366742,-0.04279224674228065
1.5018594460280914,0.01756978332877583,0.021350919588813133,0.009814843547662735,0.05574799064025363,-0.03853031935542912
1.501930963183018,0.016887968997375314,0.02021657094701137,0.009773529530205848,0.0474590581958678,-0.03193784559203427
1.5020024803379446,0.018154766828972088,0.018569649078878484,0.009545857603491862,0.03857135975349637,-0.024983492997354036
1.5020739974928712,0.020807783027131654,0.01827507987594005,0.00997328939183271,0.03044528449095249,-0.018243869966030325
1.5021455146477978,0.023992628107040868,0.02024278092660456,0.01144212206274167,0.02654937182359682,-0.014249796491081945
1.5022170318027244,0.026898257150269028,0.02468175622537873,0.014028974316248104,0.02887807796052642,-0.01454361276618339
1.502288548957651,0.029041972437567,0.029844336888463368,0.016679671046279716,0.03563508093543047,-0.018330862410132254
1.5023600661125776,0.03036170293294545,0.03582436472040557,0.019990738498687276,0.045829556349514064,-0.024464026677289082
1.5024315832675041,0.031115659296329378,0.03784408561901721,0.02077896981185265,0.05700933795256685,-0.03291457156559746
1.5025031004224307,0.031680428730509906,0.03621676180210473,0.019519808615351825,0.06437080441278849,-0.0395577090466554
1.5025746175773573,0.032340192227813126,0.03337000055482865,0.018649627815208736,0.0673336326671472,-0.0424518463758458
1.502646134732284,0.033131945974426154,0.0308678500439868,0.017871043624403338,0.06600831535475281,-0.041862709537906106
1.5027176518872105,0.033797027787609374,0.03018098140282434,0.01799769758677829,0.06415595176811086,-0.04030561171966311
1.502789169042137,0.033871437590867574,0.02864383634619926,0.017486670760106647,0.061343321587391975,-0.03836665593525069
1.5028606861970637,0.03289397904446062,0.02523494681198835,0.015274482970942199,0.05682676841292022,-0.03609483139983243
1.5029322033519903,0.030638444170610023,0.021418596780817204,0.012011118949132128,0.05256028621771145,-0.034658761688319925
1.5030037205069169,0.02725242384486997,0.019230780360726053,0.009441040885373031,0.04920114187344465,-0.03352911849566514
1.5030752376618435,0.023245599290448483,0.020367487765247022,0.008606550278537486,0.047971437851536666,-0.03305149136420376
1.50314675481677,0.019358366958489085,0.023348294017655393,0.008953985446160287,0.04760295231995662,-0.03254759444779336
1.5032182719716967,0.01638051368297583,0.027251302128058662,0.010426555451109277,0.04784100332323702,-0.031848326817084306
1.5032897891266233,0.01497089818834955,0.03100323097485156,0.012350463029946239,0.047691401382705445,-0.030566917319559364
1.5033613062815498,0.015499460648454992,0.03365787761481685,0.013981854206916533,0.0451763684886233,-0.027574040145326224
1.5034328234364764,0.01793079665045714,0.03327927158842036,0.01416864675154985,0.03907232187135142,-0.022590410126530486
1.503504340591403,0.021792554285279486,0.03161316551445027,0.013806564009865633,0.030422637422503104,-0.015909749085569524
1.5035758577463296,0.026283745634476982,0.03326799435411441,0.015751292513310384,0.024831786917309008,-0.01027632726071871
1.5036473749012562,0.03053094650102892,0.038021145292635575,0.019003856556851165,0.026405505763405515,-0.009565144351472479
1.5037188920561828,0.03389868374654469,0.0451368823321344,0.02304438568669538,0.0355952485244658,-0.014451274066709128
1.5037904092111094,0.03619247413189749,0.05469180928331836,0.02836367437687625,0.05118818595977304,-0.02367837884166727
1.503861926366036,0.03764566473947448,0.06269211240707118,0.03246316988130233,0.06956191960109138,-0.03588087775149465
1.5039334435209626,0.038716510453014726,0.06729213612494367,0.03408384953452373,0.08602335435109418,-0.04807800668253735
1.5040049606758892,0.0398171228344044,0.07002859788844445,0.03557140334761458,0.09882021778321265,-0.057440037496050374
1.5040764778308158,0.041095739566223526,0.07381604804424408,0.037525773851031737,0.10725989332674764,-0.06303520425160286
1.5041479949857424,0.04234364882306056,0.07694875231639703,0.038887791087543686,0.1114402241893001,-0.06557128050068099
1.504219512140669,0.043051695709888996,0.07790858838397102,0.03921573232033744,0.11171233297147799,-0.06559159116845054
1.5042910292955955,0.04260283060723393,0.0731489543220806,0.036347749549566495,0.10748384683246393,-0.0639280390409983
1.5043625464505221,0.04053910287302065,0.06251319784941546,0.030363706364527798,0.09856039488099187,-0.0603813839779781
1.5044340636054487,0.03679439695722014,0.04929207634270188,0.02344001313236871,0.0864900301983411,-0.05488781635342653
1.5045055807603753,0.03178229372791513,0.03773478101930519,0.01698689592080203,0.07622870977466904,-0.050569992039233354
1.504577097915302,0.026296542555493532,0.029720920230266644,0.012446934359831944,0.06723215159239865,-0.04611632632216312
1.5046486150702285,0.021278189004975218,0.02677769047147045,0.011187449324425095,0.06132144930061654,-0.042153350052676536
1.504720132225155,0.017555651134353225,0.02586777170762351,0.011283372248322305,0.05716934283661289,-0.03877878503514901
1.5047916493800817,0.01564621916050789,0.024560090436718102,0.010644076718018416,0.05321324599148953,-0.03600564533862659
1.5048631665350083,0.015656872938766518,0.02186880343441479,0.009217644422453899,0.046069246970348914,-0.031164330433798397
1.5049346836899349,0.017286051262519187,0.019490097598585145,0.008230188330603324,0.036804039828683646,-0.024368349312121975
1.5050062008448615,0.019918755698584013,0.018479041662759852,0.007905738300784866,0.02805189991116068,-0.017584322692488077
1.505077717999788,0.022804926807040774,0.01984691188829142,0.009361654152707073,0.021258992379727133,-0.011288841461858084
1.5051492351547147,0.025289013466251117,0.02425618932773563,0.011726326065843064,0.0225781185457204,-0.010911780117725626
1.5052207523096413,0.027015644551186973,0.029398719848084943,0.014241445734319206,0.029799807189677993,-0.015150258029593655
1.5052922694645678,0.028012475009877,0.03270201909365781,0.015961322224474977,0.038288556786815725,-0.020881824101959396
1.5053637866194944,0.028596359216805502,0.030918463011661818,0.014919408532213189,0.045709027947369744,-0.027432709042680924
1.505435303774421,0.02915112616185344,0.026069566512223592,0.013309044659559194,0.05090937101849884,-0.032556740981622506
1.5055068209293476,0.029900153036102176,0.022516347411531922,0.012321918805932341,0.053568062092576904,-0.03527573125023108
1.5055783380842742,0.030782681811496897,0.021983764073615818,0.01250866989698158,0.05430173662537081,-0.035748795921577314
1.5056498552392008,0.03146961942071043,0.023867710994657485,0.013496870470295333,0.05501934545679313,-0.035725025616836735
1.5057213723941274,0.03149161794629547,0.024596603032191144,0.013134126432083434,0.05508921860310492,-0.03599991078166887
1.505792889549054,0.030427310908792447,0.02380277244256568,0.011855838401314541,0.05235210156731021,-0.03458632001489184
1.5058644067039806,0.02809465201809536,0.021321566913614726,0.009674998552531539,0.04699171599291878,-0.031624349681288896
1.5059359238589072,0.024683284499830333,0.017345586099794294,0.006168765257997816,0.04200057014907734,-0.029758806693176768
1.5060074410138338,0.020766913938386953,0.014774015893941728,0.003987129865862614,0.03751149864742931,-0.027495025002877566
1.5060789581687604,0.017165658691511196,0.01565844717135368,0.004506773893992003,0.03452224903728176,-0.02479705982934611
1.506150475323687,0.014695536880755058,0.017888794211691556,0.005603202541494299,0.03307786610624239,-0.022982990474056404
1.5062219924786135,0.013907828977730352,0.019732444033096885,0.006474304461408025,0.031395059290203656,-0.021114862091080155
1.5062935096335401,0.014929925183180436,0.01962168540173733,0.007024475314287043,0.026477779682903258,-0.01686152707155314
1.5063650267884667,0.01746107614733839,0.01769660240132325,0.006681651925523114,0.01888412934040324,-0.01101469988464836
1.5064365439433933,0.020900617081537138,0.01825310207187108,0.008103902228742074,0.012380585127883006,-0.004971581830487507
1.50650806109832,0.024545654709518663,0.02163546747741649,0.01119024144466396,0.008789977946352093,-0.00024518282016723023
1.5065795782532465,0.027795889555703463,0.02842560454391685,0.015188716512202768,0.013306323414284393,-0.0014286365923554835
1.506651095408173,0.030315638754338018,0.0378122111939094,0.02020329875354711,0.023107144241120883,-0.006210232341053608
1.5067226125630997,0.03210575674634778,0.04771247818286793,0.02516307524326057,0.03656380616324268,-0.013942557584342022
1.5067941297180263,0.03344435853615213,0.05419666708438235,0.02809340030703321,0.04995550229530282,-0.022857618828699234
1.5068656468729529,0.03469846610783441,0.055849430336224366,0.028836225363534616,0.05950714196773362,-0.030037600285992637
1.5069371640278795,0.03608805388876267,0.055730846935393756,0.029158238083419115,0.06484047140446851,-0.034105466116676975
1.507008681182806,0.03753193323000867,0.055931752593521435,0.029645090979329304,0.06773634869405476,-0.03612631843559333
1.5070801983377327,0.038657419159163646,0.05589580775384649,0.03000532215028713,0.06609636537431428,-0.03459700206238898
1.5071517154926592,0.038950459296790155,0.05448124389721441,0.029635790998015537,0.06253073553864842,-0.03197018239519216
1.5072232326475858,0.03795818995272562,0.0489150309455523,0.026170643808596194,0.05639369572906686,-0.029162673420063345
1.5072947498025124,0.035465807062779846,0.041816916453264276,0.02167628316777021,0.04787151101208725,-0.025075005940355374
1.507366266957439,0.03160750390290827,0.03593363820718509,0.01779655130545853,0.040495562258241274,-0.021533541311223394
1.5074377841123656,0.02689036393457737,0.03095207414981887,0.014369878001425985,0.03528374516614486,-0.01944648307886782
1.5075093012672922,0.022110982309926926,0.026815414017842355,0.012274203971852665,0.03177494071261252,-0.017914143927460952
1.5075808184222188,0.018158898886019043,0.024257647739524872,0.010838451012952628,0.031082744428641836,-0.01822955778668683
1.5076523355771454,0.015750547010193554,0.02273712558944109,0.009985828883372298,0.030652071358557784,-0.01840120167868685
1.507723852732072,0.015198153002695225,0.019505119935480632,0.008495434228764531,0.026767190704000875,-0.01620371539562314
1.5077953698869986,0.01632710132796861,0.014871177458234583,0.006411917338543193,0.01914617092222876,-0.011386530035796838
1.5078668870419252,0.01858159605132472,0.011172361402655394,0.00521914285473996,0.01105736474618789,-0.005659655869729985
1.5079384041968518,0.02125563485920751,0.008825774522183619,0.005152249488431391,0.0035611120571521953,0.00027427879883664254
1.5080099213517784,0.023737553869918368,0.008457449027948044,0.0057615299185219465,0.0008200034341473813,0.0028268291930041312
1.508081438506705,0.025680396681245936,0.010547306844330891,0.007453924502377228,0.0030235348445073903,0.002093121295498704
1.5081529556616315,0.027059576075294776,0.012959596242325639,0.008842952470356694,0.008853973639505052,-0.0017143437088074744
1.5082244728165581,0.028112039179855254,0.013185457195145982,0.008942296206187028,0.015184197504554653,-0.006699712806690952
1.5082959899714847,0.029172386947160022,0.011961669168897453,0.008780907310022895,0.020723639835225537,-0.011212913223493572
1.5083675071264113,0.03045818310099522,0.012531218499525643,0.010026451111954632,0.025849197655334145,-0.01454683330899336
1.508439024281338,0.03190386747651281,0.01665457890278981,0.012747040105629182,0.03130990135221613,-0.01725756793050907
1.5085105414362645,0.03314377564440417,0.022389809018733525,0.01600259242207933,0.03569860574739862,-0.018790741409574017
1.508582058591191,0.03366149064758627,0.02701895235280939,0.0186299276568245,0.03856064826967756,-0.019485991010408633
1.5086535757461177,0.03301661123576188,0.0266165543049539,0.017302793300784304,0.038103318393132656,-0.019923296066498387
1.5087250929010443,0.031031763736761156,0.02239057808611064,0.013978643770450466,0.03362483439924786,-0.01835967938442512
1.5087966100559709,0.02787943173947238,0.016789126880707626,0.009773118861112214,0.026428859379335055,-0.015162071430044595
1.5088681272108975,0.024071143965329337,0.011571196230037942,0.005405399448016361,0.0203716416983005,-0.01297143555163876
1.508939644365824,0.020368522042175177,0.007600725186212956,0.002619426200917792,0.015903596119846597,-0.01109269928398694
1.5090111615207507,0.017622660517009992,0.005678399773139068,0.001280243020763253,0.014195223273497475,-0.010539923875856451
1.5090826786756772,0.016549556574789192,0.005056215539732837,0.001094148915450876,0.013895277751598793,-0.010413259806096531
1.5091541958306038,0.01749078347259404,0.004860663568545266,0.001728275756159572,0.011690082572167746,-0.008272637988076394
1.5092257129855304,0.02026609634215111,0.004973669609288556,0.002622344403247119,0.007776036680647673,-0.004613104478197455
1.509297230140457,0.024225306810832306,0.007763862104814037,0.005090188490138515,0.00420752420795299,-0.000278368748445166
1.5093687472953836,0.028505184243561566,0.015185883479946266,0.010396256019729185,0.0037166236508388377,0.003318311426000348
1.5094402644503102,0.032363241212534366,0.025927455181794023,0.017181792517199104,0.008321731991342288,0.0037484276257258105
1.5095117816052368,0.035420479974014,0.03804592358574139,0.023785576506019895,0.017183656366211362,0.0006775539044849379
1.5095832987601634,0.03772295943106026,0.04733067445462184,0.028541189697550762,0.02614112055934791,-0.003586727823226033
1.50965481591509,0.039632532833370364,0.05066011427889114,0.030196375009199177,0.03319540383379949,-0.008210518172067149
1.5097263330700166,0.041605230836871475,0.04687937112701344,0.028415936049993602,0.036492861651107475,-0.011918117932360466
1.5097978502249432,0.04392716574129624,0.04027778137131139,0.026087173799228647,0.03407999772167434,-0.011402261540871787
1.5098693673798698,0.04649881119729661,0.036208790676348315,0.025125670272120693,0.029119988835069482,-0.008028052493777625
1.5099408845347964,0.048782229516577,0.03605304413925408,0.025898717163670308,0.02544031831330903,-0.004626447920690708
1.510012401689723,0.04998265464348263,0.0385255481256309,0.027970420605425636,0.022945447349561977,-0.001384307701075266
1.5100839188446495,0.04939582665258717,0.03876470813896887,0.02744804663090382,0.02023120732561762,0.0004633388319147819
1.5101554359995761,0.046726633743720845,0.03632653550616198,0.024915387052692306,0.01681721284199128,0.0016527947681611115
1.5102269531545027,0.04221494386441091,0.033473031652476753,0.022036546886626967,0.012634540596237294,0.0032457402190461996
1.5102984703094293,0.0365554045951188,0.031926189820238635,0.019143160662124768,0.012251692181421156,0.001801862254342395
1.510369987464356,0.030705701566729478,0.03209404196131596,0.01712115674686206,0.01422745904618165,-0.0009949476251112973
1.5104415046192825,0.025671938650474672,0.03353982396528256,0.016152578444133103,0.018400884468911517,-0.004906918607209786
1.510513021774209,0.02230380117340663,0.0354478651556249,0.01595046449902194,0.02315293040890714,-0.008817412819336009
1.5105845389291357,0.02110478427342222,0.033954513437845,0.014310671393420193,0.02381765898975014,-0.010338388013882973
1.5106560560840623,0.022087028251984653,0.02851228379388488,0.011927341615445858,0.01865716427265435,-0.007664529948141105
1.5107275732389889,0.02474352062355467,0.019790511003256572,0.008315005741078718,0.01009630879757744,-0.0030234334720812485
1.5107990903939155,0.028206425428266402,0.013086117617850336,0.006455089330600415,0.002523966464199284,0.0018878518252509258
1.510870607548842,0.03156791810921427,0.010062292536301093,0.006924877381908108,-0.0006439927893494507,0.004696278080170357
1.5109421247037687,0.034217944840168574,0.010672302947500665,0.0085255112555674,0.0033052745877726972,0.0025159503936473186
1.5110136418586952,0.036025983655989566,0.014684213998440016,0.01161661354179527,0.011949448874616513,-0.00250566055501825
1.5110851590136218,0.03729532439305516,0.017249417461956157,0.013294021431409462,0.02188337462643509,-0.009410617599166242
1.5111566761685484,0.03854470610167679,0.016971458848140872,0.013163190298163863,0.031695635816494136,-0.01731374854326467
1.511228193323475,0.04022460916569971,0.016357338298290135,0.013651672900344249,0.03740186343467503,-0.021570108885132593
1.5112997104784016,0.04246467581659284,0.0173083764408924,0.01442102957265151,0.03968969694185918,-0.022930476725695537
1.5113712276333282,0.04493429586497486,0.021779234426652465,0.016921655013448497,0.04089498962846513,-0.02238103273654602
1.5114427447882548,0.04689231770787431,0.026809948645785498,0.019784155718843215,0.040378768236247684,-0.020238894621573685
1.5115142619431814,0.047454803887083834,0.02857053543762525,0.02007376929597759,0.03769485279465831,-0.017922417666875787
1.511585779098108,0.04599085839647899,0.02519181925890357,0.017243949592298295,0.03269350027171647,-0.015643473281433045
