freq,gls,usurper,pdc_unbiased,shape_periodogram,shift_periodogram
1.5,0.031605246424144244,0.03278467158764727,0.022003088454338578,0.05093615559577079,-0.02224364072843735
1.5000715171549266,0.028595336453250155,0.026180341028719537,0.01679692217781675,0.04311804074901894,-0.02007372240661968
1.5001430343098532,0.024797888546036324,0.02049162736158639,0.011419584810450916,0.03691878596156512,-0.01920683643430615
1.5002145514647798,0.020789812632417533,0.018667883801809407,0.008796510756732951,0.031602774180716546,-0.01710708979935483
1.5002860686197064,0.017345459787468324,0.021230341431061287,0.009479677332466734,0.029502060719986893,-0.015103968956697349
1.500357585774633,0.015271945925960987,0.025737619555932154,0.011714688134418397,0.029698981673004218,-0.013722587236172812
1.5004291029295596,0.015165201318802408,0.030997548367885545,0.01415548030345099,0.03434486137465652,-0.015455663858699287
1.5005006200844861,0.01716595655706576,0.035875939934333134,0.016954003693511403,0.03758384588464978,-0.01591530742648956
1.5005721372394127,0.02086274426290797,0.03960707435819022,0.019187221778694714,0.0405204775403266,-0.016539717729750204
1.5006436543943393,0.02544081002802935,0.042872943427563856,0.02137618975240262,0.04341792461297111,-0.01716574345745754
1.500715171549266,0.03000884122307953,0.04635459292770863,0.02421994995090846,0.045464095309479584,-0.016721027076577945
1.5007866887041925,0.03391266896856934,0.050390742368051626,0.02666061786266369,0.05171672283971748,-0.019632634111061968
1.500858205859119,0.0368882624749449,0.05495220856666623,0.029368029530911475,0.06023960926303333,-0.024028036038003946
1.5009297230140457,0.0390355018056212,0.06000583443430122,0.03287087235373193,0.07129311343842175,-0.029741038632791372
1.5010012401689723,0.04067274274449097,0.061824087770040205,0.0349635290275476,0.08079118829027732,-0.03528518971055354
1.5010727573238989,0.04213722341942038,0.062080467651506814,0.036798409825528795,0.08745688763221122,-0.03893009012099857
1.5011442744788255,0.043587855733941964,0.06208503924215101,0.03793328428010061,0.09341362876949877,-0.0425366966172684
1.501215791633752,0.044880915226329254,0.06164940534165453,0.03824814004694497,0.09777362391824906,-0.04553226897292737
1.5012873087886787,0.045592465454410994,0.06256340111048891,0.03896037083855539,0.10234888110513603,-0.04841656130755298
1.5013588259436053,0.04519857422015515,0.06188753111891755,0.038338310339186395,0.10376672289690447,-0.04988822118352221
1.5014303430985318,0.04331902735671992,0.05834620299956932,0.03525172960142179,0.102996788519773,-0.05143396588641388
1.5015018602534584,0.03989064242203222,0.050726271410100034,0.029380562295107576,0.09834411032191899,-0.05202117365373701
1.501573377408385,0.035207008956161204,0.041718050314408235,0.02275340008029923,0.09186139758588685,-0.051776139506376516
1.5016448945633116,0.029854908046904056,0.03346098735014332,0.01716592382272006,0.0828115857449473,-0.048934898090627996
1.5017164117182382,0.02460404968418353,0.026529114231990104,0.01272729457488559,0.07296029335748619,-0.04472759766378652
1.5017879288731648,0.020274028275387688,0.02237023400981225,0.010756457121333964,0.06409292008879064,-0.039565984894697204
1.5018594460280914,0.01756978332877583,0.02035134544024532,0.009814843547662735,0.05829943558078148,-0.03596074356455461
1.501930963183018,0.016887968997375314,0.01982230134584082,0.009773529530205848,0.05154660057812715,-0.031040645024506028
1.5020024803379446,0.018154766828972088,0.0189213354714443,0.009545857603491862,0.045033190471261975,-0.02642562729242062
1.5020739974928712,0.020807783027131654,0.019379706649230923,0.00997328939183271,0.039601180777310535,-0.02215720821734144
1.5021455146477978,0.023992628107040868,0.0218064317243883,0.01144212206274167,0.03702701794069065,-0.019270664423549362
1.5022170318027244,0.026898257150269028,0.026259096170734374,0.014028974316248104,0.03891695923648514,-0.01888812318639965
1.502288548957651,0.029041972437567,0.03102634666342912,0.016679671046279716,0.04356341337618718,-0.020479873160674626
1.5023600661125776,0.03036170293294545,0.036171422867209424,0.019990738498687276,0.05025006570388359,-0.02311570452233324
1.5024315832675041,0.031115659296329378,0.037010948639873996,0.02077896981185265,0.05640541569577061,-0.02708759796393686
1.5025031004224307,0.031680428730509906,0.03441972679947312,0.019519808615351825,0.059820063469015576,-0.030450794817395523
1.5025746175773573,0.032340192227813126,0.03088627353721318,0.018649627815208736,0.05969402334308613,-0.030952675219507043
1.502646134732284,0.033131945974426154,0.028215045154819866,0.017871043624403338,0.05701565314969051,-0.029520938572794347
1.5027176518872105,0.033797027787609374,0.02767291109023041,0.01799769758677829,0.05574516133043115,-0.02850326388711065
1.502789169042137,0.033871437590867574,0.02635215696563733,0.017486670760106647,0.05374101557725527,-0.027383534668737806
1.5028606861970637,0.03289397904446062,0.02319215411861758,0.015274482970942199,0.05071148231101762,-0.026674337265129966
1.5029322033519903,0.030638444170610023,0.019628122122204366,0.012011118949132128,0.048023118983328755,-0.02693275801753444
1.5030037205069169,0.02725242384486997,0.017725549443280496,0.009441040885373031,0.046083337397356455,-0.027266119480541827
1.5030752376618435,0.023245599290448483,0.019162235271921717,0.008606550278537486,0.04551911575365769,-0.027422383833006478
1.50314675481677,0.019358366958489085,0.022462062069555228,0.008953985446160287,0.045413557166133364,-0.027108019785228758
1.5032182719716967,0.01638051368297583,0.026634330258480932,0.010426555451109277,0.045803474040802615,-0.02638866348751128
1.5032897891266233,0.01497089818834955,0.030657739661962495,0.012350463029946239,0.046239961576984935,-0.025395249247188906
1.5033613062815498,0.015499460648454992,0.03375465596704849,0.013981854206916533,0.045444664793780835,-0.023699277526423698
1.5034328234364764,0.01793079665045714,0.033932815837060454,0.01416864675154985,0.041567841270235543,-0.020733254981842475
1.503504340591403,0.021792554285279486,0.03303608036682605,0.013806564009865633,0.03634244089761075,-0.017155680371019038
1.5035758577463296,0.026283745634476982,0.03534761684686571,0.015751292513310384,0.03394760503522106,-0.014075473902523325
1.5036473749012562,0.03053094650102892,0.040363842901978184,0.019003856556851165,0.0373146279257238,-0.014318434461876898
1.5037188920561828,0.03389868374654469,0.04732423095253605,0.02304438568669538,0.046529367957728565,-0.018304388918540034
1.5037904092111094,0.03619247413189749,0.055981917127409575,0.02836367437687625,0.05865746934989296,-0.023554878534202846
1.503861926366036,0.03764566473947448,0.06264958274958383,0.03246316988130233,0.07160520318910352,-0.030249107111491865
1.5039334435209626,0.038716510453014726,0.06598516608919734,0.03408384953452373,0.08355033456736533,-0.03791552181637233
1.5040049606758892,0.0398171228344044,0.06770628798346737,0.03557140334761458,0.0927734528849625,-0.043682730361382094
1.5040764778308158,0.041095739566223526,0.0710968538750574,0.037525773851031737,0.09976016414879284,-0.0474908996101171
1.5041479949857424,0.04234364882306056,0.07433003684488092,0.038887791087543686,0.10513409693234826,-0.05052037515414446
1.504219512140669,0.043051695709888996,0.07563350866994181,0.03921573232033744,0.10845259914005466,-0.05274438003295288
1.5042910292955955,0.04260283060723393,0.07107387547337335,0.036347749549566495,0.10765431682727639,-0.05411940800598837
1.5043625464505221,0.04053910287302065,0.06052607345816653,0.030363706364527798,0.1017822603616626,-0.053882789332754547
1.5044340636054487,0.03679439695722014,0.04726212654744919,0.02344001313236871,0.09129985468628463,-0.050893878726055386
1.5045055807603753,0.03178229372791513,0.035653750193013985,0.01698689592080203,0.08142529186005451,-0.04803823811051884
1.504577097915302,0.026296542555493532,0.027703131527669417,0.012446934359831944,0.0720541153167145,-0.04425369960315216
1.5046486150702285,0.021278189004975218,0.024826633259071505,0.011187449324425095,0.06475070423398334,-0.03975436480543357
1.504720132225155,0.017555651134353225,0.0239886428569756,0.011283372248322305,0.058973636185275555,-0.035452958087251095
1.5047916493800817,0.01564621916050789,0.02290787863401666,0.010644076718018416,0.054196614913776496,-0.032388167153915653
1.5048631665350083,0.015656872938766518,0.020674643485548653,0.009217644422453899,0.047284927407695874,-0.02829848510162327
1.5049346836899349,0.017286051262519187,0.01903073845832981,0.008230188330603324,0.040032185504859916,-0.023662198994244227
1.5050062008448615,0.019918755698584013,0.01878142878693824,0.007905738300784866,0.03339826441638931,-0.019028674070391775
1.505077717999788,0.022804926807040774,0.020790540447182468,0.009361654152707073,0.02821853387548245,-0.014245558264117853
1.5051492351547147,0.025289013466251117,0.025502559049063424,0.011726326065843064,0.03051266486402529,-0.014309927450516076
1.5052207523096413,0.027015644551186973,0.030367463767488733,0.014241445734319206,0.03593728275089616,-0.016562290193229714
1.5052922694645678,0.028012475009877,0.03291320999639621,0.015961322224474977,0.04043936591758957,-0.018683241240120847
1.5053637866194944,0.028596359216805502,0.029911415977811807,0.014919408532213189,0.04248916374528318,-0.020895213155169266
1.505435303774421,0.02915112616185344,0.023782697616677513,0.013309044659559194,0.04210235399751837,-0.021711373112527806
1.5055068209293476,0.029900153036102176,0.01944682798150453,0.012321918805932341,0.04082284875942519,-0.021448499738563
1.5055783380842742,0.030782681811496897,0.01877077582615877,0.01250866989698158,0.04027723116165991,-0.02092162265214338
1.5056498552392008,0.03146961942071043,0.020983769256583473,0.013496870470295333,0.042370050471971024,-0.02177914021350759
1.5057213723941274,0.03149161794629547,0.02211580484547857,0.013134126432083434,0.04495065037468945,-0.023916212991042376
1.505792889549054,0.030427310908792447,0.02175472852254552,0.011855838401314541,0.046030242323206315,-0.025579269563162803
1.5058644067039806,0.02809465201809536,0.019710902781934988,0.009674998552531539,0.044582651072538615,-0.02600761230825094
1.5059359238589072,0.024683284499830333,0.01608734676460889,0.006168765257997816,0.04242940678925792,-0.026823519621900112
1.5060074410138338,0.020766913938386953,0.013838334011793902,0.003987129865862614,0.03997159794018436,-0.026512726076492594
1.5060789581687604,0.017165658691511196,0.014965923670061693,0.004506773893992003,0.03780617574575431,-0.024573391001190423
1.506150475323687,0.014695536880755058,0.017426984570046645,0.005603202541494299,0.03696516850285654,-0.023209888075129793
1.5062219924786135,0.013907828977730352,0.01950272655655924,0.006474304461408025,0.03570278248207863,-0.021691728196179823
1.5062935096335401,0.014929925183180436,0.019732057735136803,0.007024475314287043,0.03131669139172236,-0.018107028894257717
1.5063650267884667,0.01746107614733839,0.018395809765350706,0.006681651925523114,0.02611717739309764,-0.014537347453269293
1.5064365439433933,0.020900617081537138,0.019600808413926696,0.008103902228742074,0.02199596169209439,-0.010552551226794788
1.50650806109832,0.024545654709518663,0.023375303471149075,0.01119024144466396,0.018956441685528964,-0.006223363669188651
1.5065795782532465,0.027795889555703463,0.030218038190366156,0.015188716512202768,0.022942117954791806,-0.00640870558511332
1.506651095408173,0.030315638754338018,0.03938238096020567,0.02020329875354711,0.030913633246927308,-0.008815455501328173
1.5067226125630997,0.03210575674634778,0.04869222363268818,0.02516307524326057,0.04147166180236476,-0.013153467140442745
1.5067941297180263,0.03344435853615213,0.05425397324758521,0.02809340030703321,0.051452998314201207,-0.01845993753323901
1.5068656468729529,0.03469846610783441,0.05502319933595319,0.028836225363534616,0.05797839460765844,-0.02273395491163146
1.5069371640278795,0.03608805388876267,0.05423285594146408,0.029158238083419115,0.06146455485213366,-0.025069689436084078
1.507008681182806,0.03753193323000867,0.054122255089978984,0.029645090979329304,0.06455101937287597,-0.027000390904147867
1.5070801983377327,0.038657419159163646,0.05426576509592939,0.03000532215028713,0.06564000297080126,-0.027552869185800504
1.5071517154926592,0.038950459296790155,0.05303755255430302,0.029635790998015537,0.06463224407970604,-0.027066332119517245
1.5072232326475858,0.03795818995272562,0.047604824460289595,0.026170643808596194,0.061477887465161925,-0.02712208432699938
1.5072947498025124,0.035465807062779846,0.0406811373239606,0.02167628316777021,0.05591366074405042,-0.026114189926711436
1.507366266957439,0.03160750390290827,0.034952173989638284,0.01779655130545853,0.05029204626284928,-0.024645011940296804
1.5074377841123656,0.02689036393457737,0.030047021692174145,0.014369878001425985,0.045642221767293524,-0.02357905488499487
1.5075093012672922,0.022110982309926926,0.025797331952367355,0.012274203971852665,0.04095707641607654,-0.02157932832869955
1.5075808184222188,0.018158898886019043,0.0231277157307323,0.010838451012952628,0.038869241683207024,-0.021031008173628806
1.5076523355771454,0.015750547010193554,0.02150737161873364,0.009985828883372298,0.036958210294897514,-0.020214235895944333
1.507723852732072,0.015198153002695225,0.01840627816531107,0.008495434228764531,0.03220839426178029,-0.01775565574911369
1.5077953698869986,0.01632710132796861,0.014170196015552153,0.006411917338543193,0.025058840172975647,-0.013947303988998424
1.5078668870419252,0.01858159605132472,0.01098901297385041,0.00521914285473996,0.01765642736231927,-0.009347665614184698
1.5079384041968518,0.02125563485920751,0.00907347094885257,0.005152249488431391,0.010128193575530122,-0.003888890191314196
1.5080099213517784,0.023737553869918368,0.008890206852082774,0.0057615299185219465,0.0062315088696407225,-0.0006243044345479538
1.508081438506705,0.025680396681245936,0.010829352007179814,0.007453924502377228,0.00590293915646611,0.0007707538579338755
1.5081529556616315,0.027059576075294776,0.012706216128398194,0.008842952470356694,0.007838246325982992,0.00030379349926379264
1.5082244728165581,0.028112039179855254,0.012111182614950908,0.008942296206187028,0.009556761888908931,-0.0008847903107916522
1.5082959899714847,0.029172386947160022,0.010142958685467414,0.008780907310022895,0.011445544137278203,-0.0023758318059262213
1.5083675071264113,0.03045818310099522,0.010244426591873582,0.010026451111954632,0.013960298031038038,-0.003364438579422663
1.508439024281338,0.03190386747651281,0.014344464317124873,0.012747040105629182,0.01860414843419646,-0.00490314657290463
1.5085105414362645,0.03314377564440417,0.02039356476321962,0.01600259242207933,0.0246933226185916,-0.007133841678244614
1.508582058591191,0.03366149064758627,0.025348590707018937,0.0186299276568245,0.030156397265797604,-0.009335994646221939
1.5086535757461177,0.03301661123576188,0.025167609689798233,0.017302793300784304,0.03249537694127667,-0.011953503001650646
1.5087250929010443,0.031031763736761156,0.0211133141467235,0.013978643770450466,0.031171646903310587,-0.013254573730382531
1.5087966100559709,0.02787943173947238,0.01575506995702068,0.009773118861112214,0.027014336590269177,-0.013083864042501236
1.5088681272108975,0.024071143965329337,0.010751940841722018,0.005405399448016361,0.023167527451846127,-0.013250826852389916
1.508939644365824,0.020368522042175177,0.006775843961102885,0.002619426200917792,0.018909843428840233,-0.012038092806821044
1.5090111615207507,0.017622660517009992,0.004804830925886057,0.001280243020763253,0.016994620445529456,-0.011551336919442412
1.5090826786756772,0.016549556574789192,0.004108098488275689,0.001094148915450876,0.016576625243686513,-0.011372665725055527
1.5091541958306038,0.01749078347259404,0.004087780325062405,0.001728275756159572,0.014784232797759983,-0.0096294309883989
1.5092257129855304,0.02026609634215111,0.004605582909898444,0.002622344403247119,0.011543698873943957,-0.006650072084422213
1.509297230140457,0.024225306810832306,0.007999012456151462,0.005090188490138515,0.009282802077429722,-0.0033131654750125496
1.5093687472953836,0.028505184243561566,0.015993872284082656,0.010396256019729185,0.009536457408214974,0.00012230454343742375
1.5094402644503102,0.032363241212534366,0.02709922810139665,0.017181792517199104,0.013847577578133518,0.0016020474736509966
1.5095117816052368,0.035420479974014,0.039303856852950736,0.023785576506019895,0.021459282470498168,0.000546215873744224
1.5095832987601634,0.03772295943106026,0.048320098997748064,0.028541189697550762,0.027976671379449102,-0.0009706540547529896
1.50965481591509,0.039632532833370364,0.050940386064236794,0.030196375009199177,0.032102392718328245,-0.0028570287316395777
1.5097263330700166,0.041605230836871475,0.046236927703324514,0.028415936049993602,0.03300873063525038,-0.004737074253478062
1.5097978502249432,0.04392716574129624,0.038935631144034206,0.026087173799228647,0.028806667349529688,-0.003254680941768971
1.5098693673798698,0.04649881119729661,0.03471579906617668,0.025125670272120693,0.02370069038048241,-0.0001773544239659213
1.5099408845347964,0.048782229516577,0.03488969475140738,0.025898717163670308,0.02195748369123474,0.0016254433215549893
1.510012401689723,0.04998265464348263,0.03782404587843355,0.027970420605425636,0.022253777699424757,0.0028242405171617813
1.5100839188446495,0.04939582665258717,0.038379443058060306,0.02744804663090382,0.02218777139352438,0.0025155806047289556
1.5101554359995761,0.046726633743720845,0.036005444034910176,0.024915387052692306,0.02099314169616794,0.0016588061251162467
1.5102269531545027,0.04221494386441091,0.033214795407238935,0.022036546886626967,0.01865174175610798,0.0014044564170242655
1.5102984703094293,0.0365554045951188,0.031640824976866405,0.019143160662124768,0.01860867419782341,-0.0005398692969735127
1.510369987464356,0.030705701566729478,0.03173433292492863,0.01712115674686206,0.02004225154839456,-0.0029687162981262244
1.5104415046192825,0.025671938650474672,0.03300916204982019,0.016152578444133103,0.022703649743602384,-0.00557626314114255
1.510513021774209,0.02230380117340663,0.03472951763432318,0.01595046449902194,0.026064886834778034,-0.008172619923010932
1.5105845389291357,0.02110478427342222,0.033209311847849095,0.014310671393420193,0.026295481230851743,-0.009460789786968194
1.5106560560840623,0.022087028251984653,0.027885281004970886,0.011927341615445858,0.02115730898409429,-0.007329722148085079
1.5107275732389889,0.02474352062355467,0.019446290838924706,0.008315005741078718,0.013240395852152318,-0.0040060633365458335
1.5107990903939155,0.028206425428266402,0.012995278770573526,0.006455089330600415,0.005565400084087918,0.00033592998620502823
1.510870607548842,0.03156791810921427,0.009973088413269124,0.006924877381908108,0.0007263196932971443,0.004194082793901468
1.5109421247037687,0.034217944840168574,0.010306337566106594,0.0085255112555674,0.001207600078109419,0.004934463382572003
1.5110136418586952,0.036025983655989566,0.013780309286487354,0.01161661354179527,0.005141430363934264,0.004168143588610053
1.5110851590136218,0.03729532439305516,0.01563641768719903,0.013294021431409462,0.010300441629176897,0.0015414878161789404
1.5111566761685484,0.03854470610167679,0.014478918359092041,0.013163190298163863,0.016019824958739683,-0.0027293992332132694
1.511228193323475,0.04022460916569971,0.013272665194815863,0.013651672900344249,0.01906788581679657,-0.004624754437114158
1.5112997104784016,0.04246467581659284,0.01422583974944132,0.01442102957265151,0.021093190361535168,-0.005580620826775954
1.5113712276333282,0.04493429586497486,0.019254085971778485,0.016921655013448497,0.02462961437506088,-0.006459748535356799
1.5114427447882548,0.04689231770787431,0.02510265307570261,0.019784155718843215,0.028171725952856812,-0.00709590300819763
1.5115142619431814,0.047454803887083834,0.027607160322305244,0.02007376929597759,0.029936922259739793,-0.008189387122029412
