freq,gls,usurper,pdc_unbiased,shape_periodogram,shift_periodogram
1.5,0.031605246424144244,0.03373150021719942,0.022003088454338578,0.04954885473539936,-0.02497930513335269
1.5000715171549266,0.028595336453250155,0.027073676809572643,0.01679692217781675,0.04257565973581705,-0.02277770643149066
1.5001430343098532,0.024797888546036324,0.021266921835673906,0.011419584810450916,0.03691391308556457,-0.02170955155521125
1.5002145514647798,0.020789812632417533,0.019178513413963396,0.008796510756732951,0.03175410924713264,-0.01931424021128125
1.5002860686197064,0.017345459787468324,0.021359356034456586,0.009479677332466734,0.02871792442711404,-0.0165145846390842
1.500357585774633,0.015271945925960987,0.02542022064321481,0.011714688134418397,0.027169017889377978,-0.01390810822931593
1.5004291029295596,0.015165201318802408,0.03032829817006488,0.01415548030345099,0.029965577999371582,-0.014568975293157545
1.5005006200844861,0.01716595655706576,0.03463398988085144,0.016954003693511403,0.030405946810140413,-0.013164641105936297
1.5005721372394127,0.02086274426290797,0.03748288951221497,0.019187221778694714,0.028489700770165063,-0.010271377876041201
1.5006436543943393,0.02544081002802935,0.04004539413858232,0.02137618975240262,0.027043767903589207,-0.007773223745697355
1.500715171549266,0.03000884122307953,0.04317559670379289,0.02421994995090846,0.026905699286620063,-0.0058875734588319665
1.5007866887041925,0.03391266896856934,0.04731777356388547,0.02666061786266369,0.032350369069748426,-0.008616673855481042
1.500858205859119,0.0368882624749449,0.052499074290851405,0.029368029530911475,0.04224003283109816,-0.014655598249536267
1.5009297230140457,0.0390355018056212,0.058710776696003504,0.03287087235373193,0.05714910895168087,-0.024130605621208206
1.5010012401689723,0.04067274274449097,0.0620076398776536,0.0349635290275476,0.0724835856216991,-0.0348366153070446
1.5010727573238989,0.04213722341942038,0.0635859300826639,0.036798409825528795,0.0846203900947082,-0.04321219683379448
1.5011442744788255,0.043587855733941964,0.06456623652978083,0.03793328428010061,0.09458940722336069,-0.05033564381829345
1.501215791633752,0.044880915226329254,0.06462078158993231,0.03824814004694497,0.10028704374690785,-0.05462075813848121
1.5012873087886787,0.045592465454410994,0.06548893051548835,0.03896037083855539,0.10270234997605404,-0.05607596122916498
1.5013588259436053,0.04519857422015515,0.064746655721783,0.038338310339186395,0.10290050855081949,-0.056621514753541276
1.5014303430985318,0.04331902735671992,0.06114373467122491,0.03525172960142179,0.10094343747845337,-0.057013086611802495
1.5015018602534584,0.03989064242203222,0.05349139936985581,0.029380562295107576,0.09584354679496444,-0.056673254936646676
1.501573377408385,0.035207008956161204,0.04448889621232642,0.02275340008029923,0.08940697686615443,-0.055755387095726874
1.5016448945633116,0.029854908046904056,0.03619033478743911,0.01716592382272006,0.08141532201601005,-0.05296969051302914
1.5017164117182382,0.02460404968418353,0.029140989247034146,0.01272729457488559,0.07289064645549438,-0.049054134709714176
1.5017879288731648,0.020274028275387688,0.0247850556901625,0.010756457121333964,0.06448694741050694,-0.04369917170150938
1.5018594460280914,0.01756978332877583,0.022465673417827986,0.009814843547662735,0.058291268629714794,-0.03943530079931342
1.501930963183018,0.016887968997375314,0.02117944640579457,0.009773529530205848,0.049008775248454296,-0.03219663239036085
1.5020024803379446,0.018154766828972088,0.01912699700139282,0.009545857603491862,0.03783366135754744,-0.023598845348270156
1.5020739974928712,0.020807783027131654,0.018387011455007176,0.00997328939183271,0.02732631242821827,-0.01511873726134258
1.5021455146477978,0.023992628107040868,0.020018678941897745,0.01144212206274167,0.02161837860904168,-0.009741061992792439
1.5022170318027244,0.026898257150269028,0.024412873209188925,0.014028974316248104,0.023524725354802784,-0.00961460331557074
1.502288548957651,0.029041972437567,0.029723325230108316,0.016679671046279716,0.03108722557598254,-0.01386856121217224
1.5023600661125776,0.03036170293294545,0.03607978885320683,0.019990738498687276,0.04395841125315879,-0.02186340421857949
1.5024315832675041,0.031115659296329378,0.0385345321500032,0.02077896981185265,0.058760140630277416,-0.0329548810190732
1.5025031004224307,0.031680428730509906,0.03734818165727234,0.019519808615351825,0.06969716728798354,-0.04231000941797426
1.5025746175773573,0.032340192227813126,0.03478823809184571,0.018649627815208736,0.07528816475055848,-0.04723691351698717
1.502646134732284,0.033131945974426154,0.03232207492037277,0.017871043624403338,0.07453960583606757,-0.04713609665220852
1.5027176518872105,0.033797027787609374,0.03139307376663599,0.01799769758677829,0.07084191502466332,-0.04415800550357259
1.502789169042137,0.033871437590867574,0.029611812054232894,0.017486670760106647,0.06587896646345756,-0.040587811624310605
1.5028606861970637,0.03289397904446062,0.026039380156267375,0.015274482970942199,0.05989661064949821,-0.03728358319344837
1.5029322033519903,0.030638444170610023,0.022152501853705202,0.012011118949132128,0.05500349385615317,-0.035490615162621274
1.5030037205069169,0.02725242384486997,0.020007488570797722,0.009441040885373031,0.05160416911471912,-0.03443488305928682
1.5030752376618435,0.023245599290448483,0.021276110086256576,0.008606550278537486,0.050813693807972155,-0.03433731339568236
1.50314675481677,0.019358366958489085,0.024453857805472788,0.008953985446160287,0.05110118300415416,-0.03434536817911894
1.5032182719716967,0.01638051368297583,0.028604982582233963,0.010426555451109277,0.052076597823216095,-0.034189301476589044
1.5032897891266233,0.01497089818834955,0.032572847843203655,0.012350463029946239,0.05252121278071424,-0.03333598610065436
1.5033613062815498,0.015499460648454992,0.03523119957043518,0.013981854206916533,0.04955008107355674,-0.029992229902138973
1.5034328234364764,0.01793079665045714,0.034542784185859175,0.01416864675154985,0.04163677366843375,-0.02368541604749728
1.503504340591403,0.021792554285279486,0.03236245556517422,0.013806564009865633,0.030075650867431747,-0.014872986408845962
1.5035758577463296,0.026283745634476982,0.0335298842250933,0.015751292513310384,0.02142526211633995,-0.00689812866288659
1.5036473749012562,0.03053094650102892,0.03798262927208022,0.019003856556851165,0.020871838533558475,-0.0044333258756708
1.5037188920561828,0.03389868374654469,0.04508030147697482,0.02304438568669538,0.029280055622223543,-0.008478081960623109
1.5037904092111094,0.03619247413189749,0.055003555436187825,0.02836367437687625,0.04694605191150049,-0.018965195430769747
1.503861926366036,0.03764566473947448,0.06352513424441686,0.03246316988130233,0.06896981530110084,-0.03364683443489255
1.5039334435209626,0.038716510453014726,0.06875884417508572,0.03408384953452373,0.0897289326664875,-0.048924773005748545
1.5040049606758892,0.0398171228344044,0.07198582907135788,0.03557140334761458,0.10578576558045409,-0.060625451659050124
1.5040764778308158,0.041095739566223526,0.07609173039829072,0.037525773851031737,0.1157316060814363,-0.06724197466260114
1.5041479949857424,0.04234364882306056,0.07923002585763254,0.038887791087543686,0.11881244428479106,-0.06882060542688023
1.504219512140669,0.043051695709888996,0.0799755067098702,0.03921573232033744,0.11655970898631132,-0.06683758984181318
1.5042910292955955,0.04260283060723393,0.07490307672552192,0.036347749549566495,0.11006807117733536,-0.06351350204331532
1.5043625464505221,0.04053910287302065,0.06397240562924243,0.030363706364527798,0.09968701844970841,-0.05908175809419368
1.5044340636054487,0.03679439695722014,0.0505531609819725,0.02344001313236871,0.08723845784541345,-0.053623256290889314
1.5045055807603753,0.03178229372791513,0.03892769676673065,0.01698689592080203,0.07742434790265774,-0.04995046598891662
1.504577097915302,0.026296542555493532,0.03096679491242177,0.012446934359831944,0.06937630270241593,-0.04647469172397499
1.5046486150702285,0.021278189004975218,0.028217520575031685,0.011187449324425095,0.06488970069994611,-0.043745657169536746
1.504720132225155,0.017555651134353225,0.027559955182192376,0.011283372248322305,0.062173164829374315,-0.04155816818732457
1.5047916493800817,0.01564621916050789,0.026451443692023104,0.010644076718018416,0.05919921082226628,-0.03962852817699493
1.5048631665350083,0.015656872938766518,0.023680716587052075,0.009217644422453899,0.051750969019154956,-0.0346892104218972
1.5049346836899349,0.017286051262519187,0.02088106108556254,0.008230188330603324,0.04038829480160941,-0.026417844624894923
1.5050062008448615,0.019918755698584013,0.01939739777426313,0.007905738300784866,0.029191475862001673,-0.017867645242344517
1.505077717999788,0.022804926807040774,0.02028331099781274,0.009361654152707073,0.019863428137261486,-0.009669406543369325
1.5051492351547147,0.025289013466251117,0.024416506050621328,0.011726326065843064,0.019386639754107437,-0.007819870223665086
1.5052207523096413,0.027015644551186973,0.02957583893658938,0.014241445734319206,0.02698019305882534,-0.012182081629870717
1.5052922694645678,0.028012475009877,0.03311874144024792,0.015961322224474977,0.038029838530804716,-0.019744908444446714
1.5053637866194944,0.028596359216805502,0.031736534467169626,0.014919408532213189,0.049702507773924244,-0.02952589369800211
1.505435303774421,0.02915112616185344,0.027222934794500678,0.013309044659559194,0.05891142849712381,-0.037739487002306754
1.5055068209293476,0.029900153036102176,0.023911810905946063,0.012321918805932341,0.06422312411299888,-0.042515444532254136
1.5055783380842742,0.030782681811496897,0.02343666919293938,0.01250866989698158,0.06510812505686912,-0.043092103943340086
1.5056498552392008,0.03146961942071043,0.02521628751271784,0.013496870470295333,0.06398592740941503,-0.041596182810405294
1.5057213723941274,0.03149161794629547,0.02576238125527108,0.013134126432083434,0.06165432990095968,-0.03999651839647351
1.505792889549054,0.030427310908792447,0.024734305167216586,0.011855838401314541,0.05673147966245724,-0.03694015987561587
1.5058644067039806,0.02809465201809536,0.022032896105983062,0.009674998552531539,0.049547666938179614,-0.03267975835713824
1.5059359238589072,0.024683284499830333,0.01793522694244959,0.006168765257997816,0.043359675526359075,-0.03002840182288119
1.5060074410138338,0.020766913938386953,0.015346837969137616,0.003987129865862614,0.03836175014030056,-0.027482350825640038
1.5060789581687604,0.017165658691511196,0.016328526817546,0.004506773893992003,0.03553806226467735,-0.024950546913999443
1.506150475323687,0.014695536880755058,0.018783716403543795,0.005603202541494299,0.03468305869993451,-0.023597666382855473
1.5062219924786135,0.013907828977730352,0.02084204795828421,0.006474304461408025,0.03367701437554274,-0.022267372842759436
1.5062935096335401,0.014929925183180436,0.02078248879544185,0.007024475314287043,0.028864893074016906,-0.018162747562119733
1.5063650267884667,0.01746107614733839,0.01865480425997285,0.006681651925523114,0.019938044165789696,-0.011401501852002392
1.5064365439433933,0.020900617081537138,0.018980315328535672,0.008103902228742074,0.011578722518754175,-0.003982953774617157
1.50650806109832,0.024545654709518663,0.022094119826465326,0.01119024144466396,0.006203747921987181,0.0021430316944857472
1.5065795782532465,0.027795889555703463,0.02875834586231136,0.015188716512202768,0.009411051551017964,0.002135616011897452
1.506651095408173,0.030315638754338018,0.038181411661431165,0.02020329875354711,0.018825328346056783,-0.002084896992928956
1.5067226125630997,0.03210575674634778,0.04832665069883021,0.02516307524326057,0.03358203319493956,-0.010515937399800916
1.5067941297180263,0.03344435853615213,0.0551647131976247,0.02809340030703321,0.0496062474333483,-0.021215762531660375
1.5068656468729529,0.03469846610783441,0.05719121658446082,0.028836225363534616,0.062283949534842724,-0.03067701242522818
1.5069371640278795,0.03608805388876267,0.05735744113882382,0.029158238083419115,0.07010222146872812,-0.036602538282229063
1.507008681182806,0.03753193323000867,0.05765932021164217,0.029645090979329304,0.07358414532532946,-0.03902822948815899
1.5070801983377327,0.038657419159163646,0.057520713464755874,0.03000532215028713,0.07069608237792287,-0.0365382005141522
1.5071517154926592,0.038950459296790155,0.05595309462375262,0.029635790998015537,0.06570813611789426,-0.03285967356086669
1.5072232326475858,0.03795818995272562,0.050195986567885494,0.026170643808596194,0.058531018049401994,-0.029404833382792255
1.5072947498025124,0.035465807062779846,0.04292384406004735,0.02167628316777021,0.04923800801401686,-0.024940350522791394
1.507366266957439,0.03160750390290827,0.0369066378887382,0.01779655130545853,0.04132661132216416,-0.021176217364602738
1.5074377841123656,0.02689036393457737,0.031861376434470574,0.014369878001425985,0.03585254506379136,-0.019036846673387394
1.5075093012672922,0.022110982309926926,0.027792458655736336,0.012274203971852665,0.03259989058967494,-0.01780325607673633
1.5075808184222188,0.018158898886019043,0.025449157511369995,0.010838451012952628,0.032489158558277345,-0.018613495699927336
1.5076523355771454,0.015750547010193554,0.024129966456877993,0.009985828883372298,0.03292058078227229,-0.019483242480142972
1.507723852732072,0.015198153002695225,0.02098392150318714,0.008495434228764531,0.029815205774128023,-0.017986847501429277
1.5077953698869986,0.01632710132796861,0.016124783699481816,0.006411917338543193,0.02168409216652219,-0.012934135273919622
1.5078668870419252,0.01858159605132472,0.012071031342717174,0.00521914285473996,0.012432518438676491,-0.00645150887427304
1.5079384041968518,0.02125563485920751,0.00938137387082007,0.005152249488431391,0.003857306154396304,0.0002047341022451279
1.5080099213517784,0.023737553869918368,0.008758607037824953,0.0057615299185219465,0.00039082772293018306,0.0032926957951957703
1.508081438506705,0.025680396681245936,0.010711945216634067,0.007453924502377228,0.002655427472866513,0.0025808740486900914
1.5081529556616315,0.027059576075294776,0.013160135149659859,0.008842952470356694,0.009854299628596021,-0.002174396634782219
1.5082244728165581,0.028112039179855254,0.013455923958372976,0.008942296206187028,0.01816679708522089,-0.008605812009976413
1.5082959899714847,0.029172386947160022,0.012330512854364236,0.008780907310022895,0.025583281320285582,-0.014501356517868337
1.5083675071264113,0.03045818310099522,0.012983952770592758,0.010026451111954632,0.031950143542455296,-0.01869932796580109
1.508439024281338,0.03190386747651281,0.017199693296788904,0.012747040105629182,0.03748100673599834,-0.02132379483912389
1.5085105414362645,0.03314377564440417,0.022929446142825684,0.01600259242207933,0.04055213714956974,-0.02169146861670178
1.508582058591191,0.03366149064758627,0.027528401619327496,0.0186299276568245,0.04197236063969596,-0.021160466850280005
1.5086535757461177,0.03301661123576188,0.02707709073573136,0.017302793300784304,0.040864214351078315,-0.02112313171790298
1.5087250929010443,0.031031763736761156,0.02277491875126286,0.013978643770450466,0.036157086379891575,-0.019519351621341916
1.5087966100559709,0.02787943173947238,0.017120328277769714,0.009773118861112214,0.028833917181416695,-0.016421963630476516
1.5088681272108975,0.024071143965329337,0.011900297291749691,0.005405399448016361,0.0228121888053366,-0.014444099948608624
1.508939644365824,0.020368522042175177,0.007970695156226766,0.002619426200917792,0.018502683298683886,-0.012816862279491279
1.5090111615207507,0.017622660517009992,0.006192380721569208,0.001280243020763253,0.0167571443546465,-0.012289454964748767
1.5090826786756772,0.016549556574789192,0.005774477508704678,0.001094148915450876,0.016468596081231416,-0.012180246358165956
1.5091541958306038,0.01749078347259404,0.005713070625606031,0.001728275756159572,0.01407796224776963,-0.009916798477795767
1.5092257129855304,0.02026609634215111,0.0057557195509722655,0.002622344403247119,0.009321331169269345,-0.0056429777823482795
1.509297230140457,0.024225306810832306,0.008315483140785123,0.005090188490138515,0.004081118215986192,-8.832260126937298e-06
1.5093687472953836,0.028505184243561566,0.015583261518847872,0.010396256019729185,0.002105809102343422,0.004847728136912657
1.5094402644503102,0.032363241212534366,0.026263583276619765,0.017181792517199104,0.005546884300810629,0.006398701746146122
1.5095117816052368,0.035420479974014,0.038537548156620464,0.023785576506019895,0.014389851976548788,0.003618795283363269
1.5095832987601634,0.03772295943106026,0.04819848689062112,0.028541189697550762,0.02512526660357335,-0.0017941892644580998
1.50965481591509,0.039632532833370364,0.051886397805617636,0.030196375009199177,0.03490659411853302,-0.008403181397503885
1.5097263330700166,0.041605230836871475,0.0482643364927918,0.028415936049993602,0.040633901385459165,-0.013995114188519998
1.5097978502249432,0.04392716574129624,0.04163929060966186,0.026087173799228647,0.039722838107670126,-0.014739241513548447
1.5098693673798698,0.04649881119729661,0.03745160056273259,0.025125670272120693,0.034826738434800115,-0.011512363441660829
1.5099408845347964,0.048782229516577,0.03714821912785995,0.025898717163670308,0.02974722211018732,-0.007058527262632078
1.510012401689723,0.04998265464348263,0.03949428848358392,0.027970420605425636,0.025629795827847916,-0.002545371243728838
1.5100839188446495,0.04939582665258717,0.03970537729532053,0.02744804663090382,0.022272757752670992,-0.00024918103514998835
1.5101554359995761,0.046726633743720845,0.037292812051473716,0.024915387052692306,0.01906379008624548,0.0006741591069093991
1.5102269531545027,0.04221494386441091,0.034547829352509066,0.022036546886626967,0.015510016272366674,0.0016506591970191894
1.5102984703094293,0.0365554045951188,0.033200190536663655,0.019143160662124768,0.01613391572480108,-0.0006449038276592393
1.510369987464356,0.030705701566729478,0.03359768677698164,0.01712115674686206,0.019095142069314237,-0.004221718432963982
1.5104415046192825,0.025671938650474672,0.035308831547168906,0.016152578444133103,0.024208361856618458,-0.008821998638529591
1.510513021774209,0.02230380117340663,0.037428789722727444,0.01595046449902194,0.029531030785683164,-0.013107870151020919
1.5105845389291357,0.02110478427342222,0.03595097455092747,0.014310671393420193,0.030150214911572024,-0.01461633107028909
1.5106560560840623,0.022087028251984653,0.03031029836601919,0.011927341615445858,0.02429498062091646,-0.01152937128960082
1.5107275732389889,0.02474352062355467,0.021132789047992335,0.008315005741078718,0.014081383159945502,-0.005806052697769914
1.5107990903939155,0.028206425428266402,0.013960638253633278,0.006455089330600415,0.004959793639833613,0.00015726604731447017
1.510870607548842,0.03156791810921427,0.010534142326683338,0.006924877381908108,0.00067154184653701,0.0037999564585983483
1.5109421247037687,0.034217944840168574,0.010938329241560824,0.0085255112555674,0.004387068354697982,0.0018976329956953471
1.5110136418586952,0.036025983655989566,0.015033697193116867,0.01161661354179527,0.014317229337684785,-0.003928085760008339
1.5110851590136218,0.03729532439305516,0.01787430243073034,0.013294021431409462,0.026717886462763442,-0.012568978427811048
1.5111566761685484,0.03854470610167679,0.01787459791543418,0.013163190298163863,0.039228397975043516,-0.0224301397513712
1.511228193323475,0.04022460916569971,0.017403030121659172,0.013651672900344249,0.04673783317106734,-0.02799824640670169
1.5112997104784016,0.04246467581659284,0.0183687008487265,0.01442102957265151,0.04932355125304671,-0.029540677981237815
1.5113712276333282,0.04493429586497486,0.022719787176554897,0.016921655013448497,0.04891444169222036,-0.027658460925383682
1.5114427447882548,0.04689231770787431,0.02752042223980691,0.019784155718843215,0.04553501820199333,-0.023225810267315673
1.5115142619431814,0.047454803887083834,0.029119132075279053,0.02007376929597759,0.04075898470249113,-0.01930915356499445
1.511585779098108,0.04599085839647899,0.025608923513800914,0.017243949592298295,0.035004951350360185,-0.016578478238234867
