freq,gls,usurper,pdc_unbiased,shape_periodogram,shift_periodogram
1.5,0.031605246424144244,0.03204081117986659,0.022003088454338578,0.027811073367757587,0.007482602481774581
1.5000715171549266,0.028595336453250155,0.02600798132114477,0.01679692217781675,0.02262127205448164,0.005096258716624312
1.5001430343098532,0.024797888546036324,0.02085804250075227,0.011419584810450916,0.018913651469893582,0.0019040947296439675
1.5002145514647798,0.020789812632417533,0.019368303904525788,0.008796510756732951,0.016337102842325084,0.0006863280802941759
1.5002860686197064,0.017345459787468324,0.021979868641750982,0.009479677332466734,0.015987119843438924,0.0014539901056679061
1.500357585774633,0.015271945925960987,0.026339423770563388,0.011714688134418397,0.017467896607751766,0.00280693623664133
1.5004291029295596,0.015165201318802408,0.03149276306732007,0.01415548030345099,0.0212846247278437,0.0033142012220781602
1.5005006200844861,0.01716595655706576,0.036309093653170164,0.016954003693511403,0.023737776853641063,0.004744717157144842
1.5005721372394127,0.02086274426290797,0.04010219404510604,0.019187221778694714,0.02552848775315598,0.00596027275915506
1.5006436543943393,0.02544081002802935,0.04341317855014847,0.02137618975240262,0.026777605980578784,0.007375359218702409
1.500715171549266,0.03000884122307953,0.04701260957644748,0.02421994995090846,0.027604404993406054,0.009565325814777911
1.5007866887041925,0.03391266896856934,0.05113655286247457,0.02666061786266369,0.03175798852040432,0.009926428692451776
1.500858205859119,0.0368882624749449,0.0558537129871879,0.029368029530911475,0.037372245752777984,0.009883773746869277
1.5009297230140457,0.0390355018056212,0.06100945610553836,0.03287087235373193,0.04486515292577282,0.009728784446431311
1.5010012401689723,0.04067274274449097,0.06281826300541789,0.0349635290275476,0.050962242876773665,0.00892179446435934
1.5010727573238989,0.04213722341942038,0.06281742743375572,0.036798409825528795,0.05515230398919342,0.008724622049692777
1.5011442744788255,0.043587855733941964,0.0623483495904781,0.03793328428010061,0.058088671202770115,0.008450665877336712
1.501215791633752,0.044880915226329254,0.06133656530520067,0.03824814004694497,0.05999719291297748,0.007891779049864439
1.5012873087886787,0.045592465454410994,0.061688502884728345,0.03896037083855539,0.061977676772606835,0.007659088849339177
1.5013588259436053,0.04519857422015515,0.060785542512586936,0.038338310339186395,0.061471437465895555,0.00732210517287126
1.5014303430985318,0.04331902735671992,0.057272615627149255,0.03525172960142179,0.060655885860519065,0.004901702171112588
1.5015018602534584,0.03989064242203222,0.05000757540697406,0.029380562295107576,0.05810619093681585,0.0007418437423877492
1.501573377408385,0.035207008956161204,0.04140086439585193,0.02275340008029923,0.05512774803568843,-0.0039045396935045184
1.5016448945633116,0.029854908046904056,0.03356723835804084,0.01716592382272006,0.05024074173567812,-0.006768069054722397
1.5017164117182382,0.02460404968418353,0.02680104668039968,0.01272729457488559,0.04458602903796067,-0.008257279833114074
1.5017879288731648,0.020274028275387688,0.022591129524995913,0.010756457121333964,0.039428928596352476,-0.007748782786202067
1.5018594460280914,0.01756978332877583,0.020350098597024403,0.009814843547662735,0.03620426080284237,-0.007169892408413416
1.501930963183018,0.016887968997375314,0.019454674537354666,0.009773529530205848,0.032138568650660886,-0.005411349213803687
1.5020024803379446,0.018154766828972088,0.018200800640996252,0.009545857603491862,0.02772727180971219,-0.003668052934962375
1.5020739974928712,0.020807783027131654,0.018429919840754084,0.00997328939183271,0.024322453548339725,-0.0017813180653708167
1.5021455146477978,0.023992628107040868,0.020906894197264218,0.01144212206274167,0.022729801869397652,0.0002403251872519335
1.5022170318027244,0.026898257150269028,0.02546498317456911,0.014028974316248104,0.02412144989847309,0.0019488357170059807
1.502288548957651,0.029041972437567,0.030384390118815913,0.016679671046279716,0.027201192954960776,0.002970134248212641
1.5023600661125776,0.03036170293294545,0.035829749976163304,0.019990738498687276,0.031613842252519085,0.00399697757889189
1.5024315832675041,0.031115659296329378,0.037143322588199336,0.02077896981185265,0.03531861934490896,0.003070131233398388
1.5025031004224307,0.031680428730509906,0.03476291929746995,0.019519808615351825,0.03723385053774031,0.0010933037701928894
1.5025746175773573,0.032340192227813126,0.031120923581210453,0.018649627815208736,0.03624240965820976,0.0007491412528314169
1.502646134732284,0.033131945974426154,0.02821372954338178,0.017871043624403338,0.03332228437127809,0.0013387256590382901
1.5027176518872105,0.033797027787609374,0.02749010797815285,0.01799769758677829,0.0313202695612819,0.002336146588181363
1.502789169042137,0.033871437590867574,0.026192916124602623,0.017486670760106647,0.028190465452444163,0.0032583710700936977
1.5028606861970637,0.03289397904446062,0.023305301725120336,0.015274482970942199,0.025606945061279664,0.002411725558334322
1.5029322033519903,0.030638444170610023,0.01998786479120898,0.012011118949132128,0.02390145359265325,0.00023411100404880842
1.5030037205069169,0.02725242384486997,0.018261362826276266,0.009441040885373031,0.02348728399231796,-0.0018905363992552855
1.5030752376618435,0.023245599290448483,0.019869580594914664,0.008606550278537486,0.02443507170310927,-0.0030580570657212846
1.50314675481677,0.019358366958489085,0.023188395812934002,0.008953985446160287,0.025863678892118984,-0.0033767585689210683
1.5032182719716967,0.01638051368297583,0.027147685165722205,0.010426555451109277,0.027058613145993095,-0.0025821253117054924
1.5032897891266233,0.01497089818834955,0.03091656733418195,0.012350463029946239,0.02805048171722262,-0.0012924592780620761
1.5033613062815498,0.015499460648454992,0.033831664726352496,0.013981854206916533,0.02788738689940737,0.00024450043894459934
1.5034328234364764,0.01793079665045714,0.033962376347816126,0.01416864675154985,0.024784221638042506,0.0017817753654222274
1.503504340591403,0.021792554285279486,0.03292133797489741,0.013806564009865633,0.02074745749161995,0.0032379414466276926
1.5035758577463296,0.026283745634476982,0.03496492888629615,0.015751292513310384,0.018884791373449086,0.005805805509948712
1.5036473749012562,0.03053094650102892,0.03965455481985172,0.019003856556851165,0.022046471441218834,0.007331678552723179
1.5037188920561828,0.03389868374654469,0.04625350129269223,0.02304438568669538,0.029184142456941335,0.007812371122777622
1.5037904092111094,0.03619247413189749,0.054913622819186575,0.02836367437687625,0.03744963596632883,0.008946684282158753
1.503861926366036,0.03764566473947448,0.061518160327150996,0.03246316988130233,0.045558044605756014,0.00905630932014657
1.5039334435209626,0.038716510453014726,0.06462957517391604,0.03408384953452373,0.05377517295316556,0.00688842577754136
1.5040049606758892,0.0398171228344044,0.06602273755125941,0.03557140334761458,0.060193777925229244,0.005393741261027674
1.5040764778308158,0.041095739566223526,0.06890113805124667,0.037525773851031737,0.06539294878923932,0.004857834583882725
1.5041479949857424,0.04234364882306056,0.07180965766379248,0.038887791087543686,0.06984893532534953,0.004116448949807447
1.504219512140669,0.043051695709888996,0.07300338014403558,0.03921573232033744,0.07293461667477873,0.0030480703763696815
1.5042910292955955,0.04260283060723393,0.06898910427560433,0.036347749549566495,0.07363248891764938,0.0001532120124624664
1.5043625464505221,0.04053910287302065,0.05917284450935808,0.030363706364527798,0.07089708139304808,-0.00402952477770264
1.5044340636054487,0.03679439695722014,0.04662382390940049,0.02344001313236871,0.06455383584140505,-0.007456197814177687
1.5045055807603753,0.03178229372791513,0.03550913453955223,0.01698689592080203,0.05867909568498924,-0.010661258480866057
1.504577097915302,0.026296542555493532,0.027731420840329812,0.012446934359831944,0.053369388105343564,-0.01239302262066869
1.5046486150702285,0.021278189004975218,0.02466060869945098,0.011187449324425095,0.04898785024556636,-0.011586771279420744
1.504720132225155,0.017555651134353225,0.02347701049593974,0.011283372248322305,0.045594932961816964,-0.010000450900555633
1.5047916493800817,0.01564621916050789,0.021995720425846257,0.010644076718018416,0.042524022432505026,-0.00921739010985672
1.5048631665350083,0.015656872938766518,0.019579605907556676,0.009217644422453899,0.0378541206798711,-0.008435058045202231
1.5049346836899349,0.017286051262519187,0.018032334011856756,0.008230188330603324,0.03231795767628903,-0.006876379926527562
1.5050062008448615,0.019918755698584013,0.017850575209220527,0.007905738300784866,0.02698948531434293,-0.004814864880566967
1.505077717999788,0.022804926807040774,0.0198891562131971,0.009361654152707073,0.02299937671581341,-0.0017464594324555069
1.5051492351547147,0.025289013466251117,0.02481787565754368,0.011726326065843064,0.025122450069626854,-0.0005604767161801287
1.5052207523096413,0.027015644551186973,0.030047467108672905,0.014241445734319206,0.028584350967562427,0.00016999540485333617
1.5052922694645678,0.028012475009877,0.033037271546821026,0.015961322224474977,0.03021888376977213,0.0009931595178881308
1.5053637866194944,0.028596359216805502,0.03058177910021353,0.014919408532213189,0.029358475232404195,0.0004371635994458715
1.505435303774421,0.02915112616185344,0.024709009511790708,0.013309044659559194,0.025731173757228935,0.0005919932781837274
1.5055068209293476,0.029900153036102176,0.020245161208359685,0.012321918805932341,0.022509822733444162,0.0011273053575889906
1.5055783380842742,0.030782681811496897,0.019333793383422164,0.01250866989698158,0.020623899893729897,0.002127185874798134
1.5056498552392008,0.03146961942071043,0.021223783789338195,0.013496870470295333,0.021103949991015312,0.002802588670886575
1.5057213723941274,0.03149161794629547,0.022298959134373568,0.013134126432083434,0.0224016611194752,0.0019042723644462774
1.505792889549054,0.030427310908792447,0.02218465003000545,0.011855838401314541,0.024344255791211664,-0.00010073359639570071
1.5058644067039806,0.02809465201809536,0.020563606986551033,0.009674998552531539,0.024506032072045686,-0.002130151603792566
1.5059359238589072,0.024683284499830333,0.017397130320242555,0.006168765257997816,0.024369673988676573,-0.005217641288215778
1.5060074410138338,0.020766913938386953,0.015288034711541925,0.003987129865862614,0.023884509473730657,-0.006961805742180947
1.5060789581687604,0.017165658691511196,0.0162386079479909,0.004506773893992003,0.023109431020193447,-0.006153199649609648
1.506150475323687,0.014695536880755058,0.01833192698401447,0.005603202541494299,0.02310400596147472,-0.005166612222375389
1.5062219924786135,0.013907828977730352,0.019877369197217137,0.006474304461408025,0.02261739346700156,-0.004169861075546376
1.5062935096335401,0.014929925183180436,0.019590432917835597,0.007024475314287043,0.019213981245441204,-0.002173848301770773
1.5063650267884667,0.01746107614733839,0.017822616150750897,0.006681651925523114,0.015296070477744157,-0.0007525915570505391
1.5064365439433933,0.020900617081537138,0.018390190009899367,0.008103902228742074,0.01181210187074551,0.0020612352128180265
1.50650806109832,0.024545654709518663,0.021815646252257234,0.01119024144466396,0.00866359672309672,0.006220443538098345
1.5065795782532465,0.027795889555703463,0.028355075770314795,0.015188716512202768,0.01124555931300344,0.008670556160622688
1.506651095408173,0.030315638754338018,0.03720475470191223,0.02020329875354711,0.016725311253607125,0.010755729782637596
1.5067226125630997,0.03210575674634778,0.04648269127754685,0.02516307524326057,0.02392829660617156,0.012033767106919767
1.5067941297180263,0.03344435853615213,0.051988774495801464,0.02809340030703321,0.03131941081741291,0.011407501438385417
1.5068656468729529,0.03469846610783441,0.05268439826510469,0.028836225363534616,0.03600224479968929,0.010009947627861905
1.5069371640278795,0.03608805388876267,0.05178408881881806,0.029158238083419115,0.03902551419003074,0.008965873288468103
1.507008681182806,0.03753193323000867,0.05154999249412934,0.029645090979329304,0.04230616612113571,0.00795628967485188
1.5070801983377327,0.038657419159163646,0.051564152989222095,0.03000532215028713,0.04440808344868566,0.007352791012448962
1.5071517154926592,0.038950459296790155,0.05039781124601186,0.029635790998015537,0.04482202548126211,0.006837751311203569
1.5072232326475858,0.03795818995272562,0.04551897662707682,0.026170643808596194,0.04492167222322422,0.0036774847841282428
1.5072947498025124,0.035465807062779846,0.03921445003877355,0.02167628316777021,0.043843604247428974,0.00011282793302380147
1.507366266957439,0.03160750390290827,0.03404777145023253,0.01779655130545853,0.04270470838099708,-0.0028711242449862605
1.5074377841123656,0.02689036393457737,0.02961977195374033,0.014369878001425985,0.04174493188267188,-0.005526094838399733
1.5075093012672922,0.022110982309926926,0.025618288649552245,0.012274203971852665,0.039875891586839685,-0.006582984114989555
1.5075808184222188,0.018158898886019043,0.022986508668017627,0.010838451012952628,0.0395097053279777,-0.007710826260117865
1.5076523355771454,0.015750547010193554,0.021483868103937084,0.009985828883372298,0.03836812534190113,-0.007972246149392714
1.507723852732072,0.015198153002695225,0.018417772248792444,0.008495434228764531,0.034645542948424486,-0.007666223685804189
1.5077953698869986,0.01632710132796861,0.014444187810224487,0.006411917338543193,0.028896262875378182,-0.006997871042365646
1.5078668870419252,0.01858159605132472,0.011577776311586702,0.00521914285473996,0.02236558853604078,-0.005185404120002907
1.5079384041968518,0.02125563485920751,0.009945310902816046,0.005152249488431391,0.014905590303045477,-0.001952997459628111
1.5080099213517784,0.023737553869918368,0.009922031180644471,0.0057615299185219465,0.010420927431805435,0.0005727196812185649
1.508081438506705,0.025680396681245936,0.012202002925813148,0.007453924502377228,0.008140709056809034,0.0030976930056761287
1.5081529556616315,0.027059576075294776,0.014475356645540305,0.008842952470356694,0.006996808957052226,0.004849010596718926
1.5082244728165581,0.028112039179855254,0.014146027946864153,0.008942296206187028,0.00578506655265163,0.005472753348242578
1.5082959899714847,0.029172386947160022,0.012293262958609984,0.008780907310022895,0.004906410781657654,0.005715542727217961
1.5083675071264113,0.03045818310099522,0.012281125126460853,0.010026451111954632,0.005064101833428388,0.006763828825015055
1.508439024281338,0.03190386747651281,0.01602590320441167,0.012747040105629182,0.00724244166723658,0.00824467206050072
1.5085105414362645,0.03314377564440417,0.021729133143124503,0.01600259242207933,0.010599729271651613,0.009686012256319054
1.508582058591191,0.03366149064758627,0.026394775301674216,0.0186299276568245,0.012937644848438,0.01101350858041184
1.5086535757461177,0.03301661123576188,0.026494969399134732,0.017302793300784304,0.01404672651889774,0.009332878533675133
1.5087250929010443,0.031031763736761156,0.022873034946744943,0.013978643770450466,0.01371282187854922,0.006495956047192394
1.5087966100559709,0.02787943173947238,0.0178426258040921,0.009773118861112214,0.011943770728412318,0.0035013720839421514
1.5088681272108975,0.024071143965329337,0.013106669720096463,0.005405399448016361,0.011343999366502868,-0.0001541975793324966
1.508939644365824,0.020368522042175177,0.00913083679976337,0.002619426200917792,0.009810801183929426,-0.00197802283888386
1.5090111615207507,0.017622660517009992,0.006861694622993158,0.001280243020763253,0.008907029094964339,-0.002781073215469476
1.5090826786756772,0.016549556574789192,0.005760050866023173,0.001094148915450876,0.009077890485296083,-0.0030234720881402717
1.5091541958306038,0.01749078347259404,0.005113577716627993,0.001728275756159572,0.007868386193364597,-0.0019207022928983076
1.5092257129855304,0.02026609634215111,0.005056345475162938,0.002622344403247119,0.004857203948175895,0.00021026609409739787
1.509297230140457,0.024225306810832306,0.007910200077640931,0.005090188490138515,0.0020798584032207567,0.003650343676808587
1.5093687472953836,0.028505184243561566,0.015121928991657348,0.010396256019729185,0.0012822593237262945,0.008764070192229311
1.5094402644503102,0.032363241212534366,0.025570215512074723,0.017181792517199104,0.003992683273183259,0.013658507579216743
1.5095117816052368,0.035420479974014,0.037289346424733104,0.023785576506019895,0.009377798109022875,0.017211939461435097
1.5095832987601634,0.03772295943106026,0.04601478783501757,0.028541189697550762,0.014114574505142242,0.019394207489779065
1.50965481591509,0.039632532833370364,0.048697415577260345,0.030196375009199177,0.01737990782888131,0.019441781957256956
1.5097263330700166,0.041605230836871475,0.0443332302105716,0.028415936049993602,0.018119435975418072,0.017516587176332914
1.5097978502249432,0.04392716574129624,0.03734716656772639,0.026087173799228647,0.014865964360381578,0.01685915778628676
1.5098693673798698,0.04649881119729661,0.033050952670039505,0.025125670272120693,0.011686802500927962,0.0173972172165131
1.5099408845347964,0.048782229516577,0.03287835238331406,0.025898717163670308,0.012034041548569904,0.01793828251801511
1.510012401689723,0.04998265464348263,0.035440114268372666,0.027970420605425636,0.013702938483393693,0.019063042496673017
1.5100839188446495,0.04939582665258717,0.03591622906648865,0.02744804663090382,0.015438396042109899,0.01782898588125701
1.5101554359995761,0.046726633743720845,0.03384683170287499,0.024915387052692306,0.01685789755752028,0.014928695291746764
1.5102269531545027,0.04221494386441091,0.03139912849825136,0.022036546886626967,0.018169601337344483,0.011765006383244538
1.5102984703094293,0.0365554045951188,0.030283754748298947,0.019143160662124768,0.02184470956192281,0.007545779046819707
1.510369987464356,0.030705701566729478,0.030908745118694746,0.01712115674686206,0.02660293767432431,0.0036306263490366816
1.5104415046192825,0.025671938650474672,0.032690220952405,0.016152578444133103,0.031051836561957393,0.0007972840900452615
1.510513021774209,0.02230380117340663,0.03490724586544283,0.01595046449902194,0.03525758390717217,-0.0012409361804230723
1.5105845389291357,0.02110478427342222,0.03395535398242252,0.014310671393420193,0.03579961528648895,-0.002953258159374047
1.5106560560840623,0.022087028251984653,0.02922283990888774,0.011927341615445858,0.030885056890391564,-0.0029237715851069463
1.5107275732389889,0.02474352062355467,0.021342570612625747,0.008315005741078718,0.02312218979415247,-0.0027402853946808295
1.5107990903939155,0.028206425428266402,0.015300047270217743,0.006455089330600415,0.01486638039212868,-0.0007663359739849781
1.510870607548842,0.03156791810921427,0.01257389272295938,0.006924877381908108,0.008426944211900102,0.0024965905073690495
1.5109421247037687,0.034217944840168574,0.013063806862566446,0.0085255112555674,0.005911720238236012,0.005042819606132497
1.5110136418586952,0.036025983655989566,0.01667423326466227,0.01161661354179527,0.005900863440851189,0.007821875337543908
1.5110851590136218,0.03729532439305516,0.018583206528947394,0.013294021431409462,0.006873652535942134,0.008898295452776442
1.5111566761685484,0.03854470610167679,0.017593789818536473,0.013163190298163863,0.008102758447761937,0.00823869545118274
1.511228193323475,0.04022460916569971,0.01643365842430632,0.013651672900344249,0.007159984108475025,0.009093007596572953
1.5112997104784016,0.04246467581659284,0.017144374430970142,0.01442102957265151,0.006867642956953033,0.00991250884836667
1.5113712276333282,0.04493429586497486,0.021668582971730226,0.016921655013448497,0.008297994434948063,0.011526207731368513
1.5114427447882548,0.04689231770787431,0.026982206895324302,0.019784155718843215,0.009952457446660434,0.013366199416609574
1.5115142619431814,0.047454803887083834,0.028926447360932358,0.02007376929597759,0.011123240773808945,0.013109909916445098
