freq,gls,usurper,pdc_unbiased,shape_periodogram,shift_periodogram
1.5,0.031605246424144244,0.032138184693489,0.022003088454338578,0.04766662672435916,-0.020365199742648124
1.5000715171549266,0.028595336453250155,0.025554668247709394,0.01679692217781675,0.039832905737708535,-0.018087807032492884
1.5001430343098532,0.024797888546036324,0.019907981977973933,0.011419584810450916,0.03396550587072906,-0.017380190122432606
1.5002145514647798,0.020789812632417533,0.01818961783629467,0.008796510756732951,0.029815899522140043,-0.0160838552035053
1.5002860686197064,0.017345459787468324,0.02084432726976498,0.009479677332466734,0.028981008565554963,-0.015006165834171074
1.500357585774633,0.015271945925960987,0.0254222771888445,0.011714688134418397,0.030132061184493013,-0.01434860780135298
1.5004291029295596,0.015165201318802408,0.030657397142407453,0.01415548030345099,0.034982346069909416,-0.016285479736189393
1.5005006200844861,0.01716595655706576,0.035532756661103386,0.016954003693511403,0.03875816771467695,-0.017187338707421774
1.5005721372394127,0.02086274426290797,0.03926868949965843,0.019187221778694714,0.042708137788194996,-0.018599824972084653
1.5006436543943393,0.02544081002802935,0.042562365978440646,0.02137618975240262,0.04699270817323834,-0.02029011986189452
1.500715171549266,0.03000884122307953,0.046044036901054686,0.02421994995090846,0.050374536977156596,-0.020870927018017512
1.5007866887041925,0.03391266896856934,0.050009407419564285,0.02666061786266369,0.05715412062993492,-0.024238828764946364
1.500858205859119,0.0368882624749449,0.05440728068924979,0.029368029530911475,0.06520151473306819,-0.02836815279543919
1.5009297230140457,0.0390355018056212,0.059251868111470075,0.03287087235373193,0.07481752749305202,-0.033127021903167506
1.5010012401689723,0.04067274274449097,0.06084805115731098,0.0349635290275476,0.0820174850281485,-0.037053370055273434
1.5010727573238989,0.04213722341942038,0.06091442762325307,0.036798409825528795,0.08630603801285137,-0.03899594152668213
1.5011442744788255,0.043587855733941964,0.060768343946922876,0.03793328428010061,0.09024017733337157,-0.04115054592005778
1.501215791633752,0.044880915226329254,0.06024698567872733,0.03824814004694497,0.09331584110923634,-0.04322358909526673
1.5012873087886787,0.045592465454410994,0.06112542131577961,0.03896037083855539,0.09752924214002462,-0.045874989830180894
1.5013588259436053,0.04519857422015515,0.060373509671990504,0.038338310339186395,0.09842299146481132,-0.0469611553015634
1.5014303430985318,0.04331902735671992,0.056770370383835436,0.03525172960142179,0.0970634225897411,-0.04803873476792706
1.5015018602534584,0.03989064242203222,0.04912797399507015,0.029380562295107576,0.09196144576399116,-0.048215264860866705
1.501573377408385,0.035207008956161204,0.040142223386324054,0.02275340008029923,0.08522159340295599,-0.047684992885864884
1.5016448945633116,0.029854908046904056,0.03198744546745469,0.01716592382272006,0.07665686336333656,-0.045100450242839006
1.5017164117182382,0.02460404968418353,0.025209904995607334,0.01272729457488559,0.06759656017242247,-0.04137869870914371
1.5017879288731648,0.020274028275387688,0.02121059770209912,0.010756457121333964,0.059492807430578706,-0.03670657702710409
1.5018594460280914,0.01756978332877583,0.019315990884358876,0.009814843547662735,0.054210976022170426,-0.03343254658520525
1.501930963183018,0.016887968997375314,0.018977796917158198,0.009773529530205848,0.04874093921760265,-0.029413788510653596
1.5020024803379446,0.018154766828972088,0.01832321797490996,0.009545857603491862,0.04424469195100225,-0.026242340789510925
1.5020739974928712,0.020807783027131654,0.019060830281129766,0.00997328939183271,0.0411771113717916,-0.023686064694724118
1.5021455146477978,0.023992628107040868,0.02173101730688765,0.01144212206274167,0.04082548025955071,-0.022435176944993803
1.5022170318027244,0.026898257150269028,0.026275693947102895,0.014028974316248104,0.04378631590737241,-0.022878716941814134
1.502288548957651,0.029041972437567,0.030983620788783018,0.016679671046279716,0.04837967223516921,-0.024486713971388244
1.5023600661125776,0.03036170293294545,0.035941805458111126,0.019990738498687276,0.053475155366669844,-0.026021213750141204
1.5024315832675041,0.031115659296329378,0.03654746828754799,0.02077896981185265,0.057094745263945056,-0.028167819655422574
1.5025031004224307,0.031680428730509906,0.03375132052607528,0.019519808615351825,0.057918920269489055,-0.02962807089690619
1.5025746175773573,0.032340192227813126,0.03011683453916319,0.018649627815208736,0.0558299500829708,-0.02866929852115377
1.502646134732284,0.033131945974426154,0.02745764401657472,0.017871043624403338,0.05240972230562822,-0.026663885375955806
1.5027176518872105,0.033797027787609374,0.02700093733949602,0.01799769758677829,0.05140285674269966,-0.025833438208318352
1.502789169042137,0.033871437590867574,0.025737585203205095,0.017486670760106647,0.04967629822095107,-0.0249011085710998
1.5028606861970637,0.03289397904446062,0.02258077443480094,0.015274482970942199,0.04663184993988647,-0.02414240363483594
1.5029322033519903,0.030638444170610023,0.018996854653161196,0.012011118949132128,0.04377341747451472,-0.024230746286720086
1.5030037205069169,0.02725242384486997,0.017078943157589243,0.009441040885373031,0.04195060401996887,-0.0246169342960409
1.5030752376618435,0.023245599290448483,0.018510865815826123,0.008606550278537486,0.0418184008293157,-0.025082106151897286
1.50314675481677,0.019358366958489085,0.021824884247432067,0.008953985446160287,0.04231744047652524,-0.02521668100410665
1.5032182719716967,0.01638051368297583,0.02599247720080278,0.010426555451109277,0.04308332810141613,-0.024789553381722486
1.5032897891266233,0.01497089818834955,0.029978180145286026,0.012350463029946239,0.04350813480154795,-0.023805640399946114
1.5033613062815498,0.015499460648454992,0.03306431475297307,0.013981854206916533,0.043163051527639926,-0.022449679528764397
1.5034328234364764,0.01793079665045714,0.033302849562961215,0.01416864675154985,0.04057726955161832,-0.02041192979773027
1.503504340591403,0.021792554285279486,0.03258433594357942,0.013806564009865633,0.03766285411389112,-0.01850199304585265
1.5035758577463296,0.026283745634476982,0.03511304179181997,0.015751292513310384,0.03776764138282257,-0.017266985768220007
1.5036473749012562,0.03053094650102892,0.04025381146451419,0.019003856556851165,0.042661542068544694,-0.018689170216835967
1.5037188920561828,0.03389868374654469,0.04717639881272227,0.02304438568669538,0.052226571960067095,-0.0230351948514305
1.5037904092111094,0.03619247413189749,0.05557383382673273,0.02836367437687625,0.06278964903296033,-0.027260533611116355
1.503861926366036,0.03764566473947448,0.06189636155434847,0.03246316988130233,0.07314117296421568,-0.03215968275635781
1.5039334435209626,0.038716510453014726,0.06487274741148835,0.03408384953452373,0.08186274376320225,-0.037533676621419265
1.5040049606758892,0.0398171228344044,0.06632718764886533,0.03557140334761458,0.08845623653567213,-0.041423620367294856
1.5040764778308158,0.041095739566223526,0.06954881458148311,0.037525773851031737,0.09392309960981017,-0.04416414020681172
1.5041479949857424,0.04234364882306056,0.07275543525467867,0.038887791087543686,0.09905810454760615,-0.047061710627597536
1.504219512140669,0.043051695709888996,0.07415013134924411,0.03921573232033744,0.10283234694658705,-0.049649131680631085
1.5042910292955955,0.04260283060723393,0.06964817441698828,0.036347749549566495,0.10212960407760566,-0.05106735951978555
1.5043625464505221,0.04053910287302065,0.059137474654914715,0.030363706364527798,0.09600116620684171,-0.050554327292756045
1.5044340636054487,0.03679439695722014,0.0459109184749134,0.02344001313236871,0.08515489810541459,-0.0471718548040871
1.5045055807603753,0.03178229372791513,0.03434114378092582,0.01698689592080203,0.07501714553564366,-0.044005241869612834
1.504577097915302,0.026296542555493532,0.026503178090269634,0.012446934359831944,0.06609826157668473,-0.04045783512034994
1.5046486150702285,0.021278189004975218,0.023722382466492654,0.011187449324425095,0.05922627627020143,-0.0362185809984957
1.504720132225155,0.017555651134353225,0.022962691917227367,0.011283372248322305,0.0535857581347314,-0.031979389064527096
1.5047916493800817,0.01564621916050789,0.021953766072316836,0.010644076718018416,0.0489322068200923,-0.028968029560921187
1.5048631665350083,0.015656872938766518,0.019895478918962352,0.009217644422453899,0.043099815772946685,-0.025617254874216608
1.5049346836899349,0.017286051262519187,0.018510129754349302,0.008230188330603324,0.038101704659910106,-0.02258864001718941
1.5050062008448615,0.019918755698584013,0.018548064613419124,0.007905738300784866,0.03421070873659329,-0.019931953553653167
1.505077717999788,0.022804926807040774,0.02082447461960756,0.009361654152707073,0.031620965075335725,-0.01703622593962617
1.5051492351547147,0.025289013466251117,0.02565067974894524,0.011726326065843064,0.035262933994053274,-0.0181320004698678
1.5052207523096413,0.027015644551186973,0.030415793217372353,0.014241445734319206,0.0400032950632207,-0.019938499453701134
1.5052922694645678,0.028012475009877,0.03275059280913094,0.015961322224474977,0.04250752279279651,-0.02062910633210727
1.5053637866194944,0.028596359216805502,0.02946213558512417,0.014919408532213189,0.04152165676506419,-0.020603431006764008
1.505435303774421,0.02915112616185344,0.023088741340121448,0.013309044659559194,0.03806258568844361,-0.019133176889449856
1.5055068209293476,0.029900153036102176,0.018628908559416735,0.012321918805932341,0.03473917975347378,-0.017343074668701542
1.5055783380842742,0.030782681811496897,0.01794749667292297,0.01250866989698158,0.0336728376676897,-0.016429069437724108
1.5056498552392008,0.03146961942071043,0.020248830604195082,0.013496870470295333,0.03636372920923231,-0.017750814281996038
1.5057213723941274,0.03149161794629547,0.021457542491182598,0.013134126432083434,0.03969158132301376,-0.02045531181666967
1.505792889549054,0.030427310908792447,0.02115782087765066,0.011855838401314541,0.041462999412047626,-0.02262733900729205
1.5058644067039806,0.02809465201809536,0.019160043974039025,0.009674998552531539,0.04075653780649044,-0.02357638557939524
1.5059359238589072,0.024683284499830333,0.015521952802074237,0.006168765257997816,0.03908632875759358,-0.024706804161147677
1.5060074410138338,0.020766913938386953,0.01327865578250901,0.003987129865862614,0.037286076968916115,-0.02484756968989924
1.5060789581687604,0.017165658691511196,0.014402115884582926,0.004506773893992003,0.035608557583686695,-0.023257443241841706
1.506150475323687,0.014695536880755058,0.01683217655263472,0.005603202541494299,0.0347881158310341,-0.021911704657061173
1.5062219924786135,0.013907828977730352,0.018862451987939118,0.006474304461408025,0.03330315009225531,-0.020226881491278277
1.5062935096335401,0.014929925183180436,0.01911664033567039,0.007024475314287043,0.029214036938168354,-0.01683459963244704
1.5063650267884667,0.01746107614733839,0.0179198359140919,0.006681651925523114,0.0253324269086646,-0.014198487842089628
1.5064365439433933,0.020900617081537138,0.019322575283546632,0.008103902228742074,0.02329338238043468,-0.01173297708969818
1.50650806109832,0.024545654709518663,0.023283296458344725,0.01119024144466396,0.02260024510939094,-0.009138794345683517
1.5065795782532465,0.027795889555703463,0.030170291926816004,0.015188716512202768,0.027946871615615387,-0.010389921545754726
1.506651095408173,0.030315638754338018,0.03923153738914505,0.02020329875354711,0.035915871767499684,-0.012893024583440002
1.5067226125630997,0.03210575674634778,0.04830917785769416,0.02516307524326057,0.0451277680325566,-0.0163531754496903
1.5067941297180263,0.03344435853615213,0.05358937143059608,0.02809340030703321,0.052541188204335024,-0.019856729405979736
1.5068656468729529,0.03469846610783441,0.05408947357069411,0.028836225363534616,0.05614015036871049,-0.02201797737018223
1.5069371640278795,0.03608805388876267,0.05312611341899119,0.029158238083419115,0.05721091734654901,-0.022592875068138618
1.507008681182806,0.03753193323000867,0.05295184014401756,0.029645090979329304,0.059082971424292315,-0.02364961633703296
1.5070801983377327,0.038657419159163646,0.05317105127775286,0.03000532215028713,0.060234862382995684,-0.024258936338380412
1.5071517154926592,0.038950459296790155,0.05204733110142569,0.029635790998015537,0.05960108578678084,-0.024039496930491986
1.5072232326475858,0.03795818995272562,0.04667268815745828,0.026170643808596194,0.05664859266488995,-0.02419571580452586
1.5072947498025124,0.035465807062779846,0.03982792569266568,0.02167628316777021,0.051492701946076545,-0.023416198073528273
1.507366266957439,0.03160750390290827,0.03419146059532662,0.01779655130545853,0.046582769295816756,-0.022403799499852068
1.5074377841123656,0.02689036393457737,0.029416201966893228,0.014369878001425985,0.04299478640470247,-0.022063419034588375
1.5075093012672922,0.022110982309926926,0.025272305387218842,0.012274203971852665,0.038891544939988656,-0.020444181215698517
1.5075808184222188,0.018158898886019043,0.022679762007876893,0.010838451012952628,0.03687557125097845,-0.019922855546498884
1.5076523355771454,0.015750547010193554,0.021080655782841885,0.009985828883372298,0.03455307570473336,-0.018781714182027003
1.507723852732072,0.015198153002695225,0.017998299640121326,0.008495434228764531,0.02950631017658345,-0.016058244168405688
1.5077953698869986,0.01632710132796861,0.013855474666924201,0.006411917338543193,0.02310165008580272,-0.012732753992911999
1.5078668870419252,0.01858159605132472,0.010818663637722527,0.00521914285473996,0.017270152672019753,-0.00923070317091606
1.5079384041968518,0.02125563485920751,0.009066896668668847,0.005152249488431391,0.011531335828066008,-0.005038298097801898
1.5080099213517784,0.023737553869918368,0.0089597577746311,0.0057615299185219465,0.008671942971103528,-0.0025161216483426713
1.508081438506705,0.025680396681245936,0.01086062287260785,0.007453924502377228,0.00857907272205261,-0.0013059198094785107
1.5081529556616315,0.027059576075294776,0.012594068197456296,0.008842952470356694,0.00964223816007784,-0.0011538366527705521
1.5082244728165581,0.028112039179855254,0.011838090551899185,0.008942296206187028,0.009643041304407903,-0.0010874111509678434
1.5082959899714847,0.029172386947160022,0.009727507669960804,0.008780907310022895,0.009601876665867877,-0.0011658933832203746
1.5083675071264113,0.03045818310099522,0.009740592344607701,0.010026451111954632,0.010509545296590275,-0.0009957690088082437
1.508439024281338,0.03190386747651281,0.013789027999381854,0.012747040105629182,0.01428908273108349,-0.0019508397616892627
1.5085105414362645,0.03314377564440417,0.019830419262153967,0.01600259242207933,0.020258382386092316,-0.004161875913220874
1.508582058591191,0.03366149064758627,0.024807334312663055,0.0186299276568245,0.026008344306257012,-0.006635257159260681
1.5086535757461177,0.03301661123576188,0.024576182668466305,0.017302793300784304,0.02834674440426442,-0.009258448826693251
1.5087250929010443,0.031031763736761156,0.0204891708935953,0.013978643770450466,0.027064990420182306,-0.010555090534500287
1.5087966100559709,0.02787943173947238,0.01512968570547927,0.009773118861112214,0.023325898483339956,-0.010630873609001725
1.5088681272108975,0.024071143965329337,0.010166142725058318,0.005405399448016361,0.020320603908262472,-0.011357762834358196
1.508939644365824,0.020368522042175177,0.006277997710971226,0.002619426200917792,0.01704796066303355,-0.010820176140746892
1.5090111615207507,0.017622660517009992,0.004407090954184551,0.001280243020763253,0.01600566941788999,-0.010953774421590005
1.5090826786756772,0.016549556574789192,0.0037432481540821557,0.001094148915450876,0.015726370778407352,-0.010873052727484518
1.5091541958306038,0.01749078347259404,0.0037330930879133496,0.001728275756159572,0.014040715004529875,-0.009200672942876227
1.5092257129855304,0.02026609634215111,0.004278697177524441,0.002622344403247119,0.011551282765712037,-0.006759515726972514
1.509297230140457,0.024225306810832306,0.007749181780546065,0.005090188490138515,0.010980845861645145,-0.004673707761594942
1.5093687472953836,0.028505184243561566,0.015844907557241588,0.010396256019729185,0.013205349666836494,-0.002736709644823727
1.5094402644503102,0.032363241212534366,0.026974927047805138,0.017181792517199104,0.018818087896302266,-0.002302427343228871
1.5095117816052368,0.035420479974014,0.03907109786276925,0.023785576506019895,0.026513818219428963,-0.0035277007372706555
1.5095832987601634,0.03772295943106026,0.047884000029523366,0.028541189697550762,0.03171353606381952,-0.0041563735428900945
1.50965481591509,0.039632532833370364,0.05028393624972687,0.030196375009199177,0.03359867038400253,-0.004430648820542372
1.5097263330700166,0.041605230836871475,0.0454186942388219,0.028415936049993602,0.03219799611236214,-0.004598905179876579
1.5097978502249432,0.04392716574129624,0.03806930179738191,0.026087173799228647,0.026279669732434195,-0.0018003539430341306
1.5098693673798698,0.04649881119729661,0.03389817488731219,0.025125670272120693,0.02040901580444084,0.0018856258847830553
1.5099408845347964,0.048782229516577,0.03418624726971471,0.025898717163670308,0.01875088123754762,0.0036319383678453947
1.510012401689723,0.04998265464348263,0.037252977990226054,0.027970420605425636,0.019562447144408922,0.004431861719895333
1.5100839188446495,0.04939582665258717,0.03789982202190048,0.02744804663090382,0.01980407236935413,0.0039006586307027795
1.5101554359995761,0.046726633743720845,0.03557471596651151,0.024915387052692306,0.018731593116253043,0.0029821728049617144
1.5102269531545027,0.04221494386441091,0.03284218798617431,0.022036546886626967,0.016733487305305345,0.0025137631493436876
1.5102984703094293,0.0365554045951188,0.03131027187718095,0.019143160662124768,0.017165746404220333,0.00024149118620807298
1.510369987464356,0.030705701566729478,0.0314733006663274,0.01712115674686206,0.01932279460310938,-0.002716051206791598
1.5104415046192825,0.025671938650474672,0.032790615709868645,0.016152578444133103,0.02244708717965024,-0.0056770536259091574
1.510513021774209,0.02230380117340663,0.03451649462730126,0.01595046449902194,0.02581203732822213,-0.008298825189437609
1.5105845389291357,0.02110478427342222,0.03298655049869571,0.014310671393420193,0.026031146866311996,-0.009567336676345685
1.5106560560840623,0.022087028251984653,0.02766817766129445,0.011927341615445858,0.021075928889592543,-0.007515662018193893
1.5107275732389889,0.02474352062355467,0.019294412650431428,0.008315005741078718,0.013904236542578396,-0.004656842684355344
1.5107990903939155,0.028206425428266402,0.012946758234964325,0.006455089330600415,0.007425655571581526,-0.0011281315563560143
1.510870607548842,0.03156791810921427,0.010000637726852373,0.006924877381908108,0.003513360424607073,0.0020771437087218955
1.5109421247037687,0.034217944840168574,0.010281930663462651,0.0085255112555674,0.0039215293319261315,0.0028555331347780506
1.5110136418586952,0.036025983655989566,0.0135792459646296,0.01161661354179527,0.0067036054790945284,0.0028869177197712982
1.5110851590136218,0.03729532439305516,0.015182494662322698,0.013294021431409462,0.009733724327085616,0.001781569706081157
1.5111566761685484,0.03854470610167679,0.013771502401880254,0.013163190298163863,0.013117938462804532,-0.000805324228651013
1.511228193323475,0.04022460916569971,0.01237371303026477,0.013651672900344249,0.014343673691842494,-0.0013807519806532697
1.5112997104784016,0.04246467581659284,0.013245613867556981,0.01442102957265151,0.01564224843984437,-0.001820447817256947
1.5113712276333282,0.04493429586497486,0.01827971892227093,0.016921655013448497,0.01961993360098582,-0.0030701231626135187
1.5114427447882548,0.04689231770787431,0.02422711387789743,0.019784155718843215,0.024296099481751723,-0.00459140113679
1.5115142619431814,0.047454803887083834,0.026834615310819692,0.02007376929597759,0.02678775749962732,-0.006236273649627626
