freq,gls,usurper,pdc_unbiased,shape_periodogram,shift_periodogram
1.5,0.031605246424144244,0.0337129243914533,0.022003088454338578,0.02362623696305022,0.005402623095202873
1.5000715171549266,0.028595336453250155,0.025983098636874737,0.01679692217781675,0.018671484252912634,0.0037731686827891155
1.5001430343098532,0.024797888546036324,0.01983852911025381,0.011419584810450916,0.015085869419881005,0.0012496481253484284
1.5002145514647798,0.020789812632417533,0.018239626204366807,0.008796510756732951,0.011989999633276013,0.0007593586423030056
1.5002860686197064,0.017345459787468324,0.02158879032704396,0.009479677332466734,0.010716262944904329,0.002030276223193176
1.500357585774633,0.015271945925960987,0.02718225619527075,0.011714688134418397,0.010928392322966954,0.003781270469599914
1.5004291029295596,0.015165201318802408,0.03354193437165339,0.01415548030345099,0.013695348036144684,0.004300304476699032
1.5005006200844861,0.01716595655706576,0.03922117397481506,0.016954003693511403,0.015484127987948204,0.0056562048213818755
1.5005721372394127,0.02086274426290797,0.04324974253093505,0.019187221778694714,0.01735306240369729,0.006495876222529031
1.5006436543943393,0.02544081002802935,0.04684216832847095,0.02137618975240262,0.019935157679353027,0.006906949709499412
1.500715171549266,0.03000884122307953,0.05067527685496695,0.02421994995090846,0.021212731763516672,0.008582792343403265
1.5007866887041925,0.03391266896856934,0.05563402151558253,0.02666061786266369,0.0254312130334717,0.008306042916654951
1.500858205859119,0.0368882624749449,0.06105352445680893,0.029368029530911475,0.030772179549045695,0.007636105274585526
1.5009297230140457,0.0390355018056212,0.06697676273451793,0.03287087235373193,0.037621249561993655,0.0068036897215478015
1.5010012401689723,0.04067274274449097,0.06898383871178052,0.0349635290275476,0.04289450833730067,0.005657202271289741
1.5010727573238989,0.04213722341942038,0.0690433766354476,0.036798409825528795,0.046314311301221996,0.005314032916588081
1.5011442744788255,0.043587855733941964,0.0689889067625611,0.03793328428010061,0.04947259311608959,0.004528179401145441
1.501215791633752,0.044880915226329254,0.06869771411313569,0.03824814004694497,0.052128010514715654,0.0033313666991766308
1.5012873087886787,0.045592465454410994,0.06998606291366229,0.03896037083855539,0.05472255797086942,0.0025009604571228075
1.5013588259436053,0.04519857422015515,0.0691434502264104,0.038338310339186395,0.05453428963643299,0.0020829391281670783
1.5014303430985318,0.04331902735671992,0.06489951583909953,0.03525172960142179,0.054295814098900975,-0.00037348892543843156
1.5015018602534584,0.03989064242203222,0.05597590421916618,0.029380562295107576,0.05144813032905638,-0.0037253629193170403
1.501573377408385,0.035207008956161204,0.04542234233818948,0.02275340008029923,0.04822313891707081,-0.007498653816936616
1.5016448945633116,0.029854908046904056,0.03577002793596558,0.01716592382272006,0.042637256916399274,-0.00909871419138595
1.5017164117182382,0.02460404968418353,0.027780458192128352,0.01272729457488559,0.036349086284715885,-0.009349949286014448
1.5017879288731648,0.020274028275387688,0.022759197331088294,0.010756457121333964,0.03092584783654406,-0.00801392897318663
1.5018594460280914,0.01756978332877583,0.02029129315724131,0.009814843547662735,0.027794522505683348,-0.00707868250477666
1.501930963183018,0.016887968997375314,0.019669975570567017,0.009773529530205848,0.024764412042081314,-0.005446863972191606
1.5020024803379446,0.018154766828972088,0.018707868376247275,0.009545857603491862,0.02229373674462164,-0.004278626750573557
1.5020739974928712,0.020807783027131654,0.019491744800438283,0.00997328939183271,0.020709643603774246,-0.003050476153449339
1.5021455146477978,0.023992628107040868,0.022764801958914158,0.01144212206274167,0.01999171549765492,-0.001428233335466318
1.5022170318027244,0.026898257150269028,0.028463251898064756,0.014028974316248104,0.021498933348697048,-9.470477566255936e-05
1.502288548957651,0.029041972437567,0.03412697930803024,0.016679671046279716,0.023821048690816846,0.0008445441838216862
1.5023600661125776,0.03036170293294545,0.039621282134832445,0.019990738498687276,0.026957545608061174,0.0018886886737294016
1.5024315832675041,0.031115659296329378,0.040096526601089845,0.02077896981185265,0.02883898184586001,0.001513500094926384
1.5025031004224307,0.031680428730509906,0.036686250188142436,0.019519808615351825,0.02950345294593492,9.51419896324501e-05
1.5025746175773573,0.032340192227813126,0.03200664749299562,0.018649627815208736,0.028386870698811795,-1.8592013612849364e-05
1.502646134732284,0.033131945974426154,0.028747424692262033,0.017871043624403338,0.026774196603138532,0.0002170576654683124
1.5027176518872105,0.033797027787609374,0.02813406899489231,0.01799769758677829,0.026513217197728665,0.00046644065747389037
1.502789169042137,0.033871437590867574,0.026826722813246807,0.017486670760106647,0.0249668796291993,0.0008893064236130328
1.5028606861970637,0.03289397904446062,0.023094491731359447,0.015274482970942199,0.023327679319361565,-5.8928563665566996e-05
1.5029322033519903,0.030638444170610023,0.01897068716362115,0.012011118949132128,0.022079069021431065,-0.0021002298151554274
1.5030037205069169,0.02725242384486997,0.016765809468122502,0.009441040885373031,0.021398792508739214,-0.003874170962699539
1.5030752376618435,0.023245599290448483,0.01870509070575035,0.008606550278537486,0.020837853147935598,-0.004263141632503022
1.50314675481677,0.019358366958489085,0.023133881536072386,0.008953985446160287,0.020573352554345826,-0.0038273763512884406
1.5032182719716967,0.01638051368297583,0.028669928122410013,0.010426555451109277,0.020369412442767142,-0.002484622364125927
1.5032897891266233,0.01497089818834955,0.033713420515880915,0.012350463029946239,0.02052894321189567,-0.0009644059915764616
1.5033613062815498,0.015499460648454992,0.03744326352600667,0.013981854206916533,0.02036517813296092,0.0004891616561877119
1.5034328234364764,0.01793079665045714,0.037702532531928845,0.01416864675154985,0.01839072186839559,0.001730622862589526
1.503504340591403,0.021792554285279486,0.03706565887848297,0.013806564009865633,0.016557691762120963,0.0024355247387499138
1.5035758577463296,0.026283745634476982,0.040457693116884096,0.015751292513310384,0.01730408301172845,0.003650702970778488
1.5036473749012562,0.03053094650102892,0.04724973621562758,0.019003856556851165,0.02140381416065447,0.004116349753410581
1.5037188920561828,0.03389868374654469,0.05627110236920462,0.02304438568669538,0.027903973931285422,0.00392220256649148
1.5037904092111094,0.03619247413189749,0.06649222346700412,0.02836367437687625,0.03469502691239592,0.004639318260614042
1.503861926366036,0.03764566473947448,0.0742899864774643,0.03246316988130233,0.040884491193309704,0.004668231940414253
1.5039334435209626,0.038716510453014726,0.07841031933179521,0.03408384953452373,0.04672055431925862,0.0028161070750737744
1.5040049606758892,0.0398171228344044,0.08046539778019915,0.03557140334761458,0.05056117725036986,0.0019497011366016506
1.5040764778308158,0.041095739566223526,0.08464486371507714,0.037525773851031737,0.05418595906406682,0.001593348208038363
1.5041479949857424,0.04234364882306056,0.08883168045174976,0.038887791087543686,0.058022806720702244,0.0006236582235479282
1.504219512140669,0.043051695709888996,0.09093801789007515,0.03921573232033744,0.06160737677974598,-0.0010749413175993902
1.5042910292955955,0.04260283060723393,0.08549332611979775,0.036347749549566495,0.06288812274959592,-0.004186178121239169
1.5043625464505221,0.04053910287302065,0.07257457266583034,0.030363706364527798,0.06064569865876561,-0.007967475183038903
1.5044340636054487,0.03679439695722014,0.05590127607734493,0.02344001313236871,0.05472452767815377,-0.01050444057253922
1.5045055807603753,0.03178229372791513,0.0412484381421956,0.01698689592080203,0.04907759314039231,-0.012794472301223422
1.504577097915302,0.026296542555493532,0.031320167176068045,0.012446934359831944,0.043612097295412953,-0.013581927713699763
1.5046486150702285,0.021278189004975218,0.027582540635233917,0.011187449324425095,0.03859662329563043,-0.011874151282960025
1.504720132225155,0.017555651134353225,0.026376564331255955,0.011283372248322305,0.03489775812869902,-0.009758545586164505
1.5047916493800817,0.01564621916050789,0.025109183291221332,0.010644076718018416,0.03221807246535927,-0.008818705573862553
1.5048631665350083,0.015656872938766518,0.0226387907883864,0.009217644422453899,0.028440368038192908,-0.007933027591797332
1.5049346836899349,0.017286051262519187,0.020804240215000293,0.008230188330603324,0.024631091705231117,-0.006663374404654273
1.5050062008448615,0.019918755698584013,0.020910329059604237,0.007905738300784866,0.021171819282256216,-0.005032403683275648
1.505077717999788,0.022804926807040774,0.023568515109277943,0.009361654152707073,0.01824403733430258,-0.0022061290476652257
1.5051492351547147,0.025289013466251117,0.029536435727878264,0.011726326065843064,0.020300196727992378,-0.0013602934701813184
1.5052207523096413,0.027015644551186973,0.035201364732691545,0.014241445734319206,0.02252513298803513,-0.00048125482347027404
1.5052922694645678,0.028012475009877,0.03760660990644426,0.015961322224474977,0.023028500711615888,0.0006797097804213063
1.5053637866194944,0.028596359216805502,0.03329907368627122,0.014919408532213189,0.021124951740154142,0.0008551739416463741
1.505435303774421,0.02915112616185344,0.025142788953232173,0.013309044659559194,0.017303884248394744,0.001609570395526183
1.5055068209293476,0.029900153036102176,0.019517062884888223,0.012321918805932341,0.014426062377866653,0.002366371412194425
1.5055783380842742,0.030782681811496897,0.01874614038142259,0.01250866989698158,0.013587287245235705,0.002983443010058276
1.5056498552392008,0.03146961942071043,0.02198151020135045,0.013496870470295333,0.015635985027031722,0.002683295538559953
1.5057213723941274,0.03149161794629547,0.02402081167279924,0.013134126432083434,0.01832584036434158,0.0009016390712775366
1.505792889549054,0.030427310908792447,0.023707736604902902,0.011855838401314541,0.021232560891853013,-0.0017646233042934922
1.5058644067039806,0.02809465201809536,0.02118271857370896,0.009674998552531539,0.022637278928086414,-0.00435958920542822
1.5059359238589072,0.024683284499830333,0.016990616690643116,0.006168765257997816,0.022569145243791736,-0.007252192290853339
1.5060074410138338,0.020766913938386953,0.014335911379445569,0.003987129865862614,0.021312095831566184,-0.008383922472943204
1.5060789581687604,0.017165658691511196,0.015524289320686542,0.004506773893992003,0.019581009571981972,-0.006997931373261823
1.506150475323687,0.014695536880755058,0.018552991329383605,0.005603202541494299,0.019071525182860954,-0.005801685102551215
1.5062219924786135,0.013907828977730352,0.021255913785278437,0.006474304461408025,0.018318387596421175,-0.004659750369723432
1.5062935096335401,0.014929925183180436,0.021763858545649245,0.007024475314287043,0.01577232875476013,-0.002800367342895267
1.5063650267884667,0.01746107614733839,0.02068280982840887,0.006681651925523114,0.014321806532334445,-0.002289464215732323
1.5064365439433933,0.020900617081537138,0.02289754617908094,0.008103902228742074,0.013735628205797263,-0.0007788621809771822
1.50650806109832,0.024545654709518663,0.02815151680260555,0.01119024144466396,0.012910717187262768,0.00225353270247371
1.5065795782532465,0.027795889555703463,0.037361860760511754,0.015188716512202768,0.016035289354284873,0.0038778303370280934
1.506651095408173,0.030315638754338018,0.04916369852745748,0.02020329875354711,0.0205007047829528,0.005615508591810101
1.5067226125630997,0.03210575674634778,0.06061925476486697,0.02516307524326057,0.025922017911525742,0.0067836732730548015
1.5067941297180263,0.03344435853615213,0.06747525411188086,0.02809340030703321,0.030556181013789808,0.006688224479902928
1.5068656468729529,0.03469846610783441,0.06843299828599796,0.028836225363534616,0.03240347909880571,0.006294471839717063
1.5069371640278795,0.03608805388876267,0.06733240939338073,0.029158238083419115,0.03317753859339735,0.006138482791665565
1.507008681182806,0.03753193323000867,0.06698366055513134,0.029645090979329304,0.03504951236395168,0.0055169308423483835
1.5070801983377327,0.038657419159163646,0.06717187293526954,0.03000532215028713,0.03709250172985148,0.004695310377057075
1.5071517154926592,0.038950459296790155,0.06557220744914134,0.029635790998015537,0.03767908551777523,0.0040634651230606065
1.5072232326475858,0.03795818995272562,0.058691315416941496,0.026170643808596194,0.03777545675193178,0.0011101855301878208
1.5072947498025124,0.035465807062779846,0.0499706643248799,0.02167628316777021,0.037224899462053145,-0.0023475650859791654
1.507366266957439,0.03160750390290827,0.04254775871390065,0.01779655130545853,0.0361364084540679,-0.004994020556612147
1.5074377841123656,0.02689036393457737,0.036379032631769906,0.014369878001425985,0.03507729893008889,-0.007276850283484004
1.5075093012672922,0.022110982309926926,0.031015087956085145,0.012274203971852665,0.032495189982650094,-0.007608459037728119
1.5075808184222188,0.018158898886019043,0.02777623477843357,0.010838451012952628,0.031130331650686988,-0.008057871071550178
1.5076523355771454,0.015750547010193554,0.025407215421587095,0.009985828883372298,0.02936693944753455,-0.007800597634480056
1.507723852732072,0.015198153002695225,0.021092531784386984,0.008495434228764531,0.025355438230199603,-0.006840029988335914
1.5077953698869986,0.01632710132796861,0.015317716752634715,0.006411917338543193,0.020089732845611528,-0.005685741580855088
1.5078668870419252,0.01858159605132472,0.010859071492507227,0.00521914285473996,0.01470137334496614,-0.003720103612612712
1.5079384041968518,0.02125563485920751,0.008140706992591607,0.005152249488431391,0.009017958410782278,-0.000651994731473483
1.5080099213517784,0.023737553869918368,0.0077362914118626735,0.0057615299185219465,0.005557982714803085,0.0017587132556837128
1.508081438506705,0.025680396681245936,0.009765718594285445,0.007453924502377228,0.0035801222344299644,0.004259682592687998
1.5081529556616315,0.027059576075294776,0.01164793420633776,0.008842952470356694,0.0022748160343117677,0.006137541939567854
1.5082244728165581,0.028112039179855254,0.010805399057284002,0.008942296206187028,0.0004668466023362532,0.007214131552655678
1.5082959899714847,0.029172386947160022,0.00848974212388312,0.008780907310022895,-0.0011609563958493623,0.007973878609536338
1.5083675071264113,0.03045818310099522,0.00860968155735066,0.010026451111954632,-0.0015221459617283468,0.009212953245907369
1.508439024281338,0.03190386747651281,0.013722149289069278,0.012747040105629182,0.00018680958034408772,0.010546780426454204
1.5085105414362645,0.03314377564440417,0.021226380243875735,0.01600259242207933,0.004062374882987023,0.011137340446472235
1.508582058591191,0.03366149064758627,0.02737006146848686,0.0186299276568245,0.007962635823221237,0.011189908585714689
1.5086535757461177,0.03301661123576188,0.02720828473431822,0.017302793300784304,0.009782764064845106,0.009080702926458007
1.5087250929010443,0.031031763736761156,0.022132671876768283,0.013978643770450466,0.010228076123064837,0.0060580068758183305
1.5087966100559709,0.02787943173947238,0.015435710843156258,0.009773118861112214,0.009477579354026848,0.002956254996536673
1.5088681272108975,0.024071143965329337,0.009486425893822831,0.005405399448016361,0.009292497821422073,-0.0005913864117277111
1.508939644365824,0.020368522042175177,0.005014255847974685,0.002619426200917792,0.007655034955634693,-0.002018979970942426
1.5090111615207507,0.017622660517009992,0.003315807654293041,0.001280243020763253,0.0075306330193294566,-0.0030694166869656855
1.5090826786756772,0.016549556574789192,0.002961806738858965,0.001094148915450876,0.008561500676131602,-0.0037914957221411513
1.5091541958306038,0.01749078347259404,0.0031139745249401355,0.001728275756159572,0.00832055595067777,-0.003129286168220452
1.5092257129855304,0.02026609634215111,0.0038265491766487545,0.002622344403247119,0.006313114760204103,-0.0012789824772387322
1.509297230140457,0.024225306810832306,0.007975336008708195,0.005090188490138515,0.00499399752708834,0.0015077971638538252
1.5093687472953836,0.028505184243561566,0.018062276148225385,0.010396256019729185,0.005220992698354972,0.0058162292053191645
1.5094402644503102,0.032363241212534366,0.032069929150799675,0.017181792517199104,0.0076868562702203155,0.010131216093154679
1.5095117816052368,0.035420479974014,0.047590484941966,0.023785576506019895,0.011654431747600629,0.013470980205699932
1.5095832987601634,0.03772295943106026,0.05899046974757382,0.028541189697550762,0.014623656846971183,0.0158161371056875
1.50965481591509,0.039632532833370364,0.06242265205001561,0.030196375009199177,0.016019988056052033,0.016433452026767992
1.5097263330700166,0.041605230836871475,0.0568767854345672,0.028415936049993602,0.01477236076089354,0.015629724510960615
1.5097978502249432,0.04392716574129624,0.047873908352183726,0.026087173799228647,0.010917248243168993,0.015800022183997734
1.5098693673798698,0.04649881119729661,0.042677453994350814,0.025125670272120693,0.0075474865700758415,0.016847133529535555
1.5099408845347964,0.048782229516577,0.042905838960922295,0.025898717163670308,0.00787322474855762,0.017314410142290543
1.510012401689723,0.04998265464348263,0.046367856871496575,0.027970420605425636,0.010010843855386593,0.01787229449152658
1.5100839188446495,0.04939582665258717,0.04710240238340403,0.02744804663090382,0.011897321991435193,0.016399480631044995
1.5101554359995761,0.046726633743720845,0.04403344675133982,0.024915387052692306,0.013061439306965674,0.01364259063256989
1.5102269531545027,0.04221494386441091,0.040366303934934296,0.022036546886626967,0.014015586325127649,0.010711686055485444
1.5102984703094293,0.0365554045951188,0.0383536865500726,0.019143160662124768,0.015877774481928442,0.007269758295949059
1.510369987464356,0.030705701566729478,0.038596743114388404,0.01712115674686206,0.017767430777058685,0.0045410720296697946
1.5104415046192825,0.025671938650474672,0.04029940382709088,0.016152578444133103,0.019220681707192495,0.0029327051007400286
1.510513021774209,0.02230380117340663,0.042248095786653235,0.01595046449902194,0.02126471902246777,0.0016402111289741466
1.5105845389291357,0.02110478427342222,0.04006102447521919,0.014310671393420193,0.02111076547615544,0.0003541430332226237
1.5106560560840623,0.022087028251984653,0.03264890487669599,0.011927341615445858,0.016770969683439368,0.0007477472634379006
1.5107275732389889,0.02474352062355467,0.021281002920504926,0.008315005741078718,0.010617397078413743,0.0011114537547476226
1.5107990903939155,0.028206425428266402,0.01240707970352783,0.006455089330600415,0.004326413560847889,0.0030150306494282075
1.510870607548842,0.03156791810921427,0.007812886913663625,0.006924877381908108,-0.0004591283029898587,0.006037572966603637
1.5109421247037687,0.034217944840168574,0.007854808793688864,0.0085255112555674,-0.0029522917268185165,0.008744973397251724
1.5110136418586952,0.036025983655989566,0.011565762955282482,0.01161661354179527,-0.0038363505437240316,0.011813191999562484
1.5110851590136218,0.03729532439305516,0.013552911806942245,0.013294021431409462,-0.003730349126987496,0.01315629526367789
1.5111566761685484,0.03854470610167679,0.01213356038121086,0.013163190298163863,-0.0032743113629711195,0.012796393565863795
1.511228193323475,0.04022460916569971,0.010294209202244992,0.013651672900344249,-0.0044026941049200375,0.01382455254260247
1.5112997104784016,0.04246467581659284,0.011535398624059376,0.01442102957265151,-0.00472117421255414,0.01464230053934417
1.5113712276333282,0.04493429586497486,0.017754386159560254,0.016921655013448497,-0.0028297094588345334,0.01569212716262335
1.5114427447882548,0.04689231770787431,0.02527285434035764,0.019784155718843215,-2.3486685008781116e-06,0.01653041085151422
1.5115142619431814,0.047454803887083834,0.029019483231839404,0.02007376929597759,0.002700419795856117,0.01528757207760166
