freq,gls,usurper,pdc_unbiased,shape_periodogram,shift_periodogram
1.5,0.031605246424144244,0.032181387540614684,0.022003088454338578,0.044942100271001775,-0.0036685427843176593
1.5000715171549266,0.028595336453250155,0.025550018967249327,0.01679692217781675,0.0374751845565019,-0.004399578639976353
1.5001430343098532,0.024797888546036324,0.019917064359709098,0.011419584810450916,0.0315481174158672,-0.006054445347052447
1.5002145514647798,0.020789812632417533,0.01826114638202427,0.008796510756732951,0.027010101854265205,-0.006029987168842415
1.5002860686197064,0.017345459787468324,0.02096852062110891,0.009479677332466734,0.025694469120065105,-0.0047758512602230135
1.500357585774633,0.015271945925960987,0.02559130141832608,0.011714688134418397,0.02661025280107965,-0.0033071994154779344
1.5004291029295596,0.015165201318802408,0.031031818464041228,0.01415548030345099,0.03082022881800211,-0.00332300517064516
1.5005006200844861,0.01716595655706576,0.03614543884765724,0.016954003693511403,0.03420872476914149,-0.002614774568865567
1.5005721372394127,0.02086274426290797,0.040257699519876615,0.019187221778694714,0.037545389809275506,-0.0023686411147739316
1.5006436543943393,0.02544081002802935,0.04388561115937686,0.02137618975240262,0.04096438356402613,-0.0022020583992018545
1.500715171549266,0.03000884122307953,0.04773189900719064,0.02421994995090846,0.04357072652890178,-0.0010584152353123862
1.5007866887041925,0.03391266896856934,0.05210071947094814,0.02666061786266369,0.04964801425081566,-0.0020157412794946333
1.500858205859119,0.0368882624749449,0.05693623858917433,0.029368029530911475,0.05708910772036365,-0.003431546805003702
1.5009297230140457,0.0390355018056212,0.06212253225181901,0.03287087235373193,0.06592541580199199,-0.0048644643165236
1.5010012401689723,0.04067274274449097,0.06386745081970895,0.0349635290275476,0.07227469360175844,-0.006262658390830653
1.5010727573238989,0.04213722341942038,0.06378553439751868,0.036798409825528795,0.07577443849704536,-0.006442607459694844
1.5011442744788255,0.043587855733941964,0.06345594218478491,0.03793328428010061,0.07900625997681399,-0.0070943389387029526
1.501215791633752,0.044880915226329254,0.06278898652029748,0.03824814004694497,0.08160705038232804,-0.008138579508841996
1.5012873087886787,0.045592465454410994,0.0635068226095875,0.03896037083855539,0.08508463747868823,-0.0092826712639923
1.5013588259436053,0.04519857422015515,0.06267780899290396,0.038338310339186395,0.08551975832506462,-0.01004350919973597
1.5014303430985318,0.04331902735671992,0.058966237012759104,0.03525172960142179,0.08475123370103396,-0.012333624806253876
1.5015018602534584,0.03989064242203222,0.05114192351294736,0.029380562295107576,0.08086580329979669,-0.015456746606457067
1.501573377408385,0.035207008956161204,0.04190276740854204,0.02275340008029923,0.07568932265983641,-0.018575313837165954
1.5016448945633116,0.029854908046904056,0.033502923730053764,0.01716592382272006,0.06830313156495944,-0.01966935153805204
1.5017164117182382,0.02460404968418353,0.02637964003222556,0.01272729457488559,0.06017527714488128,-0.019393003719454207
1.5017879288731648,0.020274028275387688,0.02202534071924496,0.010756457121333964,0.05308167766385252,-0.017507650885687006
1.5018594460280914,0.01756978332877583,0.019828033164008104,0.009814843547662735,0.04859203178787493,-0.01605117885102376
1.501930963183018,0.016887968997375314,0.019204542800105508,0.009773529530205848,0.044147122985341236,-0.013840144215338177
1.5020024803379446,0.018154766828972088,0.01832504047403109,0.009545857603491862,0.040330773724586426,-0.012108610826871794
1.5020739974928712,0.020807783027131654,0.018941744551064694,0.00997328939183271,0.03785118655634693,-0.010486766233308934
1.5021455146477978,0.023992628107040868,0.021613879016190343,0.01144212206274167,0.03795330603208052,-0.009269099936570888
1.5022170318027244,0.026898257150269028,0.026291833195805612,0.014028974316248104,0.04112603095349404,-0.008635885188778775
1.502288548957651,0.029041972437567,0.031200731490436617,0.016679671046279716,0.04560435950082716,-0.008606762910817129
1.5023600661125776,0.03036170293294545,0.03645339597518796,0.019990738498687276,0.05047559530803309,-0.008204868755440452
1.5024315832675041,0.031115659296329378,0.03727689447056015,0.02077896981185265,0.05340867571234111,-0.00900556242497142
1.5025031004224307,0.031680428730509906,0.03443287445023894,0.019519808615351825,0.053787217096416415,-0.010286269596924191
1.5025746175773573,0.032340192227813126,0.03052730709621065,0.018649627815208736,0.05139136610534253,-0.009827770278695526
1.502646134732284,0.033131945974426154,0.027707435752779848,0.017871043624403338,0.04771220969250306,-0.008641654582892608
1.5027176518872105,0.033797027787609374,0.02715755081307282,0.01799769758677829,0.04604393931024722,-0.007689181761862996
1.502789169042137,0.033871437590867574,0.025813101839664575,0.017486670760106647,0.04364217117948063,-0.006917707608062387
1.5028606861970637,0.03289397904446062,0.022573805887012327,0.015274482970942199,0.04053539331161678,-0.00726095270629673
1.5029322033519903,0.030638444170610023,0.01895979956807596,0.012011118949132128,0.037680497077504975,-0.008639614534516378
1.5030037205069169,0.02725242384486997,0.017078880755839503,0.009441040885373031,0.03598231519056918,-0.010002804142869524
1.5030752376618435,0.023245599290448483,0.018665946482741672,0.008606550278537486,0.03565432402563951,-0.010558163255215467
1.50314675481677,0.019358366958489085,0.022141228183261058,0.008953985446160287,0.03591599312529629,-0.010390130115181086
1.5032182719716967,0.01638051368297583,0.026451484211907118,0.010426555451109277,0.03651653658374446,-0.009421058859214211
1.5032897891266233,0.01497089818834955,0.03053709514669944,0.012350463029946239,0.036838261638497245,-0.007921030735112763
1.5033613062815498,0.015499460648454992,0.033782591395558496,0.013981854206916533,0.03637952673748696,-0.006279522606493306
1.5034328234364764,0.01793079665045714,0.03416872012597705,0.01416864675154985,0.03357426118802348,-0.004701789863198097
1.503504340591403,0.021792554285279486,0.03355020361250396,0.013806564009865633,0.030373136717779144,-0.0033988509553490517
1.5035758577463296,0.026283745634476982,0.03618410606681712,0.015751292513310384,0.030425165721063928,-0.0017445781649180747
1.5036473749012562,0.03053094650102892,0.0415408645693898,0.019003856556851165,0.03532935128734955,-0.0014085158346375172
1.5037188920561828,0.03389868374654469,0.048724345892039576,0.02304438568669538,0.04431092964990209,-0.0024490827549438344
1.5037904092111094,0.03619247413189749,0.05758129125352559,0.02836367437687625,0.05386446000380759,-0.002671664388291509
1.503861926366036,0.03764566473947448,0.06430434681045277,0.03246316988130233,0.06257109295683673,-0.003521520863771093
1.5039334435209626,0.038716510453014726,0.06747591746843333,0.03408384953452373,0.07007236349556968,-0.005910926134741963
1.5040049606758892,0.0398171228344044,0.06888039445448921,0.03557140334761458,0.07567948447171806,-0.00745908009595578
1.5040764778308158,0.041095739566223526,0.07218069767591002,0.037525773851031737,0.08076611725018298,-0.0083395857786105
1.5041479949857424,0.04234364882306056,0.07550526707820893,0.038887791087543686,0.0859314253034523,-0.009775028670948954
1.504219512140669,0.043051695709888996,0.07690431282512025,0.03921573232033744,0.08994058151419239,-0.011523656754738454
1.5042910292955955,0.04260283060723393,0.07238982755881966,0.036347749549566495,0.09030947035189571,-0.014202128635366537
1.5043625464505221,0.04053910287302065,0.061638627796872326,0.030363706364527798,0.0857089729513009,-0.01706108420214118
1.5044340636054487,0.03679439695722014,0.04804765970938465,0.02344001313236871,0.0762866108864707,-0.018283379107512716
1.5045055807603753,0.03178229372791513,0.03617896217769084,0.01698689592080203,0.06715016990002366,-0.019240192442444733
1.504577097915302,0.026296542555493532,0.027995176487739564,0.012446934359831944,0.05904808817860415,-0.0190649006667034
1.5046486150702285,0.021278189004975218,0.02482013058551628,0.011187449324425095,0.05280588184235965,-0.01699558140500009
1.504720132225155,0.017555651134353225,0.023644539082153658,0.011283372248322305,0.047812009195284694,-0.014387563554235662
1.5047916493800817,0.01564621916050789,0.022285632250014613,0.010644076718018416,0.044035301996800835,-0.013031296411286605
1.5048631665350083,0.015656872938766518,0.019870168633065895,0.009217644422453899,0.0393322525842571,-0.011887797923743887
1.5049346836899349,0.017286051262519187,0.01831780630263957,0.008230188330603324,0.034780780188925546,-0.010442189705507645
1.5050062008448615,0.019918755698584013,0.018303027686437604,0.007905738300784866,0.031238493742583546,-0.008933916506893487
1.505077717999788,0.022804926807040774,0.02059295715885843,0.009361654152707073,0.029210264740877706,-0.006652291407045155
1.5051492351547147,0.025289013466251117,0.02565521703903709,0.011726326065843064,0.033143544614003116,-0.006594830800040182
1.5052207523096413,0.027015644551186973,0.030767522784020257,0.014241445734319206,0.037845523832073326,-0.00679542436999735
1.5052922694645678,0.028012475009877,0.03339452644414027,0.015961322224474977,0.039949827904812586,-0.006371493006408991
1.5053637866194944,0.028596359216805502,0.030236693957287245,0.014919408532213189,0.03813374960965601,-0.00635499690382436
1.505435303774421,0.02915112616185344,0.023591203904424627,0.013309044659559194,0.0333390316002746,-0.005325881547506034
1.5055068209293476,0.029900153036102176,0.018863913144636545,0.012321918805932341,0.02911793604213063,-0.004048149861464878
1.5055783380842742,0.030782681811496897,0.01806483508657682,0.01250866989698158,0.027377024363768942,-0.003008182493613963
1.5056498552392008,0.03146961942071043,0.0203553711306344,0.013496870470295333,0.02915759004043592,-0.003052958255414128
1.5057213723941274,0.03149161794629547,0.021633336557169595,0.013134126432083434,0.03187721283818034,-0.004739095311566094
1.505792889549054,0.030427310908792447,0.021430256596655237,0.011855838401314541,0.034026912098074236,-0.006928908940401488
1.5058644067039806,0.02809465201809536,0.019599634059649245,0.009674998552531539,0.03386286863474501,-0.008730420330850348
1.5059359238589072,0.024683284499830333,0.016205967719714498,0.006168765257997816,0.032771123386797364,-0.011208220983084301
1.5060074410138338,0.020766913938386953,0.01407620263612256,0.003987129865862614,0.03121489034741496,-0.012306872987786174
1.5060789581687604,0.017165658691511196,0.015244905673605794,0.004506773893992003,0.029384117374633735,-0.0109337328327643
1.506150475323687,0.014695536880755058,0.017680294475681282,0.005603202541494299,0.02862267764914364,-0.009602317232298173
1.5062219924786135,0.013907828977730352,0.019715999239443092,0.006474304461408025,0.027525951616325955,-0.00829628671243985
1.5062935096335401,0.014929925183180436,0.019878157129444966,0.007024475314287043,0.023790089035181806,-0.005935565473608049
1.5063650267884667,0.01746107614733839,0.01860782798097415,0.006681651925523114,0.020314007239547578,-0.00447759277301987
1.5064365439433933,0.020900617081537138,0.019909387257484618,0.008103902228742074,0.018322654244566184,-0.002244481271470859
1.50650806109832,0.024545654709518663,0.02394412313950235,0.01119024144466396,0.01734590639268601,0.0009140401836543764
1.5065795782532465,0.027795889555703463,0.031138422123810107,0.015188716512202768,0.02192487304385256,0.0020582732684018513
1.506651095408173,0.030315638754338018,0.040567340370771456,0.02020329875354711,0.029003770063037074,0.002820408965504414
1.5067226125630997,0.03210575674634778,0.0501450183329885,0.02516307524326057,0.03729014709897864,0.0029276109646967467
1.5067941297180263,0.03344435853615213,0.055760252791144146,0.02809340030703321,0.0439506756467279,0.0021010337105498546
1.5068656468729529,0.03469846610783441,0.0562929931132212,0.028836225363534616,0.04706322663699604,0.001172543413861822
1.5069371640278795,0.03608805388876267,0.05525915895070994,0.029158238083419115,0.0481090405838997,0.000923211341520948
1.507008681182806,0.03753193323000867,0.05504160093486048,0.029645090979329304,0.050032481522359964,0.0003733677472901238
1.5070801983377327,0.038657419159163646,0.05521733470888237,0.03000532215028713,0.05144092898475848,-2.6081818942865036e-05
1.5071517154926592,0.038950459296790155,0.05402668135254482,0.029635790998015537,0.050946659006883034,-9.637185586305774e-05
1.5072232326475858,0.03795818995272562,0.04867298207969647,0.026170643808596194,0.049007154147380834,-0.002116073946147078
1.5072947498025124,0.035465807062779846,0.041820229783076104,0.02167628316777021,0.04549522672601029,-0.00423058700623027
1.507366266957439,0.03160750390290827,0.03615504301094132,0.01779655130545853,0.04197774391978099,-0.005809078139925416
1.5074377841123656,0.02689036393457737,0.03128877291685289,0.014369878001425985,0.03919174442426917,-0.007364265495877997
1.5075093012672922,0.022110982309926926,0.026839108862584983,0.012274203971852665,0.03565048537176272,-0.007387151996108155
1.5075808184222188,0.018158898886019043,0.02382428057113171,0.010838451012952628,0.03419065608936044,-0.007890679004522415
1.5076523355771454,0.015750547010193554,0.02190081001963507,0.009985828883372298,0.032354753977135595,-0.007700432064825122
1.507723852732072,0.015198153002695225,0.01851137503901166,0.008495434228764531,0.02794699505402706,-0.006762948137931009
1.5077953698869986,0.01632710132796861,0.014148767699226373,0.006411917338543193,0.022125396577536066,-0.005624579848832377
1.5078668870419252,0.01858159605132472,0.010983309523860535,0.00521914285473996,0.016522687784089878,-0.003827793028550312
1.5079384041968518,0.02125563485920751,0.009155545631619135,0.005152249488431391,0.011150689370745596,-0.0011755279534863628
1.5080099213517784,0.023737553869918368,0.009018502262461944,0.0057615299185219465,0.008588472126982615,0.0006430568561636397
1.508081438506705,0.025680396681245936,0.011041184035170567,0.007453924502377228,0.007964836327016894,0.0024190952571092866
1.5081529556616315,0.027059576075294776,0.012989672051575578,0.008842952470356694,0.008101903038456948,0.0035494925106598946
1.5082244728165581,0.028112039179855254,0.012286750328569568,0.008942296206187028,0.007020472026190094,0.0041807234436722455
1.5082959899714847,0.029172386947160022,0.010012303652739427,0.008780907310022895,0.005814041095905966,0.004649830824215765
1.5083675071264113,0.03045818310099522,0.009865016961961036,0.010026451111954632,0.0059169497855583765,0.005673540757925598
1.508439024281338,0.03190386747651281,0.013883533694828342,0.012747040105629182,0.009006683171503885,0.006464831059859555
1.5085105414362645,0.03314377564440417,0.02000660547898361,0.01600259242207933,0.014497847010321946,0.006507495961775355
1.508582058591191,0.03366149064758627,0.025086141658508466,0.0186299276568245,0.01931356842784927,0.006348640030296406
1.5086535757461177,0.03301661123576188,0.02508883995102969,0.017302793300784304,0.021475229039223127,0.004111667249965839
1.5087250929010443,0.031031763736761156,0.02112784571266383,0.013978643770450466,0.02084542163423981,0.0015573893675894864
1.5087966100559709,0.02787943173947238,0.015883143530556705,0.009773118861112214,0.018037275264393256,-0.0006587761994532874
1.5088681272108975,0.024071143965329337,0.011036254412368275,0.005405399448016361,0.0158813241689376,-0.003343366880728698
1.508939644365824,0.020368522042175177,0.0071000350484546155,0.002619426200917792,0.013119465822774483,-0.004355905848025205
1.5090111615207507,0.017622660517009992,0.005072246877019366,0.001280243020763253,0.01205644423289178,-0.0049760461294923826
1.5090826786756772,0.016549556574789192,0.004234513950398965,0.001094148915450876,0.011985748515260953,-0.005101075246662261
1.5091541958306038,0.01749078347259404,0.004062243710429127,0.001728275756159572,0.01085572332965985,-0.003983446636994361
1.5092257129855304,0.02026609634215111,0.004514586443073494,0.002622344403247119,0.008316356024080767,-0.0019304540206961098
1.509297230140457,0.024225306810832306,0.008019479159628992,0.005090188490138515,0.0071473935313382435,0.0007902140646409479
1.5093687472953836,0.028505184243561566,0.01620525064986382,0.010396256019729185,0.00883331751368271,0.004522030097250929
1.5094402644503102,0.032363241212534366,0.027558465027514144,0.017181792517199104,0.014104901286942322,0.007724316109984235
1.5095117816052368,0.035420479974014,0.040065337993318025,0.023785576506019895,0.02147688875110864,0.009712984953182858
1.5095832987601634,0.03772295943106026,0.04923618829054014,0.028541189697550762,0.026808233542825022,0.011135991442046595
1.50965481591509,0.039632532833370364,0.05182394870793262,0.030196375009199177,0.02892488834280958,0.011500162262650474
1.5097263330700166,0.041605230836871475,0.04687415170666307,0.028415936049993602,0.027205697999382387,0.010827288861272318
1.5097978502249432,0.04392716574129624,0.03927744899126638,0.026087173799228647,0.02116199528197364,0.01186107961250397
1.5098693673798698,0.04649881119729661,0.03490105055237998,0.025125670272120693,0.015420242989101742,0.013924620878281042
1.5099408845347964,0.048782229516577,0.035023464710152996,0.025898717163670308,0.014046321538079762,0.01528519342910739
1.510012401689723,0.04998265464348263,0.03801448714028214,0.027970420605425636,0.014983935771024939,0.016602929403103726
1.5100839188446495,0.04939582665258717,0.03865086194314026,0.02744804663090382,0.015677649590621304,0.015801841765226962
1.5101554359995761,0.046726633743720845,0.03634695056551955,0.024915387052692306,0.015274194946258266,0.013816529456074072
1.5102269531545027,0.04221494386441091,0.033645459820540874,0.022036546886626967,0.014242227110164955,0.011849264340260617
1.5102984703094293,0.0365554045951188,0.032210086956757145,0.019143160662124768,0.015310326088837728,0.008810887752015424
1.510369987464356,0.030705701566729478,0.032457533834242096,0.01712115674686206,0.018062692443550223,0.005675944585871513
1.5104415046192825,0.025671938650474672,0.03385917718937122,0.016152578444133103,0.02144337346966678,0.003133929654242552
1.510513021774209,0.02230380117340663,0.03564716372702605,0.01595046449902194,0.025099427223678004,0.0011148945171706543
1.5105845389291357,0.02110478427342222,0.034225108849427546,0.014310671393420193,0.02594535322909916,-0.0007287860614356515
1.5106560560840623,0.022087028251984653,0.02885809952742639,0.011927341615445858,0.02150410608348527,-0.0005470019256927723
1.5107275732389889,0.02474352062355467,0.020265903698937864,0.008315005741078718,0.014428527535844685,-9.764395962012966e-05
1.5107990903939155,0.028206425428266402,0.01363433287860963,0.006455089330600415,0.00748687679549395,0.001797622903802315
1.510870607548842,0.03156791810921427,0.01045352398019589,0.006924877381908108,0.0029432019862924872,0.004495030268222031
1.5109421247037687,0.034217944840168574,0.010629440576955633,0.0085255112555674,0.0023418239643010386,0.006180515750406757
1.5110136418586952,0.036025983655989566,0.01396871506193765,0.01161661354179527,0.004103995987494127,0.007961095832058718
1.5110851590136218,0.03729532439305516,0.015644210253709996,0.013294021431409462,0.006244721128723548,0.008330119448541012
1.5111566761685484,0.03854470610167679,0.014226365799130685,0.013163190298163863,0.008404574517474358,0.007127899944817055
1.511228193323475,0.04022460916569971,0.012766664027076276,0.013651672900344249,0.008516264484701283,0.007493460332519629
1.5112997104784016,0.04246467581659284,0.01369371789258219,0.01442102957265151,0.009070972665684275,0.007878202367234176
1.5113712276333282,0.04493429586497486,0.018882765316489282,0.016921655013448497,0.012393196575161903,0.008362782377470103
1.5114427447882548,0.04689231770787431,0.024908066387859966,0.019784155718843215,0.016431695046428232,0.008799229037587768
1.5115142619431814,0.047454803887083834,0.02749555363473054,0.02007376929597759,0.019109426271914084,0.0076991494821772415
