freq,gls,usurper,pdc_unbiased,shape_periodogram,shift_periodogram
1.5,0.031605246424144244,0.03027439020616562,0.022003088454338578,0.04070591600883986,-0.005189628356544273
1.5000715171549266,0.028595336453250155,0.023584925245889756,0.01679692217781675,0.032887440389617786,-0.004998050371336666
1.5001430343098532,0.024797888546036324,0.017833031106547718,0.011419584810450916,0.02644083192027861,-0.005730322370003948
1.5002145514647798,0.020789812632417533,0.01601615160546355,0.008796510756732951,0.02059634747817905,-0.004544487261784518
1.5002860686197064,0.017345459787468324,0.018623558061242638,0.009479677332466734,0.01772423178548778,-0.002342604326076107
1.500357585774633,0.015271945925960987,0.02321933628800579,0.011714688134418397,0.017327462126063623,-0.00028079638750907316
1.5004291029295596,0.015165201318802408,0.02856115050075044,0.01415548030345099,0.02075951218853484,-0.00023716073097553668
1.5005006200844861,0.01716595655706576,0.03359705062493823,0.016954003693511403,0.023456342477004694,0.000520587814308808
1.5005721372394127,0.02086274426290797,0.03746444936211688,0.019187221778694714,0.026281797651496214,0.0007408334709383768
1.5006436543943393,0.02544081002802935,0.0407924606810307,0.02137618975240262,0.029398278482814615,0.0007586996532156679
1.500715171549266,0.03000884122307953,0.04433719521597383,0.02421994995090846,0.03176653243657045,0.0017425982174351176
1.5007866887041925,0.03391266896856934,0.048382346994321,0.02666061786266369,0.038569271225567095,-0.00013866841059359119
1.500858205859119,0.0368882624749449,0.05297307544457031,0.029368029530911475,0.047726195493871984,-0.003147466081573234
1.5009297230140457,0.0390355018056212,0.05792174754354987,0.03287087235373193,0.05929942572195682,-0.006886853953952559
1.5010012401689723,0.04067274274449097,0.05959513630003055,0.0349635290275476,0.06902628630613662,-0.010735009108836591
1.5010727573238989,0.04213722341942038,0.05972714224919941,0.036798409825528795,0.07609098515240947,-0.013273529068472102
1.5011442744788255,0.043587855733941964,0.05962753325487591,0.03793328428010061,0.08210886674704712,-0.01579138430779674
1.501215791633752,0.044880915226329254,0.05916960854842355,0.03824814004694497,0.08625501367824193,-0.017913116753147443
1.5012873087886787,0.045592465454410994,0.05997227264462217,0.03896037083855539,0.09000399763264591,-0.01948002171979563
1.5013588259436053,0.04519857422015515,0.05914332974183831,0.038338310339186395,0.09026809075734968,-0.020145406953559018
1.5014303430985318,0.04331902735671992,0.05538239048373151,0.03525172960142179,0.089109189399764,-0.022026290608782764
1.5015018602534584,0.03989064242203222,0.047501594542968414,0.029380562295107576,0.08434542628026638,-0.024128776391141762
1.501573377408385,0.035207008956161204,0.038299768975061106,0.02275340008029923,0.07814312167836152,-0.026023260327437854
1.5016448945633116,0.029854908046904056,0.029910817456044105,0.01716592382272006,0.06898830150878513,-0.025364800922852895
1.5017164117182382,0.02460404968418353,0.022934626037750965,0.01272729457488559,0.05883646418976728,-0.023192490993461712
1.5017879288731648,0.020274028275387688,0.01884643263194813,0.010756457121333964,0.050042913883850765,-0.01977479532995272
1.5018594460280914,0.01756978332877583,0.016955496433978156,0.009814843547662735,0.04453141380840843,-0.01739346590945451
1.501930963183018,0.016887968997375314,0.01672697132739278,0.009773529530205848,0.03879314530201069,-0.014144400773629258
1.5020024803379446,0.018154766828972088,0.016104810465678954,0.009545857603491862,0.03349557632886094,-0.011301823112493078
1.5020739974928712,0.020807783027131654,0.016774829956111043,0.00997328939183271,0.029442160216989626,-0.008633493728939174
1.5021455146477978,0.023992628107040868,0.019305325828635728,0.01144212206274167,0.02756960658645386,-0.006356932650914954
1.5022170318027244,0.026898257150269028,0.02375072360100107,0.014028974316248104,0.029934094112580644,-0.005583740308080342
1.502288548957651,0.029041972437567,0.028446293117290692,0.016679671046279716,0.03479939211628017,-0.006187391566562246
1.5023600661125776,0.03036170293294545,0.03347242127440071,0.019990738498687276,0.04162843303476642,-0.0073713900410654724
1.5024315832675041,0.031115659296329378,0.034130167670372684,0.02077896981185265,0.04733445482210195,-0.009987665273746688
1.5025031004224307,0.031680428730509906,0.03133141758351141,0.019519808615351825,0.05063229978748259,-0.012910298094968471
1.5025746175773573,0.032340192227813126,0.027727676773457183,0.018649627815208736,0.05062479245655983,-0.013621385363421506
1.502646134732284,0.033131945974426154,0.02516119568052673,0.017871043624403338,0.04817952825089482,-0.012861767784229124
1.5027176518872105,0.033797027787609374,0.02468570470856987,0.01799769758677829,0.04669637727925535,-0.011908883226277095
1.502789169042137,0.033871437590867574,0.02339578704203022,0.017486670760106647,0.04406548375699667,-0.01082356131684451
1.5028606861970637,0.03289397904446062,0.020135599587866024,0.015274482970942199,0.04083999104679878,-0.010796269795324049
1.5029322033519903,0.030638444170610023,0.01635959461138576,0.012011118949132128,0.0376093652206557,-0.011629461283366328
1.5030037205069169,0.02725242384486997,0.014279827450971904,0.009441040885373031,0.03490626323723295,-0.012194533004372234
1.5030752376618435,0.023245599290448483,0.015581683413918457,0.008606550278537486,0.03298257941934228,-0.011779882488859228
1.50314675481677,0.019358366958489085,0.01886188381289093,0.008953985446160287,0.03151634474546295,-0.010656277844382375
1.5032182719716967,0.01638051368297583,0.023155857301089128,0.010426555451109277,0.03070180813919101,-0.008981321331445918
1.5032897891266233,0.01497089818834955,0.027402419753604353,0.012350463029946239,0.030626473006881327,-0.007358174136270299
1.5033613062815498,0.015499460648454992,0.030840454796569886,0.013981854206916533,0.030186534506149255,-0.005766735081296385
1.5034328234364764,0.01793079665045714,0.03140239033537522,0.01416864675154985,0.02755360090778853,-0.0041084775074419246
1.503504340591403,0.021792554285279486,0.03092488039197866,0.013806564009865633,0.02443459291599631,-0.0026235025272220757
1.5035758577463296,0.026283745634476982,0.03361867512894147,0.015751292513310384,0.02398327696575294,-0.0007683618174511507
1.5036473749012562,0.03053094650102892,0.03884466971468102,0.019003856556851165,0.028789338743003334,-0.0008426235896308723
1.5037188920561828,0.03389868374654469,0.04581546214866769,0.02304438568669538,0.038600009810839546,-0.0031294875963241895
1.5037904092111094,0.03619247413189749,0.05440518307321725,0.02836367437687625,0.05043494865526653,-0.005523458783372006
1.503861926366036,0.03764566473947448,0.06079182993352574,0.03246316988130233,0.06198834647631588,-0.008762461818051868
1.5039334435209626,0.038716510453014726,0.0637368368036832,0.03408384953452373,0.07285949761359184,-0.013657862574624445
1.5040049606758892,0.0398171228344044,0.06512695427761914,0.03557140334761458,0.08091646614212451,-0.01705502654014098
1.5040764778308158,0.041095739566223526,0.06838420094287713,0.037525773851031737,0.08704221208257831,-0.01896163728932817
1.5041479949857424,0.04234364882306056,0.07158697203746742,0.038887791087543686,0.09203806427279271,-0.020709651717472966
1.504219512140669,0.043051695709888996,0.07287738071147332,0.03921573232033744,0.09572436289566316,-0.022559797734651686
1.5042910292955955,0.04260283060723393,0.06827459408124226,0.036347749549566495,0.09627183931075459,-0.025243029839099467
1.5043625464505221,0.04053910287302065,0.05757326479313793,0.030363706364527798,0.09186097046795733,-0.027640811365080908
1.5044340636054487,0.03679439695722014,0.04414811688711252,0.02344001313236871,0.0825836708189998,-0.028009511472862826
1.5045055807603753,0.03178229372791513,0.03242064915992582,0.01698689592080203,0.073116547704465,-0.02788131507225178
1.504577097915302,0.026296542555493532,0.024384164058492988,0.012446934359831944,0.0634235009567265,-0.026052374264662028
1.5046486150702285,0.021278189004975218,0.021434481153242653,0.011187449324425095,0.055165787130383656,-0.02235459799963795
1.504720132225155,0.017555651134353225,0.020644613215410022,0.011283372248322305,0.048730518535484955,-0.018590559685087476
1.5047916493800817,0.01564621916050789,0.019701172107992708,0.010644076718018416,0.04386582381603604,-0.01633145036918822
1.5048631665350083,0.015656872938766518,0.017602925498122965,0.009217644422453899,0.03763822461551246,-0.01394036888310621
1.5049346836899349,0.017286051262519187,0.016175223087392693,0.008230188330603324,0.03174741569258466,-0.011382749007330384
1.5050062008448615,0.019918755698584013,0.016170879596466646,0.007905738300784866,0.026580038159869708,-0.008695327341108916
1.505077717999788,0.022804926807040774,0.018413871921504656,0.009361654152707073,0.023010588258182578,-0.0054599617602966105
1.5051492351547147,0.025289013466251117,0.023293548177695154,0.011726326065843064,0.026460725670195733,-0.005489784189099053
1.5052207523096413,0.027015644551186973,0.028315979898395852,0.014241445734319206,0.0319082149206894,-0.006537640392325117
1.5052922694645678,0.028012475009877,0.03086952372149155,0.015961322224474977,0.03580724463201743,-0.007353819389355067
1.5053637866194944,0.028596359216805502,0.027680073569958094,0.014919408532213189,0.036659598290561334,-0.008697201795181833
1.505435303774421,0.02915112616185344,0.02124834714458007,0.013309044659559194,0.03442462152113875,-0.008742177335077584
1.5055068209293476,0.029900153036102176,0.016802599394683215,0.012321918805932341,0.031571014153058755,-0.00792156084110383
1.5055783380842742,0.030782681811496897,0.016146072864992353,0.01250866989698158,0.029863697408879425,-0.006792221440262948
1.5056498552392008,0.03146961942071043,0.018333434206458804,0.013496870470295333,0.031164216055819278,-0.006723949100561446
1.5057213723941274,0.03149161794629547,0.019382457381717608,0.013134126432083434,0.03346910173726688,-0.008339552258537495
1.505792889549054,0.030427310908792447,0.018863557053106623,0.011855838401314541,0.03531438048472039,-0.010444598954238618
1.5058644067039806,0.02809465201809536,0.016711925915169987,0.009674998552531539,0.035095389297632784,-0.012110541372416994
1.5059359238589072,0.024683284499830333,0.013051624658477094,0.006168765257997816,0.033528249549758256,-0.014093649764471264
1.5060074410138338,0.020766913938386953,0.0107641570150993,0.003987129865862614,0.03080033795953484,-0.014325130894713921
1.5060789581687604,0.017165658691511196,0.01190726824166088,0.004506773893992003,0.027774806171426233,-0.012168923993462269
1.506150475323687,0.014695536880755058,0.014537942625978321,0.005603202541494299,0.026216080040220475,-0.010377813865079081
1.5062219924786135,0.013907828977730352,0.016927836269689057,0.006474304461408025,0.024696138671287893,-0.00879392572283818
1.5062935096335401,0.014929925183180436,0.01757539256694703,0.007024475314287043,0.020869311060576736,-0.0061553724937515
1.5063650267884667,0.01746107614733839,0.016713823235948614,0.006681651925523114,0.017530699139822577,-0.004529264539770184
1.5064365439433933,0.020900617081537138,0.01840228767151999,0.008103902228742074,0.01521321846971472,-0.002037632448296003
1.50650806109832,0.024545654709518663,0.022603621242274063,0.01119024144466396,0.013700158007693617,0.0013606555040120262
1.5065795782532465,0.027795889555703463,0.02974393756660599,0.015188716512202768,0.018890001769343294,0.001679395565348602
1.506651095408173,0.030315638754338018,0.03913480387225656,0.02020329875354711,0.027688054011985173,0.0007721531420217833
1.5067226125630997,0.03210575674634778,0.04850988075990269,0.02516307524326057,0.038408412303003604,-0.0012780864044994304
1.5067941297180263,0.03344435853615213,0.05390704810482004,0.02809340030703321,0.04786621435627417,-0.004276277247049797
1.5068656468729529,0.03469846610783441,0.05437601313703025,0.028836225363534616,0.05331515422368125,-0.006782765074112636
1.5069371640278795,0.03608805388876267,0.05338647239171839,0.029158238083419115,0.05583758366607379,-0.007961556929552565
1.507008681182806,0.03753193323000867,0.053168945916492856,0.029645090979329304,0.058108982012064055,-0.008861253562062122
1.5070801983377327,0.038657419159163646,0.05331435003237514,0.03000532215028713,0.059172790701040014,-0.009173862690717164
1.5071517154926592,0.038950459296790155,0.05201172633965241,0.029635790998015537,0.058401420598337694,-0.009036361699136013
1.5072232326475858,0.03795818995272562,0.04644836957936619,0.026170643808596194,0.05647416395287932,-0.010784686172395058
1.5072947498025124,0.035465807062779846,0.03940000878144525,0.02167628316777021,0.05299293476735593,-0.012488523389615428
1.507366266957439,0.03160750390290827,0.033541546820319824,0.01779655130545853,0.04901724239473023,-0.013402462820358818
1.5074377841123656,0.02689036393457737,0.028497590363834646,0.014369878001425985,0.045170321886314806,-0.014016991053412978
1.5075093012672922,0.022110982309926926,0.024062377140034185,0.012274203971852665,0.040372382728164846,-0.012993705460274726
1.5075808184222188,0.018158898886019043,0.021191901610349725,0.010838451012952628,0.03760536499156726,-0.0125903859282109
1.5076523355771454,0.015750547010193554,0.01953258226356737,0.009985828883372298,0.03499962129087166,-0.011800502275668666
1.507723852732072,0.015198153002695225,0.016512725931819607,0.008495434228764531,0.029937417393458912,-0.0101301899137724
1.5077953698869986,0.01632710132796861,0.012404986187925394,0.006411917338543193,0.023194197163367285,-0.007986809351379147
1.5078668870419252,0.01858159605132472,0.009449933262761006,0.00521914285473996,0.01617965153698274,-0.004958037530615645
1.5079384041968518,0.02125563485920751,0.0077686238686636815,0.005152249488431391,0.009122265746889844,-0.0009813562366947255
1.5080099213517784,0.023737553869918368,0.007762592258854441,0.0057615299185219465,0.005800729689125654,0.0014160387781353525
1.508081438506705,0.025680396681245936,0.00987669706334366,0.007453924502377228,0.005588185013348015,0.002926700986339129
1.5081529556616315,0.027059576075294776,0.011843341373287299,0.008842952470356694,0.007173432506573742,0.003161532066810301
1.5082244728165581,0.028112039179855254,0.011126028414954173,0.008942296206187028,0.007921646731002083,0.0028157315063564725
1.5082959899714847,0.029172386947160022,0.008917950474005768,0.008780907310022895,0.008345951517143697,0.0024408897722943725
1.5083675071264113,0.03045818310099522,0.008853414930439285,0.010026451111954632,0.009228672528337457,0.002959240158566346
1.508439024281338,0.03190386747651281,0.012912056616164784,0.012747040105629182,0.011818087318381281,0.003713898633537672
1.5085105414362645,0.03314377564440417,0.0189470738814583,0.01600259242207933,0.01645788963019379,0.003737047113318853
1.508582058591191,0.03366149064758627,0.023786009975229085,0.0186299276568245,0.0208399469934824,0.0033918897064254294
1.5086535757461177,0.03301661123576188,0.023416537190173087,0.017302793300784304,0.022797106355265533,0.0011837155033367422
1.5087250929010443,0.031031763736761156,0.01915297922727692,0.013978643770450466,0.02221002540478988,-0.0012111076471709222
1.5087966100559709,0.02787943173947238,0.013670549823228413,0.009773118861112214,0.019414051063295967,-0.003067101368290015
1.5088681272108975,0.024071143965329337,0.008624305456564106,0.005405399448016361,0.016801114179914686,-0.005160186269424321
1.508939644365824,0.020368522042175177,0.004622744547760564,0.002619426200917792,0.013095789767404017,-0.005330349555912935
1.5090111615207507,0.017622660517009992,0.0027007955804996607,0.001280243020763253,0.01146856192322409,-0.005500045903678327
1.5090826786756772,0.016549556574789192,0.002164104170542065,0.001094148915450876,0.011417681954301059,-0.005623734239853827
1.5091541958306038,0.01749078347259404,0.00240884564052744,0.001728275756159572,0.010083274799071203,-0.00434094031011275
1.5092257129855304,0.02026609634215111,0.0032014416269569054,0.002622344403247119,0.007210946284134798,-0.0019663103399870053
1.509297230140457,0.024225306810832306,0.0069228074517204315,0.005090188490138515,0.005269488575036903,0.0011683888469112141
1.5093687472953836,0.028505184243561566,0.01524313348490674,0.010396256019729185,0.0056911030628893945,0.0052833231187280425
1.5094402644503102,0.032363241212534366,0.02662944715840146,0.017181792517199104,0.010233723190039823,0.008260158433888967
1.5095117816052368,0.035420479974014,0.039089004892477235,0.023785576506019895,0.018029072573529467,0.009232549737088586
1.5095832987601634,0.03772295943106026,0.04835117254572491,0.028541189697550762,0.02506243221620455,0.009124153894027182
1.50965481591509,0.039632532833370364,0.05107447942737821,0.030196375009199177,0.02970506118347741,0.007833479885938752
1.5097263330700166,0.041605230836871475,0.0462771262701222,0.028415936049993602,0.030657659338267213,0.00582548416487077
1.5097978502249432,0.04392716574129624,0.03893673667036015,0.026087173799228647,0.026827932000574657,0.006098756099996951
1.5098693673798698,0.04649881119729661,0.034819455987117984,0.025125670272120693,0.022185445361166047,0.007960078405684304
1.5099408845347964,0.048782229516577,0.03518879042188915,0.025898717163670308,0.020966464515317154,0.009291426978103439
1.510012401689723,0.04998265464348263,0.038217016810263835,0.027970420605425636,0.021609538946688385,0.01062671282325498
1.5100839188446495,0.04939582665258717,0.03864616917231293,0.02744804663090382,0.022089115716233912,0.009923567430924141
1.5101554359995761,0.046726633743720845,0.035948444736053874,0.024915387052692306,0.02144414526036123,0.008210631325014766
1.5102269531545027,0.04221494386441091,0.0328306631713968,0.022036546886626967,0.019966829341509847,0.006689039303147668
1.5102984703094293,0.0365554045951188,0.03092163757243531,0.019143160662124768,0.01996877138581795,0.004311090564642346
1.510369987464356,0.030705701566729478,0.030667148052721256,0.01712115674686206,0.0208272766820974,0.0021598431439667993
1.5104415046192825,0.025671938650474672,0.03165751047766004,0.016152578444133103,0.022653771888564107,0.00032084010250326935
1.510513021774209,0.02230380117340663,0.03327388504596947,0.01595046449902194,0.02555800900033217,-0.0015045407278302856
1.5105845389291357,0.02110478427342222,0.03184266425211369,0.014310671393420193,0.025790213045498826,-0.002984105507003605
1.5106560560840623,0.022087028251984653,0.02666215671721579,0.011927341615445858,0.021020042228430263,-0.002215781621904447
1.5107275732389889,0.02474352062355467,0.01834196976076517,0.008315005741078718,0.013608552770924806,-0.0009476375000338326
1.5107990903939155,0.028206425428266402,0.01200286757883979,0.006455089330600415,0.0058894560232496534,0.0019346898091433557
1.510870607548842,0.03156791810921427,0.009043594852227261,0.006924877381908108,0.000462451076480735,0.005420021377835114
1.5109421247037687,0.034217944840168574,0.00937497014942618,0.0085255112555674,-0.0002548570748464563,0.007143588178819012
1.5110136418586952,0.036025983655989566,0.012847371421184218,0.01161661354179527,0.002229669259645158,0.008262035763543417
1.5110851590136218,0.03729532439305516,0.014602158133102398,0.013294021431409462,0.005971790185646271,0.007501970164832018
1.5111566761685484,0.03854470610167679,0.013122467531438333,0.013163190298163863,0.009558641356340178,0.00534605714006939
1.511228193323475,0.04022460916569971,0.011651427929279468,0.013651672900344249,0.0106106249196856,0.005146304531079661
1.5112997104784016,0.04246467581659284,0.012577282884851696,0.01442102957265151,0.011425831831153602,0.005312417563000085
1.5113712276333282,0.04493429586497486,0.017746106387577155,0.016921655013448497,0.014076684781297255,0.005851840959430439
1.5114427447882548,0.04689231770787431,0.02374258186368936,0.019784155718843215,0.017269078867057724,0.006379548593055095
1.5115142619431814,0.047454803887083834,0.026300341219286302,0.02007376929597759,0.019569397213765466,0.0053036339224464685
