freq,gls,usurper,pdc_unbiased,shape_periodogram,shift_periodogram
1.5,0.031605246424144244,0.03250945543470591,0.022003088454338578,0.052421319481906134,-0.025758807805573
1.5000715171549266,0.028595336453250155,0.02571010628431267,0.01679692217781675,0.04345877035547099,-0.02228377837819793
1.5001430343098532,0.024797888546036324,0.019921113100067424,0.011419584810450916,0.03690800449190266,-0.020763116964473718
1.5002145514647798,0.020789812632417533,0.018192673474168405,0.008796510756732951,0.032527518608852515,-0.019117320453289725
1.5002860686197064,0.017345459787468324,0.02095852107550688,0.009479677332466734,0.03178694039590502,-0.018110132301632414
1.500357585774633,0.015271945925960987,0.025663986117331356,0.011714688134418397,0.032678504630577594,-0.017344146293144246
1.5004291029295596,0.015165201318802408,0.031101135181552744,0.01415548030345099,0.03711353021035897,-0.01914930674968914
1.5005006200844861,0.01716595655706576,0.036152329281079504,0.016954003693511403,0.04079528611250108,-0.020148364536224584
1.5005721372394127,0.02086274426290797,0.03993872227846683,0.019187221778694714,0.044663930307629295,-0.02165647036006722
1.5006436543943393,0.02544081002802935,0.04321018029346267,0.02137618975240262,0.04917928288608274,-0.023687788348944083
1.500715171549266,0.03000884122307953,0.04677701106338259,0.02421994995090846,0.05350353681904086,-0.025149755996537803
1.5007866887041925,0.03391266896856934,0.050968477927363066,0.02666061786266369,0.06170371815042528,-0.02983726823687447
1.500858205859119,0.0368882624749449,0.055755010442088256,0.029368029530911475,0.07184671133596356,-0.035843601071832785
1.5009297230140457,0.0390355018056212,0.060960828878409944,0.03287087235373193,0.08394672013145076,-0.0428425779004139
1.5010012401689723,0.04067274274449097,0.06274096564970283,0.0349635290275476,0.09313000773203048,-0.04853047259772167
1.5010727573238989,0.04213722341942038,0.06280823689212722,0.036798409825528795,0.09891619967041347,-0.051783803416449
1.5011442744788255,0.043587855733941964,0.06256252878689471,0.03793328428010061,0.10348990698644388,-0.05456273386911537
1.501215791633752,0.044880915226329254,0.0619311211509759,0.03824814004694497,0.1062041407343296,-0.05644577929299552
1.5012873087886787,0.045592465454410994,0.06275941018435785,0.03896037083855539,0.10980710293811495,-0.05875581571545449
1.5013588259436053,0.04519857422015515,0.06195783203595016,0.038338310339186395,0.10981906550645737,-0.05916873344371651
1.5014303430985318,0.04331902735671992,0.058177775239087785,0.03525172960142179,0.10678879654468137,-0.058839478005743656
1.5015018602534584,0.03989064242203222,0.05025885061460584,0.029380562295107576,0.10012712908742163,-0.05752375346635805
1.501573377408385,0.035207008956161204,0.04092918233177834,0.02275340008029923,0.09175920291012515,-0.05539005673716987
1.5016448945633116,0.029854908046904056,0.03245998077667749,0.01716592382272006,0.08224342181859938,-0.051708779527465026
1.5017164117182382,0.02460404968418353,0.025434710912969748,0.01272729457488559,0.07229042532612959,-0.04695735351222658
1.5017879288731648,0.020274028275387688,0.021229994319012273,0.010756457121333964,0.06342834347974244,-0.041452152391908505
1.5018594460280914,0.01756978332877583,0.019200771620535902,0.009814843547662735,0.05712643944486774,-0.03724339864111404
1.501930963183018,0.016887968997375314,0.018804017349400914,0.009773529530205848,0.05067487940921381,-0.0323404702020172
1.5020024803379446,0.018154766828972088,0.01801307344722922,0.009545857603491862,0.04556228102980147,-0.0285828108890364
1.5020739974928712,0.020807783027131654,0.018694275081500275,0.00997328939183271,0.04239318747261736,-0.025886388398118455
1.5021455146477978,0.023992628107040868,0.021470284476853774,0.01144212206274167,0.04243702473997096,-0.024969441465531494
1.5022170318027244,0.026898257150269028,0.026267361211148053,0.014028974316248104,0.04646689149520757,-0.026372737934691217
1.502288548957651,0.029041972437567,0.03133049038116531,0.016679671046279716,0.05281867732730509,-0.029509411838523205
1.5023600661125776,0.03036170293294545,0.03672056442372876,0.019990738498687276,0.060134285773884195,-0.03295764715093009
1.5024315832675041,0.031115659296329378,0.037554468669710454,0.02077896981185265,0.06544538321113952,-0.036509257353603414
1.5025031004224307,0.031680428730509906,0.034717475477103396,0.019519808615351825,0.06715723630191615,-0.03863415837371886
1.5025746175773573,0.032340192227813126,0.03079531762665238,0.018649627815208736,0.06509986151393106,-0.037623508006827816
1.502646134732284,0.033131945974426154,0.02785132190073561,0.017871043624403338,0.0609098554168688,-0.034922982342419355
1.5027176518872105,0.033797027787609374,0.02727649243179971,0.01799769758677829,0.059020552327664975,-0.03339645314780396
1.502789169042137,0.033871437590867574,0.025916092424873416,0.017486670760106647,0.05644911654823761,-0.031761550315735396
1.5028606861970637,0.03289397904446062,0.022569124404000475,0.015274482970942199,0.05232585475578532,-0.03004238261625036
1.5029322033519903,0.030638444170610023,0.018770985464872575,0.012011118949132128,0.04806786035123737,-0.02890136247453633
1.5030037205069169,0.02725242384486997,0.016715180187547952,0.009441040885373031,0.04521551853337487,-0.02838581743571702
1.5030752376618435,0.023245599290448483,0.018147627400913025,0.008606550278537486,0.04471992258624112,-0.02854723155480444
1.50314675481677,0.019358366958489085,0.021557895501026617,0.008953985446160287,0.04479874316479157,-0.028382654560868546
1.5032182719716967,0.01638051368297583,0.02589875105729421,0.010426555451109277,0.04540391097117454,-0.027892073330935904
1.5032897891266233,0.01497089818834955,0.02999697218247355,0.012350463029946239,0.04487160502240225,-0.02624067925049756
1.5033613062815498,0.015499460648454992,0.03324955379852231,0.013981854206916533,0.04388091758009902,-0.02442835712460152
1.5034328234364764,0.01793079665045714,0.03353590346326335,0.01416864675154985,0.041158697506194594,-0.022228882128144428
1.503504340591403,0.021792554285279486,0.03278448489795161,0.013806564009865633,0.03840196511334249,-0.020358664282462885
1.5035758577463296,0.026283745634476982,0.03541282325537153,0.015751292513310384,0.038991748362083384,-0.019550072536819327
1.5036473749012562,0.03053094650102892,0.040822832279011,0.019003856556851165,0.044848841181019526,-0.021916421025664285
1.5037188920561828,0.03389868374654469,0.04806486798131091,0.02304438568669538,0.05575683757925473,-0.027633480381544468
1.5037904092111094,0.03619247413189749,0.05693175606867305,0.02836367437687625,0.06864564877996676,-0.034044382060178464
1.503861926366036,0.03764566473947448,0.06354169112733692,0.03246316988130233,0.08093104270420297,-0.04079528436646388
1.5039334435209626,0.038716510453014726,0.06662972330043969,0.03408384953452373,0.0906375705762276,-0.047188063680725326
1.5040049606758892,0.0398171228344044,0.06803348988701817,0.03557140334761458,0.09772150575522787,-0.051662059395928966
1.5040764778308158,0.041095739566223526,0.07121845194721203,0.037525773851031737,0.10279240656532115,-0.05429092412406022
1.5041479949857424,0.04234364882306056,0.07448226900043974,0.038887791087543686,0.10699102982259315,-0.05663595833301304
1.504219512140669,0.043051695709888996,0.07592677943996104,0.03921573232033744,0.1096568711986295,-0.058474443066828814
1.5042910292955955,0.04260283060723393,0.07138864079283828,0.036347749549566495,0.10791020459393329,-0.058991303853697795
1.5043625464505221,0.04053910287302065,0.06060633439962166,0.030363706364527798,0.10056285611300764,-0.05722154818047491
1.5044340636054487,0.03679439695722014,0.04693441087564156,0.02344001313236871,0.08888723440822154,-0.05274227639888383
1.5045055807603753,0.03178229372791513,0.034935977953323955,0.01698689592080203,0.07802724286745163,-0.0485945398840871
1.504577097915302,0.026296542555493532,0.02675184270912867,0.012446934359831944,0.06837468649751752,-0.0441422424710479
1.5046486150702285,0.021278189004975218,0.023754049008283602,0.011187449324425095,0.06089659386449356,-0.039237556999484065
1.504720132225155,0.017555651134353225,0.022830986319004543,0.011283372248322305,0.054256745509677094,-0.034100388031546025
1.5047916493800817,0.01564621916050789,0.02175682296058745,0.010644076718018416,0.04844408275810827,-0.030073237909405394
1.5048631665350083,0.015656872938766518,0.019575635528788465,0.009217644422453899,0.04174021981408168,-0.025876753648274207
1.5049346836899349,0.017286051262519187,0.01804007280401679,0.008230188330603324,0.0365618773424354,-0.02256267735489989
1.5050062008448615,0.019918755698584013,0.018055871982686492,0.007905738300784866,0.03308573224756919,-0.0201196592172363
1.505077717999788,0.022804926807040774,0.020449192857870484,0.009361654152707073,0.03129988435535297,-0.017814842774724983
1.5051492351547147,0.025289013466251117,0.025648056048408297,0.011726326065843064,0.03618050296426945,-0.020009323726830112
1.5052207523096413,0.027015644551186973,0.03092148118432548,0.014241445734319206,0.042734338769524045,-0.02338481621726244
1.5052922694645678,0.028012475009877,0.0335803966255363,0.015961322224474977,0.046948812478513846,-0.02549008036096713
1.5053637866194944,0.028596359216805502,0.030321333484954225,0.014919408532213189,0.04708314169802606,-0.026267098013082673
1.505435303774421,0.02915112616185344,0.023627063779588776,0.013309044659559194,0.04405253086257992,-0.02499485052296238
1.5055068209293476,0.029900153036102176,0.018823940233979933,0.012321918805932341,0.04012698481739609,-0.02263642074681617
1.5055783380842742,0.030782681811496897,0.017960211084453583,0.01250866989698158,0.038119339800384476,-0.020982939527807092
1.5056498552392008,0.03146961942071043,0.020240460696644934,0.013496870470295333,0.03991723381016251,-0.02171586853576364
1.5057213723941274,0.03149161794629547,0.021479115076889665,0.013134126432083434,0.04246408330729224,-0.023895136347568704
1.505792889549054,0.030427310908792447,0.0211212680503043,0.011855838401314541,0.043294721559052646,-0.025356623291750535
1.5058644067039806,0.02809465201809536,0.019072844346556664,0.009674998552531539,0.04224537777629865,-0.025966531625134036
1.5059359238589072,0.024683284499830333,0.015396837228651934,0.006168765257997816,0.04067231131129263,-0.027033850514897307
1.5060074410138338,0.020766913938386953,0.0130650431682329,0.003987129865862614,0.0389062338991888,-0.02709684867460179
1.5060789581687604,0.017165658691511196,0.014139077036113255,0.004506773893992003,0.037001962329113056,-0.02530728916412505
1.506150475323687,0.014695536880755058,0.016621066248201095,0.005603202541494299,0.03542136412367789,-0.023391732530517823
1.5062219924786135,0.013907828977730352,0.01873467989193179,0.006474304461408025,0.032816762674180745,-0.020840522558464383
1.5062935096335401,0.014929925183180436,0.019043781299510693,0.007024475314287043,0.028005614417725273,-0.016813569639155878
1.5063650267884667,0.01746107614733839,0.017798337290313958,0.006681651925523114,0.023723404682487213,-0.0137685628636317
1.5064365439433933,0.020900617081537138,0.01920075780793128,0.008103902228742074,0.021567191833576135,-0.01120352934413184
1.50650806109832,0.024545654709518663,0.023350654123816855,0.01119024144466396,0.021820285423027365,-0.009399319811323723
1.5065795782532465,0.027795889555703463,0.030667092568502443,0.015188716512202768,0.028925585852427355,-0.012231824192187588
1.506651095408173,0.030315638754338018,0.040287496897916275,0.02020329875354711,0.03893853705096089,-0.016626869738977396
1.5067226125630997,0.03210575674634778,0.049968238861718424,0.02516307524326057,0.05054363577343597,-0.022276959026624698
1.5067941297180263,0.03344435853615213,0.05557968155809314,0.02809340030703321,0.05921047122634113,-0.027002085300248245
1.5068656468729529,0.03469846610783441,0.05604892942291667,0.028836225363534616,0.06295914203324042,-0.029387340655316275
1.5069371640278795,0.03608805388876267,0.054848560277455015,0.029158238083419115,0.06302300540777943,-0.029227440660013714
1.507008681182806,0.03753193323000867,0.054468503055820905,0.029645090979329304,0.06314954700441082,-0.029008605553242677
1.5070801983377327,0.038657419159163646,0.05461749053708501,0.03000532215028713,0.06258711576120343,-0.028344863895048745
1.5071517154926592,0.038950459296790155,0.05338085065844977,0.029635790998015537,0.06038467029770362,-0.026900074294734493
1.5072232326475858,0.03795818995272562,0.04784075131140048,0.026170643808596194,0.05614658118742076,-0.025905894331199764
1.5072947498025124,0.035465807062779846,0.040812768377504055,0.02167628316777021,0.050283862747028396,-0.02433729930421643
1.507366266957439,0.03160750390290827,0.03501101446302808,0.01779655130545853,0.04530094747816486,-0.023043413142861784
1.5074377841123656,0.02689036393457737,0.030120616169606027,0.014369878001425985,0.04216656113043713,-0.02286815744133389
1.5075093012672922,0.022110982309926926,0.025849162920767763,0.012274203971852665,0.03864811371819395,-0.02153832552990042
1.5075808184222188,0.018158898886019043,0.023182860407601515,0.010838451012952628,0.036801473061100806,-0.021057869542839572
1.5076523355771454,0.015750547010193554,0.02151892547440886,0.009985828883372298,0.03388091258298721,-0.019380566228879896
1.507723852732072,0.015198153002695225,0.01832906990690674,0.008495434228764531,0.02811402661397532,-0.01594450875469605
1.5077953698869986,0.01632710132796861,0.013999719719324144,0.006411917338543193,0.021188200569413757,-0.012009261170220536
1.5078668870419252,0.01858159605132472,0.010796128239609494,0.00521914285473996,0.01507822476674135,-0.008120993771940371
1.5079384041968518,0.02125563485920751,0.00895753518654946,0.005152249488431391,0.009636107990865717,-0.004014169204332511
1.5080099213517784,0.023737553869918368,0.008884651886684986,0.0057615299185219465,0.007539865628357262,-0.00202147129468108
1.508081438506705,0.025680396681245936,0.010975289569371069,0.007453924502377228,0.008898215448705489,-0.0019621961241142348
1.5081529556616315,0.027059576075294776,0.012966020984019212,0.008842952470356694,0.011952567539029652,-0.0033925056231582955
1.5082244728165581,0.028112039179855254,0.012241917029872297,0.008942296206187028,0.013346053217083449,-0.004390879804642109
1.5082959899714847,0.029172386947160022,0.010016052395684297,0.008780907310022895,0.01431376272932547,-0.005233301666444518
1.5083675071264113,0.03045818310099522,0.009919486819453167,0.010026451111954632,0.01569170310433448,-0.005478144679310077
1.508439024281338,0.03190386747651281,0.013950688948360174,0.012747040105629182,0.018858037777124442,-0.006132313303440979
1.5085105414362645,0.03314377564440417,0.020075628748772063,0.01600259242207933,0.023921215702586218,-0.007887047116571953
1.508582058591191,0.03366149064758627,0.025098533059820346,0.0186299276568245,0.028687757258584686,-0.009822457051826761
1.5086535757461177,0.03301661123576188,0.02485809117693525,0.017302793300784304,0.030088532145473555,-0.0117505448083354
1.5087250929010443,0.031031763736761156,0.020634505808652684,0.013978643770450466,0.027959515992734944,-0.012278024397347681
1.5087966100559709,0.02787943173947238,0.015089738590576553,0.009773118861112214,0.023667920820193464,-0.011725810392410954
1.5088681272108975,0.024071143965329337,0.009977913710185525,0.005405399448016361,0.020452716028670118,-0.012099512315990019
1.508939644365824,0.020368522042175177,0.005998530448702218,0.002619426200917792,0.017673782791585532,-0.011782500903753297
1.5090111615207507,0.017622660517009992,0.004175667768870978,0.001280243020763253,0.017232748729599574,-0.012312529504030886
1.5090826786756772,0.016549556574789192,0.0035531017816446443,0.001094148915450876,0.016960633238464425,-0.01222539312086806
1.5091541958306038,0.01749078347259404,0.003567489283397026,0.001728275756159572,0.015108651825888839,-0.010402765024656237
1.5092257129855304,0.02026609634215111,0.004068558741751946,0.002622344403247119,0.012515857228186284,-0.00784705437898272
1.509297230140457,0.024225306810832306,0.00752286859394505,0.005090188490138515,0.012020279860712621,-0.0058724193938353994
1.5093687472953836,0.028505184243561566,0.01573013979963862,0.010396256019729185,0.014560998121149108,-0.004376516314610454
1.5094402644503102,0.032363241212534366,0.02717814678884638,0.017181792517199104,0.020930784351986018,-0.004842594686566861
1.5095117816052368,0.035420479974014,0.03982263946602457,0.023785576506019895,0.029858779829801826,-0.007376961407454019
1.5095832987601634,0.03772295943106026,0.04914799252830036,0.028541189697550762,0.03619859983159557,-0.00913357302417017
1.50965481591509,0.039632532833370364,0.05179277033531401,0.030196375009199177,0.03867450865699775,-0.009950519624665222
1.5097263330700166,0.041605230836871475,0.04688270712953743,0.028415936049993602,0.03758322186601607,-0.010271591522124517
1.5097978502249432,0.04392716574129624,0.03928655313342251,0.026087173799228647,0.03174983548879793,-0.007328795300408192
1.5098693673798698,0.04649881119729661,0.03487121329633067,0.025125670272120693,0.025042441057792682,-0.0028344944387351883
1.5099408845347964,0.048782229516577,0.03503932265615676,0.025898717163670308,0.0220537287913138,-5.409971317679185e-05
1.510012401689723,0.04998265464348263,0.038065948628093024,0.027970420605425636,0.021337235152380632,0.001834485865289846
1.5100839188446495,0.04939582665258717,0.03861392317468198,0.02744804663090382,0.019838105668079777,0.0026393045128237282
1.5101554359995761,0.046726633743720845,0.03611545793091783,0.024915387052692306,0.017217506230980822,0.0029971335957762095
1.5102269531545027,0.04221494386441091,0.03322733663221949,0.022036546886626967,0.014269273926126707,0.0033809249960549542
1.5102984703094293,0.0365554045951188,0.03163290252694964,0.019143160662124768,0.014274129303210703,0.0015038634623395402
1.510369987464356,0.030705701566729478,0.0318598505671129,0.01712115674686206,0.016725621878477554,-0.0016746417260221666
1.5104415046192825,0.025671938650474672,0.033377800833902196,0.016152578444133103,0.020660340238122445,-0.0053026039306783975
1.510513021774209,0.02230380117340663,0.035328208390963754,0.01595046449902194,0.024372420069923007,-0.00826499006793146
1.5105845389291357,0.02110478427342222,0.034012282198501,0.014310671393420193,0.024814808707493263,-0.009663957482760274
1.5106560560840623,0.022087028251984653,0.0286858279241066,0.011927341615445858,0.020164024784209256,-0.007658941558649561
1.5107275732389889,0.02474352062355467,0.02002526728640708,0.008315005741078718,0.013067944327229205,-0.0045847130579433435
1.5107990903939155,0.028206425428266402,0.013353415478605931,0.006455089330600415,0.00684675217943795,-0.0010441927339340264
1.510870607548842,0.03156791810921427,0.010168832390286684,0.006924877381908108,0.003499294968381232,0.0018122381421905522
1.5109421247037687,0.034217944840168574,0.010413709011563986,0.0085255112555674,0.004973595878065589,0.0017237846725890885
1.5110136418586952,0.036025983655989566,0.013871573187417814,0.01161661354179527,0.009329963275739149,0.0004022810676987749
1.5110851590136218,0.03729532439305516,0.015601908893028248,0.013294021431409462,0.013868078259595656,-0.0019727071363074685
1.5111566761685484,0.03854470610167679,0.014139678766372246,0.013163190298163863,0.018274659747155225,-0.005418025709475142
1.511228193323475,0.04022460916569971,0.012613048260335567,0.013651672900344249,0.020325852234197618,-0.006666331360190088
1.5112997104784016,0.04246467581659284,0.013423304344658838,0.01442102957265151,0.021593391722375274,-0.007135167403654481
1.5113712276333282,0.04493429586497486,0.018524201794138846,0.016921655013448497,0.025158325910543778,-0.00823579086421835
1.5114427447882548,0.04689231770787431,0.02461683494337326,0.019784155718843215,0.02933887277585046,-0.00957185661570312
1.5115142619431814,0.047454803887083834,0.02726018507915525,0.02007376929597759,0.030592419481506383,-0.010340800140245094
