freq,gls,usurper,pdc_unbiased,shape_periodogram,shift_periodogram
1.5,0.031605246424144244,0.03268051339272951,0.022003088454338578,0.04929036702495254,-0.021227763699029095
1.5000715171549266,0.028595336453250155,0.026065199511869565,0.01679692217781675,0.041442375941808995,-0.019001666131857855
1.5001430343098532,0.024797888546036324,0.020380713309194852,0.011419584810450916,0.03537432362014852,-0.018200444077424806
1.5002145514647798,0.020789812632417533,0.01859496151880025,0.008796510756732951,0.03052002463812989,-0.016418852167723395
1.5002860686197064,0.017345459787468324,0.02120045276480442,0.009479677332466734,0.028878754859567715,-0.014749555213996363
1.500357585774633,0.015271945925960987,0.025745841895843502,0.011714688134418397,0.029433890187061072,-0.013637922903936828
1.5004291029295596,0.015165201318802408,0.03102871584876606,0.01415548030345099,0.03425748315049708,-0.015520368210988079
1.5005006200844861,0.01716595655706576,0.03593736280857911,0.016954003693511403,0.03776948118601343,-0.016196788411128024
1.5005721372394127,0.02086274426290797,0.039722458011498624,0.019187221778694714,0.04122603165979604,-0.017217077554642708
1.5006436543943393,0.02544081002802935,0.04304742824744384,0.02137618975240262,0.04479104645034516,-0.018347423784092643
1.500715171549266,0.03000884122307953,0.04658867268215534,0.02421994995090846,0.04753651235011407,-0.018430106688536705
1.5007866887041925,0.03391266896856934,0.05065689117843688,0.02666061786266369,0.05415124668542492,-0.021631892610650603
1.500858205859119,0.0368882624749449,0.05521587159838378,0.029368029530911475,0.06265162566907223,-0.02604195337918141
1.5009297230140457,0.0390355018056212,0.060243832414752056,0.03287087235373193,0.07336102396306035,-0.03154218589267326
1.5010012401689723,0.04067274274449097,0.06201304414484441,0.0349635290275476,0.08224209150392812,-0.036663620979032
1.5010727573238989,0.04213722341942038,0.06220559918768796,0.036798409825528795,0.08820639599194663,-0.03981418638191696
1.5011442744788255,0.043587855733941964,0.06216246973818337,0.03793328428010061,0.09355122533749803,-0.04298784846225501
1.501215791633752,0.044880915226329254,0.061693772864630333,0.03824814004694497,0.09748626059974369,-0.04568152982634495
1.5012873087886787,0.045592465454410994,0.06259509131783379,0.03896037083855539,0.10191076901965479,-0.04846805762411758
1.5013588259436053,0.04519857422015515,0.0618937231436842,0.038338310339186395,0.10312167130333257,-0.04978841909024115
1.5014303430985318,0.04331902735671992,0.058312581223011764,0.03525172960142179,0.10204750297665566,-0.05109835638150693
1.5015018602534584,0.03989064242203222,0.0506480435865341,0.029380562295107576,0.09710505788212495,-0.05144316277225519
1.501573377408385,0.035207008956161204,0.04160763211364977,0.02275340008029923,0.09047055679002747,-0.05105142483962958
1.5016448945633116,0.029854908046904056,0.033345461664473636,0.01716592382272006,0.08156888563181246,-0.04828153533124502
1.5017164117182382,0.02460404968418353,0.02642288637122087,0.01272729457488559,0.07196384431176973,-0.04421871319908071
1.5017879288731648,0.020274028275387688,0.02227432190060622,0.010756457121333964,0.06329551460657709,-0.03917573205403173
1.5018594460280914,0.01756978332877583,0.020257369193257817,0.009814843547662735,0.057609051669615476,-0.03563185091351988
1.501930963183018,0.016887968997375314,0.019749395842757478,0.009773529530205848,0.0511431001105825,-0.030905287824020154
1.5020024803379446,0.018154766828972088,0.018898880558338434,0.009545857603491862,0.045148573184591284,-0.02665414029659585
1.5020739974928712,0.020807783027131654,0.019426785622106753,0.00997328939183271,0.0403509902740634,-0.02283881985147591
1.5021455146477978,0.023992628107040868,0.021925588147741475,0.01144212206274167,0.03842784945432011,-0.020427803852849157
1.5022170318027244,0.026898257150269028,0.026411220104939608,0.014028974316248104,0.040574159761258353,-0.020245887130334057
1.502288548957651,0.029041972437567,0.031180223350682726,0.016679671046279716,0.045148778779903816,-0.02180474539321818
1.5023600661125776,0.03036170293294545,0.036285650095508326,0.019990738498687276,0.05124857293759702,-0.024036377853244313
1.5024315832675041,0.031115659296329378,0.037068303927680686,0.02077896981185265,0.05658272286739863,-0.027422818962137413
1.5025031004224307,0.031680428730509906,0.03440910064527713,0.019519808615351825,0.05916925994638625,-0.030182105458810025
1.5025746175773573,0.032340192227813126,0.03083404977379033,0.018649627815208736,0.058444352636427346,-0.030240638518167287
1.502646134732284,0.033131945974426154,0.02815868365641646,0.017871043624403338,0.055513582351280885,-0.02861434712529203
1.5027176518872105,0.033797027787609374,0.027643204158827376,0.01799769758677829,0.054283422987824154,-0.02762350913239845
1.502789169042137,0.033871437590867574,0.02633391655050765,0.017486670760106647,0.05229178284891643,-0.0265065184273708
1.5028606861970637,0.03289397904446062,0.023155678357618382,0.015274482970942199,0.04912777042984539,-0.02568466219386825
1.5029322033519903,0.030638444170610023,0.01956599802221866,0.012011118949132128,0.046272986294925746,-0.025804907954971746
1.5030037205069169,0.02725242384486997,0.017648801729009383,0.009441040885373031,0.04429258927934103,-0.0260963935730757
1.5030752376618435,0.023245599290448483,0.019093017717645565,0.008606550278537486,0.043894471405436,-0.02637096224793037
1.50314675481677,0.019358366958489085,0.022416557641535252,0.008953985446160287,0.04412202400875607,-0.02630205769850966
1.5032182719716967,0.01638051368297583,0.026607704527365668,0.010426555451109277,0.04475305461484104,-0.025764972250703434
1.5032897891266233,0.01497089818834955,0.030638722394317267,0.012350463029946239,0.045318097056294,-0.024872516904557808
1.5033613062815498,0.015499460648454992,0.03375106500400996,0.013981854206916533,0.044763356083106644,-0.023355850770491862
1.5034328234364764,0.01793079665045714,0.03397062509972115,0.01416864675154985,0.041389217937744145,-0.02074970872013719
1.503504340591403,0.021792554285279486,0.033158000449845605,0.013806564009865633,0.0370085204469848,-0.01777796990949158
1.5035758577463296,0.026283745634476982,0.035566241749778765,0.015751292513310384,0.035524089174963226,-0.015365502901885122
1.5036473749012562,0.03053094650102892,0.04065702380050173,0.019003856556851165,0.039479611982736994,-0.016058845105264757
1.5037188920561828,0.03389868374654469,0.047656293120097844,0.02304438568669538,0.04897487372290781,-0.020287324547335093
1.5037904092111094,0.03619247413189749,0.05629271832684306,0.02836367437687625,0.06076316804816785,-0.025336172095432243
1.503861926366036,0.03764566473947448,0.06291300310718416,0.03246316988130233,0.07307915525569895,-0.03161230989500957
1.5039334435209626,0.038716510453014726,0.06617699541857672,0.03408384953452373,0.08417777651268787,-0.038691391260486534
1.5040049606758892,0.0398171228344044,0.06784654779576398,0.03557140334761458,0.09275692908344048,-0.04401164187251925
1.5040764778308158,0.041095739566223526,0.07121330897559515,0.037525773851031737,0.09936738539353064,-0.04756524834811684
1.5041479949857424,0.04234364882306056,0.07445403355745243,0.038887791087543686,0.10465316845110838,-0.05054706650948385
1.504219512140669,0.043051695709888996,0.07577187821366796,0.03921573232033744,0.10796825558228933,-0.052777903091528015
1.5042910292955955,0.04260283060723393,0.07118783733925105,0.036347749549566495,0.1069792759150742,-0.05400153448981266
1.5043625464505221,0.04053910287302065,0.060579560898989915,0.030363706364527798,0.10073908133600037,-0.05346086654782819
1.5044340636054487,0.03679439695722014,0.04724074878425118,0.02344001313236871,0.08986379446515058,-0.05013632809965922
1.5045055807603753,0.03178229372791513,0.03557971546351347,0.01698689592080203,0.07978954643960107,-0.047091127740044744
1.504577097915302,0.026296542555493532,0.02761608608891727,0.012446934359831944,0.07057246270388345,-0.0433843999046499
1.5046486150702285,0.021278189004975218,0.0247346002002743,0.011187449324425095,0.06343251877529245,-0.03898371690748718
1.504720132225155,0.017555651134353225,0.02388451277535014,0.011283372248322305,0.05769857572109229,-0.03469982234786976
1.5047916493800817,0.01564621916050789,0.022788832094357867,0.010644076718018416,0.052918523496167665,-0.03161899486644378
1.5048631665350083,0.015656872938766518,0.020569675776390767,0.009217644422453899,0.046234586937468146,-0.02767524173690791
1.5049346836899349,0.017286051262519187,0.018986173092365104,0.008230188330603324,0.03956316565027973,-0.023444726269207034
1.5050062008448615,0.019918755698584013,0.018825520746157776,0.007905738300784866,0.033735471505777624,-0.0193851950305194
1.505077717999788,0.022804926807040774,0.020922434564699992,0.009361654152707073,0.02929710428557772,-0.015136904816484364
1.5051492351547147,0.025289013466251117,0.025685280019604562,0.011726326065843064,0.031916202050857975,-0.015452554512912895
1.5052207523096413,0.027015644551186973,0.030546985809698828,0.014241445734319206,0.03704309523472281,-0.017507699116808165
1.5052922694645678,0.028012475009877,0.0330540436510452,0.015961322224474977,0.04092718734457356,-0.019191387815406063
1.5053637866194944,0.028596359216805502,0.029975878966203746,0.014919408532213189,0.0421205709110312,-0.020776585338550455
1.505435303774421,0.02915112616185344,0.023773345879513776,0.013309044659559194,0.040926338789690764,-0.020994052013226083
1.5055068209293476,0.029900153036102176,0.019399627493802724,0.012321918805932341,0.0391383685863986,-0.02035166024907395
1.5055783380842742,0.030782681811496897,0.018732483433715516,0.01250866989698158,0.038505271581260714,-0.019759673078644093
1.5056498552392008,0.03146961942071043,0.02097998247316812,0.013496870470295333,0.04076854223570029,-0.02075043862947407
1.5057213723941274,0.03149161794629547,0.022131338788698062,0.013134126432083434,0.04344966729372121,-0.02296686116721595
1.505792889549054,0.030427310908792447,0.021765642389455993,0.011855838401314541,0.04450484872884807,-0.024611130075780616
1.5058644067039806,0.02809465201809536,0.019703991037717986,0.009674998552531539,0.04305557166513702,-0.02502849537057727
1.5059359238589072,0.024683284499830333,0.01605811003815958,0.006168765257997816,0.04092534231914823,-0.025846097420499294
1.5060074410138338,0.020766913938386953,0.01380527411107791,0.003987129865862614,0.038672731436529245,-0.025673720072155595
1.5060789581687604,0.017165658691511196,0.014939197255850965,0.004506773893992003,0.03676394610719034,-0.02391879692435523
1.506150475323687,0.014695536880755058,0.017402495933773555,0.005603202541494299,0.03606816957388796,-0.022662857999681967
1.5062219924786135,0.013907828977730352,0.01947604885959709,0.006474304461408025,0.03489311702777753,-0.02120802870349165
1.5062935096335401,0.014929925183180436,0.01971588005948747,0.007024475314287043,0.030729121966388794,-0.017776663226967963
1.5063650267884667,0.01746107614733839,0.018425263902235544,0.006681651925523114,0.026052321971898357,-0.014576302673003215
1.5064365439433933,0.020900617081537138,0.019703298502890192,0.008103902228742074,0.022736803163822466,-0.0111761220781476
1.50650806109832,0.024545654709518663,0.0235640335324372,0.01119024144466396,0.020579352174952825,-0.0074949488296977805
1.5065795782532465,0.027795889555703463,0.03046376347559197,0.015188716512202768,0.025045204001296596,-0.008054443556372472
1.506651095408173,0.030315638754338018,0.03964641861249182,0.02020329875354711,0.03297762136209499,-0.010467792031584672
1.5067226125630997,0.03210575674634778,0.048940893294912274,0.02516307524326057,0.04308506759953434,-0.014517073264945298
1.5067941297180263,0.03344435853615213,0.054444300429821804,0.02809340030703321,0.05223838872260277,-0.019249848690292354
1.5068656468729529,0.03469846610783441,0.05514319180568438,0.028836225363534616,0.05790482291492422,-0.02291137737507502
1.5069371640278795,0.03608805388876267,0.05430295000839098,0.029158238083419115,0.06071659176070613,-0.024760812488834525
1.507008681182806,0.03753193323000867,0.05417797815490198,0.029645090979329304,0.06349492166571155,-0.0264739371939521
1.5070801983377327,0.038657419159163646,0.05433573364252969,0.03000532215028713,0.06457324190414039,-0.02702232567166332
1.5071517154926592,0.038950459296790155,0.05311687054279974,0.029635790998015537,0.06359888821619868,-0.0265567962094719
1.5072232326475858,0.03795818995272562,0.04765962120593366,0.026170643808596194,0.060348501187177106,-0.026524164197520343
1.5072947498025124,0.035465807062779846,0.04070361868000653,0.02167628316777021,0.05471944733131556,-0.02544192177905867
1.507366266957439,0.03160750390290827,0.03495270204035542,0.01779655130545853,0.04915361853597238,-0.02398866513037954
1.5074377841123656,0.02689036393457737,0.03003618018827623,0.014369878001425985,0.04471936915910841,-0.02305972526008856
1.5075093012672922,0.022110982309926926,0.02575970329094222,0.012274203971852665,0.04012651107158286,-0.02110996406697253
1.5075808184222188,0.018158898886019043,0.02306266032175623,0.010838451012952628,0.03798770777141391,-0.02051484287432798
1.5076523355771454,0.015750547010193554,0.02140975158220117,0.009985828883372298,0.035870629967885634,-0.019539469274810255
1.507723852732072,0.015198153002695225,0.018287609595014232,0.008495434228764531,0.031001791433107436,-0.016977191853401213
1.5077953698869986,0.01632710132796861,0.01407148802572297,0.006411917338543193,0.02409934528976605,-0.013326087436974632
1.5078668870419252,0.01858159605132472,0.010947373583610278,0.00521914285473996,0.017298398667687755,-0.00914541533962091
1.5079384041968518,0.02125563485920751,0.00909689520736251,0.005152249488431391,0.010442409717988117,-0.004160163844688396
1.5080099213517784,0.023737553869918368,0.008956556319444253,0.0057615299185219465,0.006937964677451363,-0.0011749157397504392
1.508081438506705,0.025680396681245936,0.010916238881868125,0.007453924502377228,0.006690920889186206,0.0001564593159460403
1.5081529556616315,0.027059576075294776,0.012785897043158488,0.008842952470356694,0.008360247589674722,-0.0001242811822683326
1.5082244728165581,0.028112039179855254,0.012155418582344571,0.008942296206187028,0.009533904409007163,-0.0009178599642300835
1.5082959899714847,0.029172386947160022,0.010141097661343268,0.008780907310022895,0.010829562289357266,-0.001978174165034488
1.5083675071264113,0.03045818310099522,0.010217941842900263,0.010026451111954632,0.012900095613501984,-0.002650835061458378
1.508439024281338,0.03190386747651281,0.014321243202892726,0.012747040105629182,0.017323677202338825,-0.004047501073960436
1.5085105414362645,0.03314377564440417,0.020393655589246027,0.01600259242207933,0.023362867471053903,-0.006266264374444268
1.508582058591191,0.03366149064758627,0.025370054908154784,0.0186299276568245,0.02888576995710992,-0.008533674655221972
1.5086535757461177,0.03301661123576188,0.02517471832813764,0.017302793300784304,0.031129556177724116,-0.011083532572847823
1.5087250929010443,0.031031763736761156,0.02109716439582942,0.013978643770450466,0.029721215695663713,-0.012309788924924611
1.5087966100559709,0.02787943173947238,0.015724105387397498,0.009773118861112214,0.02562354165674604,-0.01216047724712992
1.5088681272108975,0.024071143965329337,0.010722789499295485,0.005405399448016361,0.02206357952192084,-0.01251591174509654
1.508939644365824,0.020368522042175177,0.006761616001002996,0.002619426200917792,0.018213059686063765,-0.011583231123930173
1.5090111615207507,0.017622660517009992,0.004810172778450325,0.001280243020763253,0.0166758771587274,-0.01136518883057303
1.5090826786756772,0.016549556574789192,0.004103652201056304,0.001094148915450876,0.01635276070945288,-0.01125453522036629
1.5091541958306038,0.01749078347259404,0.004070257323906672,0.001728275756159572,0.01463501192535682,-0.009563192972053481
1.5092257129855304,0.02026609634215111,0.004602405162074748,0.002622344403247119,0.011699363602372235,-0.0068016221562622915
1.509297230140457,0.024225306810832306,0.00805654046749728,0.005090188490138515,0.01009542382178917,-0.003947749986138622
1.5093687472953836,0.028505184243561566,0.01613017369112788,0.010396256019729185,0.011129992470094986,-0.0011007196944173956
1.5094402644503102,0.032363241212534366,0.027298611313883437,0.017181792517199104,0.015950907785365835,-2.5250166824643333e-05
1.5095117816052368,0.035420479974014,0.03951839328544145,0.023785576506019895,0.02354330338337285,-0.0011054480741503397
1.5095832987601634,0.03772295943106026,0.04850270373386084,0.028541189697550762,0.029529148661002473,-0.002262766916002775
1.50965481591509,0.039632532833370364,0.05105689254721019,0.030196375009199177,0.03284420501822429,-0.0035695921182293485
1.5097263330700166,0.041605230836871475,0.046273985289832315,0.028415936049993602,0.03291590740980871,-0.0048342699109728375
1.5097978502249432,0.04392716574129624,0.03892355045389293,0.026087173799228647,0.02811181921797253,-0.002892523420314735
1.5098693673798698,0.04649881119729661,0.03469079935748523,0.025125670272120693,0.022699578553011638,0.0004254127889589565
1.5099408845347964,0.048782229516577,0.03488381828601716,0.025898717163670308,0.020902559564854626,0.0022699987348682176
1.510012401689723,0.04998265464348263,0.037846222953040194,0.027970420605425636,0.02128574686343158,0.0033984405476484296
1.5100839188446495,0.04939582665258717,0.038404781798261255,0.02744804663090382,0.021205439614065034,0.0031019151146042525
1.5101554359995761,0.046726633743720845,0.03600780608487134,0.024915387052692306,0.01991449943775098,0.0023260116855821963
1.5102269531545027,0.04221494386441091,0.033195172603128646,0.022036546886626967,0.01758728663592262,0.002075375309242675
1.5102984703094293,0.0365554045951188,0.03161411891989907,0.019143160662124768,0.017696552674508537,2.751915275287338e-05
1.510369987464356,0.030705701566729478,0.03171983284653051,0.01712115674686206,0.01940983725756234,-0.0026046029667911737
1.5104415046192825,0.025671938650474672,0.03300995638471451,0.016152578444133103,0.022319095929558188,-0.005398218656052161
1.510513021774209,0.02230380117340663,0.03473372913062178,0.01595046449902194,0.025745237618979025,-0.008050352353543561
1.5105845389291357,0.02110478427342222,0.03320262406992007,0.014310671393420193,0.02598369981891887,-0.009340302595799597
1.5106560560840623,0.022087028251984653,0.027859085259682156,0.011927341615445858,0.0208821013301129,-0.007216092141340084
1.5107275732389889,0.02474352062355467,0.019428820444397307,0.008315005741078718,0.013245155933500915,-0.004067218010635802
1.5107990903939155,0.028206425428266402,0.013016548551624704,0.006455089330600415,0.006095925475345865,-8.580843984444536e-05
1.510870607548842,0.03156791810921427,0.010039289075684922,0.006924877381908108,0.0017432126968757128,0.0034268111852836644
1.5109421247037687,0.034217944840168574,0.01039709162210714,0.0085255112555674,0.002381432038281036,0.004046341283775608
1.5110136418586952,0.036025983655989566,0.013860458606721696,0.01161661354179527,0.006034397270994356,0.0034672006148208094
1.5110851590136218,0.03729532439305516,0.01566463567515352,0.013294021431409462,0.010567582436993024,0.0012815518321113047
1.5111566761685484,0.03854470610167679,0.014438659354265925,0.013163190298163863,0.015603107426332419,-0.0025020675870791355
1.511228193323475,0.04022460916569971,0.013185188826398134,0.013651672900344249,0.01814754291227941,-0.004037108817509507
1.5112997104784016,0.04246467581659284,0.014129717566348742,0.01442102957265151,0.019983689126737505,-0.004861532137467556
1.5113712276333282,0.04493429586497486,0.019185595646614758,0.016921655013448497,0.023620367101513863,-0.005830340034972045
1.5114427447882548,0.04689231770787431,0.025084144599530966,0.019784155718843215,0.027439895506426927,-0.0066872625007224655
1.5115142619431814,0.047454803887083834,0.027619892405038045,0.02007376929597759,0.029320407449793095,-0.00787075964506965
1.511585779098108,0.04599085839647899,0.024557810286620116,0.017243949592298295,0.027748269181931955,-0.008641160158483761
