freq,gls,usurper,pdc_unbiased,shape_periodogram,shift_periodogram
1.5,0.031605246424144244,0.030505024445325057,0.022003088454338578,0.03693036496732889,-0.004529555664083506
1.5000715171549266,0.028595336453250155,0.02401061432841866,0.01679692217781675,0.02986075138249768,-0.0044591174364579985
1.5001430343098532,0.024797888546036324,0.01837891698278509,0.011419584810450916,0.024418663308861617,-0.00550107611805518
1.5002145514647798,0.020789812632417533,0.01646674578043953,0.008796510756732951,0.020021362089061988,-0.004963829450573284
1.5002860686197064,0.017345459787468324,0.018838090575805856,0.009479677332466734,0.01840271064814813,-0.0034461833422031888
1.500357585774633,0.015271945925960987,0.02303006668307542,0.011714688134418397,0.018798574265070908,-0.0018941904752915702
1.5004291029295596,0.015165201318802408,0.027943623117365497,0.01415548030345099,0.02253193779173022,-0.0021786993838631965
1.5005006200844861,0.01716595655706576,0.03256241030267909,0.016954003693511403,0.02529214989040554,-0.001592881481302983
1.5005721372394127,0.02086274426290797,0.03608541945458349,0.019187221778694714,0.02784420099124969,-0.0013346941293388643
1.5006436543943393,0.02544081002802935,0.039168487071125246,0.02137618975240262,0.030764117405519143,-0.001332368361656813
1.500715171549266,0.03000884122307953,0.04248554573788345,0.02421994995090846,0.0327865237774687,-0.0002665982916446417
1.5007866887041925,0.03391266896856934,0.04630665955850253,0.02666061786266369,0.038589693462803575,-0.0017916870441101282
1.500858205859119,0.0368882624749449,0.050700155189539596,0.029368029530911475,0.04633145829824008,-0.004266905564683289
1.5009297230140457,0.0390355018056212,0.055630815332961346,0.03287087235373193,0.056164881646438,-0.00736165766560176
1.5010012401689723,0.04067274274449097,0.0574949252059691,0.0349635290275476,0.06390372725004366,-0.010332741696825796
1.5010727573238989,0.04213722341942038,0.05797686338339756,0.036798409825528795,0.06905438815148789,-0.011956461640079248
1.5011442744788255,0.043587855733941964,0.05819373429347446,0.03793328428010061,0.07356679557712534,-0.013759891322154631
1.501215791633752,0.044880915226329254,0.05794116883739382,0.03824814004694497,0.07673247718419118,-0.01541290611030227
1.5012873087886787,0.045592465454410994,0.05888744125608485,0.03896037083855539,0.07987831540321298,-0.01673515041823644
1.5013588259436053,0.04519857422015515,0.05822450931244513,0.038338310339186395,0.07988025916750642,-0.017236688605504643
1.5014303430985318,0.04331902735671992,0.05468460473506773,0.03525172960142179,0.0789215947023811,-0.019140992480448805
1.5015018602534584,0.03989064242203222,0.04710380656396944,0.029380562295107576,0.07474568490980965,-0.021342426711517305
1.501573377408385,0.035207008956161204,0.03831549022185694,0.02275340008029923,0.06959035619827111,-0.02355686395843405
1.5016448945633116,0.029854908046904056,0.03028436800454866,0.01716592382272006,0.06203380157296805,-0.023489275147845986
1.5017164117182382,0.02460404968418353,0.023584468130880352,0.01272729457488559,0.05368445011395264,-0.022024880823453923
1.5017879288731648,0.020274028275387688,0.01964503873965396,0.010756457121333964,0.046367492306690794,-0.019206507043839773
1.5018594460280914,0.01756978332877583,0.01772662994394852,0.009814843547662735,0.04190843270759948,-0.017282382273928157
1.501930963183018,0.016887968997375314,0.017259668748776085,0.009773529530205848,0.03728583467592372,-0.014540024978083668
1.5020024803379446,0.018154766828972088,0.016405948923346,0.009545857603491862,0.032935726886359526,-0.01211134498340153
1.5020739974928712,0.020807783027131654,0.016805090944137853,0.00997328939183271,0.029930164532914763,-0.009965555521235856
1.5021455146477978,0.023992628107040868,0.01907367752696722,0.01144212206274167,0.029188932167045604,-0.008344674449932967
1.5022170318027244,0.026898257150269028,0.02329671071383519,0.014028974316248104,0.031946779057367196,-0.00792773218436709
1.502288548957651,0.029041972437567,0.027769350516325772,0.016679671046279716,0.03633571606485055,-0.00843827897634414
1.5023600661125776,0.03036170293294545,0.03269824880747518,0.019990738498687276,0.04206134348990395,-0.009222121914866488
1.5024315832675041,0.031115659296329378,0.0334946598582194,0.02077896981185265,0.04627029641977202,-0.011117723248926837
1.5025031004224307,0.031680428730509906,0.031045421932630827,0.019519808615351825,0.04826612688220468,-0.01332580093759071
1.5025746175773573,0.032340192227813126,0.02784627271296772,0.018649627815208736,0.04727664567853787,-0.01342886191675721
1.502646134732284,0.033131945974426154,0.025505691100510177,0.017871043624403338,0.04442754682643856,-0.012341627236744658
1.5027176518872105,0.033797027787609374,0.02520946365684718,0.01799769758677829,0.04273192531699041,-0.011221927913264726
1.502789169042137,0.033871437590867574,0.02414740340388342,0.017486670760106647,0.040094215418209365,-0.010047756802750274
1.5028606861970637,0.03289397904446062,0.02121546645824586,0.015274482970942199,0.03718338926021474,-0.010072743467426181
1.5029322033519903,0.030638444170610023,0.01760307750444085,0.012011118949132128,0.03446287454245741,-0.011053709864575755
1.5030037205069169,0.02725242384486997,0.015524967480028094,0.009441040885373031,0.03254374395635688,-0.011960037087930187
1.5030752376618435,0.023245599290448483,0.016552390690968255,0.008606550278537486,0.031551648231665286,-0.012032849950640724
1.50314675481677,0.019358366958489085,0.019423151212108292,0.008953985446160287,0.031220190666796016,-0.011555770038660498
1.5032182719716967,0.01638051368297583,0.02323386651210846,0.010426555451109277,0.031123072132488147,-0.010318393781004102
1.5032897891266233,0.01497089818834955,0.026997617273023793,0.012350463029946239,0.031111796207608268,-0.008770992180410515
1.5033613062815498,0.015499460648454992,0.029980832086458003,0.013981854206916533,0.03057560774080116,-0.007142753906906644
1.5034328234364764,0.01793079665045714,0.030188832374399042,0.01416864675154985,0.027693923547354178,-0.005264335271680081
1.503504340591403,0.021792554285279486,0.029343954503889647,0.013806564009865633,0.02431811884697628,-0.0035293840948923513
1.5035758577463296,0.026283745634476982,0.031648949645289595,0.015751292513310384,0.02410811403272914,-0.001846016014635652
1.5036473749012562,0.03053094650102892,0.036462846083578374,0.019003856556851165,0.02881121698815339,-0.0020616235947230202
1.5037188920561828,0.03389868374654469,0.043000039036926174,0.02304438568669538,0.037622890357008595,-0.004110541939251587
1.5037904092111094,0.03619247413189749,0.051176633096084105,0.02836367437687625,0.048062378607824245,-0.006111896432896387
1.503861926366036,0.03764566473947448,0.05734493718732553,0.03246316988130233,0.058087922980003086,-0.008844579212572196
1.5039334435209626,0.038716510453014726,0.060286211188738816,0.03408384953452373,0.06736257886951552,-0.013119853631405711
1.5040049606758892,0.0398171228344044,0.06182019933676142,0.03557140334761458,0.07403987528880895,-0.015943441143416587
1.5040764778308158,0.041095739566223526,0.06499866475363024,0.037525773851031737,0.07948826420179862,-0.01765398509031798
1.5041479949857424,0.04234364882306056,0.0681558046717344,0.038887791087543686,0.08436963165729493,-0.019500757344544394
1.504219512140669,0.043051695709888996,0.06961182491633956,0.03921573232033744,0.08809800886462094,-0.021485736580713625
1.5042910292955955,0.04260283060723393,0.06557636797845766,0.036347749549566495,0.08867890985487946,-0.02414383181404259
1.5043625464505221,0.04053910287302065,0.055700410464528796,0.030363706364527798,0.08452163252954709,-0.026446071134490483
1.5044340636054487,0.03679439695722014,0.0432754225665042,0.02344001313236871,0.07570481401624198,-0.026689229930565557
1.5045055807603753,0.03178229372791513,0.03230138696598647,0.01698689592080203,0.06709870400425459,-0.02668107739396627
1.504577097915302,0.026296542555493532,0.02469126804088452,0.012446934359831944,0.05896794096356973,-0.02542655713273423
1.5046486150702285,0.021278189004975218,0.021873972425638336,0.011187449324425095,0.05215696890679816,-0.022340199821181586
1.504720132225155,0.017555651134353225,0.021031097985632144,0.011283372248322305,0.04676561626431919,-0.019023658386178154
1.5047916493800817,0.01564621916050789,0.019908791655349596,0.010644076718018416,0.04253359166198502,-0.016993726639814237
1.5048631665350083,0.015656872938766518,0.017726032951661162,0.009217644422453899,0.037177746943023615,-0.014920266508792666
1.5049346836899349,0.017286051262519187,0.016134923989196852,0.008230188330603324,0.031843343703926656,-0.012509229663388773
1.5050062008448615,0.019918755698584013,0.0157880511375292,0.007905738300784866,0.027362728685885504,-0.010080551100735208
1.505077717999788,0.022804926807040774,0.017707957637151266,0.009361654152707073,0.0243786907053143,-0.007124824074858669
1.5051492351547147,0.025289013466251117,0.022222783597827356,0.011726326065843064,0.027735588758241714,-0.007245171201542511
1.5052207523096413,0.027015644551186973,0.026836554291501637,0.014241445734319206,0.032536989027187525,-0.008111710338576062
1.5052922694645678,0.028012475009877,0.029225527007998887,0.015961322224474977,0.035467899638052955,-0.008492920753249065
1.5053637866194944,0.028596359216805502,0.026302813340741783,0.014919408532213189,0.03516915002571129,-0.009148244297243407
1.505435303774421,0.02915112616185344,0.020582194391751574,0.013309044659559194,0.03183381633959023,-0.008436543092667906
1.5055068209293476,0.029900153036102176,0.01659384084994642,0.012321918805932341,0.02856350803783889,-0.007264924913031261
1.5055783380842742,0.030782681811496897,0.016092039012082865,0.01250866989698158,0.027097814096684793,-0.006236088964746758
1.5056498552392008,0.03146961942071043,0.01832522190377847,0.013496870470295333,0.02874439638286235,-0.006432517425146792
1.5057213723941274,0.03149161794629547,0.01947872750191127,0.013134126432083434,0.031292442350959904,-0.008251788913654565
1.505792889549054,0.030427310908792447,0.019081869407650828,0.011855838401314541,0.03341223692480038,-0.010547535340641298
1.5058644067039806,0.02809465201809536,0.01712126668605296,0.009674998552531539,0.03337322428554092,-0.012270495566581054
1.5059359238589072,0.024683284499830333,0.01360678040524801,0.006168765257997816,0.03225707492500437,-0.01440790232617648
1.5060074410138338,0.020766913938386953,0.011384297743926958,0.003987129865862614,0.030232948849246957,-0.01493967367443377
1.5060789581687604,0.017165658691511196,0.012412639589653971,0.004506773893992003,0.027961324966207467,-0.013160696453521805
1.506150475323687,0.014695536880755058,0.014668078476253564,0.005603202541494299,0.02684423565233455,-0.011612799975049786
1.5062219924786135,0.013907828977730352,0.01649990387052519,0.006474304461408025,0.025192040231317533,-0.009924289043902992
1.5062935096335401,0.014929925183180436,0.01673752977059117,0.007024475314287043,0.02110268703011358,-0.007030959966409368
1.5063650267884667,0.01746107614733839,0.015530153062707318,0.006681651925523114,0.01743020577438952,-0.005102902859227049
1.5064365439433933,0.020900617081537138,0.01672420342019853,0.008103902228742074,0.014936574555690257,-0.002469056704037468
1.50650806109832,0.024545654709518663,0.020381520140171236,0.01119024144466396,0.013555593576099183,0.0008297307564263561
1.5065795782532465,0.027795889555703463,0.026897283943265866,0.015188716512202768,0.01817971955355189,0.0012585703174574565
1.506651095408173,0.030315638754338018,0.035545946505984145,0.02020329875354711,0.02591637906206067,0.0006355186215965993
1.5067226125630997,0.03210575674634778,0.044281071177196964,0.02516307524326057,0.035322032754272904,-0.001031696844233615
1.5067941297180263,0.03344435853615213,0.049352676523631386,0.02809340030703321,0.04337880608117725,-0.003516854372163906
1.5068656468729529,0.03469846610783441,0.04997565168750622,0.028836225363534616,0.04771262474100443,-0.005522793208992529
1.5069371640278795,0.03608805388876267,0.04924418049946444,0.029158238083419115,0.04958564387685171,-0.006389204289004575
1.507008681182806,0.03753193323000867,0.04924507221220753,0.029645090979329304,0.0517164375761476,-0.007278343807360951
1.5070801983377327,0.038657419159163646,0.049561548008498116,0.03000532215028713,0.052969166352806685,-0.007741788583812767
1.5071517154926592,0.038950459296790155,0.048632337279542956,0.029635790998015537,0.0526761907512929,-0.007862325887417084
1.5072232326475858,0.03795818995272562,0.0435804557696859,0.026170643808596194,0.051350647392006045,-0.009846037906983662
1.5072947498025124,0.035465807062779846,0.03705017412564791,0.02167628316777021,0.048561528668375556,-0.011774596024186656
1.507366266957439,0.03160750390290827,0.03165930476481379,0.01779655130545853,0.04553443705351018,-0.013066083679369034
1.5074377841123656,0.02689036393457737,0.027055271485645658,0.014369878001425985,0.042914719136226194,-0.014238322030150465
1.5075093012672922,0.022110982309926926,0.023177469657793458,0.012274203971852665,0.039295792810834916,-0.013744022086477802
1.5075808184222188,0.018158898886019043,0.02077745175747908,0.010838451012952628,0.03737419446404307,-0.013740282387246045
1.5076523355771454,0.015750547010193554,0.019300550961395782,0.009985828883372298,0.03507995804884909,-0.013045936988196855
1.507723852732072,0.015198153002695225,0.016321441627747065,0.008495434228764531,0.030042080013950163,-0.011215993347082547
1.5077953698869986,0.01632710132796861,0.012257641809881592,0.006411917338543193,0.023252409112888395,-0.008810730909024397
1.5078668870419252,0.01858159605132472,0.009229323126858547,0.00521914285473996,0.016328526934363995,-0.005612943780473266
1.5079384041968518,0.02125563485920751,0.0074297887764045775,0.005152249488431391,0.00959325344173804,-0.0016278811207594889
1.5080099213517784,0.023737553869918368,0.007237703713038786,0.0057615299185219465,0.006069181700411398,0.0009726644753965761
1.508081438506705,0.025680396681245936,0.009076743658634196,0.007453924502377228,0.005091629521277181,0.002913344607388416
1.5081529556616315,0.027059576075294776,0.010796806132428161,0.008842952470356694,0.005696502915080007,0.0036625328064518793
1.5082244728165581,0.028112039179855254,0.010115191555769383,0.008942296206187028,0.005608654810664458,0.003794717336672497
1.5082959899714847,0.029172386947160022,0.008246581205702309,0.008780907310022895,0.005468394117872213,0.003749622651596313
1.5083675071264113,0.03045818310099522,0.008436650892156273,0.010026451111954632,0.006102430426864581,0.0043665110803005
1.508439024281338,0.03190386747651281,0.01238333353371752,0.012747040105629182,0.00878727143134612,0.004934802181675425
1.5085105414362645,0.03314377564440417,0.018144667143394466,0.01600259242207933,0.013458494106664226,0.004740891483148244
1.508582058591191,0.03366149064758627,0.02294185190607241,0.0186299276568245,0.017833893823350256,0.004221691218687351
1.5086535757461177,0.03301661123576188,0.022685589882789833,0.017302793300784304,0.019973282055103472,0.0018761082786112344
1.5087250929010443,0.031031763736761156,0.01872193789653992,0.013978643770450466,0.019635164881323733,-0.0005831272635536734
1.5087966100559709,0.02787943173947238,0.013540783053749957,0.009773118861112214,0.017184135079201277,-0.0024805144268705555
1.5088681272108975,0.024071143965329337,0.008676462320886235,0.005405399448016361,0.015372048784567705,-0.004890286585073486
1.508939644365824,0.020368522042175177,0.004904250318596895,0.002619426200917792,0.01266471214944063,-0.005496799274108633
1.5090111615207507,0.017622660517009992,0.003181660165406043,0.001280243020763253,0.011586571933460342,-0.005922177079259249
1.5090826786756772,0.016549556574789192,0.002686309761930573,0.001094148915450876,0.011542976472628001,-0.006044979581143894
1.5091541958306038,0.01749078347259404,0.0027737795636754085,0.001728275756159572,0.010034128727364096,-0.004632742258693364
1.5092257129855304,0.02026609634215111,0.0032374724760827465,0.002622344403247119,0.006988394960259112,-0.0020910153386443486
1.509297230140457,0.024225306810832306,0.006374827336790659,0.005090188490138515,0.004951486637560108,0.0011054223711863954
1.5093687472953836,0.028505184243561566,0.013839819895943089,0.010396256019729185,0.00540122022822217,0.00508289802940515
1.5094402644503102,0.032363241212534366,0.024251397215042575,0.017181792517199104,0.009515576482340792,0.008048689844004624
1.5095117816052368,0.035420479974014,0.03567375110132706,0.023785576506019895,0.016325451023069988,0.009255379665145433
1.5095832987601634,0.03772295943106026,0.0441049451702093,0.028541189697550762,0.021954604632638187,0.009691641608381488
1.50965481591509,0.039632532833370364,0.046559811730637383,0.030196375009199177,0.025125434582178894,0.009117688777151266
1.5097263330700166,0.041605230836871475,0.04216040932367248,0.028415936049993602,0.024834981050319904,0.007864694942071256
1.5097978502249432,0.04392716574129624,0.03550431283284953,0.026087173799228647,0.020304990443994333,0.008713949831279428
1.5098693673798698,0.04649881119729661,0.03176671437779425,0.025125670272120693,0.015618305059246466,0.010752697270126186
1.5099408845347964,0.048782229516577,0.03216806334571864,0.025898717163670308,0.01470256164192451,0.011920779771648002
1.510012401689723,0.04998265464348263,0.035164284398870614,0.027970420605425636,0.015802981659723138,0.012921031020979317
1.5100839188446495,0.04939582665258717,0.035663612332376034,0.02744804663090382,0.016896006303632662,0.011847487817993833
1.5101554359995761,0.046726633743720845,0.03324743289292887,0.024915387052692306,0.01707955085598148,0.0097084431047174
1.5102269531545027,0.04221494386441091,0.030466130021565892,0.022036546886626967,0.01655821554835141,0.007714880852031172
1.5102984703094293,0.0365554045951188,0.028779083866278886,0.019143160662124768,0.017814777727136657,0.004644191204477063
1.510369987464356,0.030705701566729478,0.02872054759508055,0.01712115674686206,0.02038387995538576,0.0014844397942827296
1.5104415046192825,0.025671938650474672,0.029873956615156162,0.016152578444133103,0.02341549012459053,-0.0011092435147132139
1.510513021774209,0.02230380117340663,0.031533649961352765,0.01595046449902194,0.02670426213689516,-0.003243630187623231
1.5105845389291357,0.02110478427342222,0.03013489951216081,0.014310671393420193,0.026879079016370315,-0.004661792869759739
1.5106560560840623,0.022087028251984653,0.025278672324298358,0.011927341615445858,0.02182070525974059,-0.0035363120183534414
1.5107275732389889,0.02474352062355467,0.017485386611995196,0.008315005741078718,0.013939374100159265,-0.0017021236953560907
1.5107990903939155,0.028206425428266402,0.01155226672367552,0.006455089330600415,0.0060749233690089955,0.0015243526897406052
1.510870607548842,0.03156791810921427,0.00886224091560089,0.006924877381908108,0.0005790315498401097,0.0051952435040357675
1.5109421247037687,0.034217944840168574,0.009189775163924664,0.0085255112555674,-0.0008844130654795854,0.007353682485946277
1.5110136418586952,0.036025983655989566,0.012443887089312539,0.01161661354179527,0.0005296383566084999,0.008980091951463489
1.5110851590136218,0.03729532439305516,0.014080971541777327,0.013294021431409462,0.002921852133754801,0.008888756462506994
1.5111566761685484,0.03854470610167679,0.012835348968034978,0.013163190298163863,0.005349142612633465,0.007328999777545638
1.511228193323475,0.04022460916569971,0.011652216170319448,0.013651672900344249,0.005393608924029552,0.007693379662742258
1.5112997104784016,0.04246467581659284,0.012493442479791941,0.01442102957265151,0.005711898779358329,0.008118472150036422
1.5113712276333282,0.04493429586497486,0.017241194012860075,0.016921655013448497,0.008327443294065835,0.008552602449209927
1.5114427447882548,0.04689231770787431,0.022851490257884733,0.019784155718843215,0.01160691361494603,0.008878881405996653
1.5115142619431814,0.047454803887083834,0.025195321452414546,0.02007376929597759,0.014154187361973809,0.0075839318458400945
