freq,gls,usurper,pdc_unbiased,shape_periodogram,shift_periodogram
1.5,0.031605246424144244,0.032500620972406725,0.022003088454338578,0.05066445211919653,-0.01626757165930993
1.5000715171549266,0.028595336453250155,0.025671369312867932,0.01679692217781675,0.04155533216519395,-0.014289202445085676
1.5001430343098532,0.024797888546036324,0.01991541522165991,0.011419584810450916,0.0344371290410682,-0.013738931571794637
1.5002145514647798,0.020789812632417533,0.018246183839764157,0.008796510756732951,0.029160967017376378,-0.012296011310418764
1.5002860686197064,0.017345459787468324,0.021100459644328485,0.009479677332466734,0.027531911667525843,-0.01071641663195617
1.500357585774633,0.015271945925960987,0.025960885636397653,0.011714688134418397,0.028031260327354982,-0.009343515635717135
1.5004291029295596,0.015165201318802408,0.03152153526366501,0.01415548030345099,0.03236956829951249,-0.01031357364041668
1.5005006200844861,0.01716595655706576,0.03660077341134842,0.016954003693511403,0.03590481839347452,-0.010488923070321572
1.5005721372394127,0.02086274426290797,0.04034126397402373,0.019187221778694714,0.03950415797500657,-0.011135699980943587
1.5006436543943393,0.02544081002802935,0.04354470097888478,0.02137618975240262,0.04358518894957303,-0.0121300926535094
1.500715171549266,0.03000884122307953,0.046979467474635266,0.02421994995090846,0.047070234265355525,-0.012238195686379965
1.5007866887041925,0.03391266896856934,0.05114625459567822,0.02666061786266369,0.05466986984967776,-0.015335732656222626
1.500858205859119,0.0368882624749449,0.05586332780336006,0.029368029530911475,0.06438407502026858,-0.01961313124458199
1.5009297230140457,0.0390355018056212,0.060910898920024575,0.03287087235373193,0.0762619431209655,-0.024704403007977434
1.5010012401689723,0.04067274274449097,0.062438395209419004,0.0349635290275476,0.08553008199386565,-0.029172429930910668
1.5010727573238989,0.04213722341942038,0.062234884966168226,0.036798409825528795,0.09162852593670413,-0.03176709388334583
1.5011442744788255,0.043587855733941964,0.061894611250363676,0.03793328428010061,0.09679352827072402,-0.034287061189428744
1.501215791633752,0.044880915226329254,0.06131354401945062,0.03824814004694497,0.10014922373044055,-0.03624826155565888
1.5012873087886787,0.045592465454410994,0.062210417749729366,0.03896037083855539,0.10394472104230873,-0.038196169617113813
1.5013588259436053,0.04519857422015515,0.06141707206818879,0.038338310339186395,0.10411508758756446,-0.03878304638214923
1.5014303430985318,0.04331902735671992,0.057701078862752754,0.03525172960142179,0.10194503283995664,-0.0397139621193796
1.5015018602534584,0.03989064242203222,0.04975816234945177,0.029380562295107576,0.0957285961817844,-0.04011155537885222
1.501573377408385,0.035207008956161204,0.04040794861800561,0.02275340008029923,0.087773548791519,-0.03994426192256861
1.5016448945633116,0.029854908046904056,0.03183702663674249,0.01716592382272006,0.07784496446784539,-0.03769575840924022
1.5017164117182382,0.02460404968418353,0.024742255005619898,0.01272729457488559,0.06737301771537464,-0.034224685078445394
1.5017879288731648,0.020274028275387688,0.02050452860392928,0.010756457121333964,0.058136798097826445,-0.029691974976845163
1.5018594460280914,0.01756978332877583,0.018549793780842278,0.009814843547662735,0.05211697191629001,-0.026480217884809976
1.501930963183018,0.016887968997375314,0.018278122857173694,0.009773529530205848,0.046184792651293355,-0.02264375658551918
1.5020024803379446,0.018154766828972088,0.017578368475514458,0.009545857603491862,0.04116768287474872,-0.01954701134479678
1.5020739974928712,0.020807783027131654,0.018400685739061468,0.00997328939183271,0.038087062411487585,-0.017215208174804677
1.5021455146477978,0.023992628107040868,0.02131301280902241,0.01144212206274167,0.03785009311582023,-0.015944843235966694
1.5022170318027244,0.026898257150269028,0.026261963812971176,0.014028974316248104,0.041724712004887754,-0.016503424013062117
1.502288548957651,0.029041972437567,0.03138507732824555,0.016679671046279716,0.0478189449899644,-0.018460495920264473
1.5023600661125776,0.03036170293294545,0.03668892637471775,0.019990738498687276,0.05511538509880537,-0.020700881355112798
1.5024315832675041,0.031115659296329378,0.037317168890898846,0.02077896981185265,0.060607380284847086,-0.02368488820234398
1.5025031004224307,0.031680428730509906,0.03429546248118166,0.019519808615351825,0.06291120883329787,-0.02614654023436053
1.5025746175773573,0.032340192227813126,0.03029573046632856,0.018649627815208736,0.061792862949973985,-0.026078245862829086
1.502646134732284,0.033131945974426154,0.02742194515190867,0.017871043624403338,0.05851131223098522,-0.024528501005931885
1.5027176518872105,0.033797027787609374,0.026894640989021702,0.01799769758677829,0.056878323337990006,-0.023366646730456624
1.502789169042137,0.033871437590867574,0.025522872788150693,0.017486670760106647,0.05428350720999033,-0.02206242872441765
1.5028606861970637,0.03289397904446062,0.02216719114589661,0.015274482970942199,0.05037595707233879,-0.021195808611297204
1.5029322033519903,0.030638444170610023,0.01840910423629309,0.012011118949132128,0.04628330859520046,-0.021007800401623238
1.5030037205069169,0.02725242384486997,0.016440017872734632,0.009441040885373031,0.043236806509668095,-0.020974963907592643
1.5030752376618435,0.023245599290448483,0.01801992103493382,0.008606550278537486,0.04192379471740845,-0.020753295749416065
1.50314675481677,0.019358366958489085,0.021665202209540282,0.008953985446160287,0.04135675140983848,-0.02011986096788518
1.5032182719716967,0.01638051368297583,0.02624642226961192,0.010426555451109277,0.04139150787916357,-0.01902373842964388
1.5032897891266233,0.01497089818834955,0.030614918993951468,0.012350463029946239,0.04125927751438462,-0.01747572456861022
1.5033613062815498,0.015499460648454992,0.03399620621401503,0.013981854206916533,0.0406767770753597,-0.01585643445276482
1.5034328234364764,0.01793079665045714,0.03425051077804198,0.01416864675154985,0.03773539128888859,-0.013798248717319118
1.503504340591403,0.021792554285279486,0.033517109417022975,0.013806564009865633,0.03465491445795606,-0.012066990695344827
1.5035758577463296,0.026283745634476982,0.03620401642332814,0.015751292513310384,0.03471948842567623,-0.010631094493209323
1.5036473749012562,0.03053094650102892,0.04175125052401897,0.019003856556851165,0.04029664600798437,-0.011791377675376778
1.5037188920561828,0.03389868374654469,0.049159388142541054,0.02304438568669538,0.050979471374839616,-0.01568086382413502
1.5037904092111094,0.03619247413189749,0.058040855451197214,0.02836367437687625,0.06364556671188605,-0.01989581452376517
1.503861926366036,0.03764566473947448,0.06455462629041243,0.03246316988130233,0.07574533226809463,-0.024677381562985143
1.5039334435209626,0.038716510453014726,0.06759763496233277,0.03408384953452373,0.08609789512724379,-0.030215014938560523
1.5040049606758892,0.0398171228344044,0.06895940697633687,0.03557140334761458,0.0938636317148483,-0.034168217653925415
1.5040764778308158,0.041095739566223526,0.07233192144192384,0.037525773851031737,0.09993461216250571,-0.03665885320118658
1.5041479949857424,0.04234364882306056,0.07584251843462951,0.038887791087543686,0.105188815386472,-0.03906871898711772
1.504219512140669,0.043051695709888996,0.07746210184519037,0.03921573232033744,0.10886996258618878,-0.04123722579078986
1.5042910292955955,0.04260283060723393,0.07281895220888437,0.036347749549566495,0.10803637067263122,-0.042879076983599135
1.5043625464505221,0.04053910287302065,0.0616792006466857,0.030363706364527798,0.10128123890369697,-0.04300597003578506
1.5044340636054487,0.03679439695722014,0.04752027607282406,0.02344001313236871,0.08955287468437696,-0.04058740658752803
1.5045055807603753,0.03178229372791513,0.03513315195828245,0.01698689592080203,0.07828400768022371,-0.038119102341429456
1.504577097915302,0.026296542555493532,0.026757290783991115,0.012446934359831944,0.06800567815917759,-0.03485105702626767
1.5046486150702285,0.021278189004975218,0.023731610261859028,0.011187449324425095,0.05985374117378219,-0.030485019775359366
1.504720132225155,0.017555651134353225,0.022909149468250734,0.011283372248322305,0.053312812112285356,-0.02614436367230894
1.5047916493800817,0.01564621916050789,0.02198905020218258,0.010644076718018416,0.04819575535841016,-0.023293274090991016
1.5048631665350083,0.015656872938766518,0.019930029172678016,0.009217644422453899,0.042007089216712076,-0.020343326264300354
1.5049346836899349,0.017286051262519187,0.01847822432006557,0.008230188330603324,0.03679279463214445,-0.01769633310986213
1.5050062008448615,0.019918755698584013,0.018571470351426946,0.007905738300784866,0.03278875057883738,-0.01533493978407265
1.505077717999788,0.022804926807040774,0.02106812692159219,0.009361654152707073,0.030576833497839476,-0.012788578777306044
1.5051492351547147,0.025289013466251117,0.02643826406203289,0.011726326065843064,0.03532647099426334,-0.014085090137973058
1.5052207523096413,0.027015644551186973,0.03176904148110085,0.014241445734319206,0.04177387937684898,-0.016373982729429915
1.5052922694645678,0.028012475009877,0.03432521656862967,0.015961322224474977,0.046013843955766943,-0.01782991575873707
1.5053637866194944,0.028596359216805502,0.030725810946767768,0.014919408532213189,0.046309651174564856,-0.01881470485286031
1.505435303774421,0.02915112616185344,0.02355589436676506,0.013309044659559194,0.04319327047443455,-0.018007515107180728
1.5055068209293476,0.029900153036102176,0.018559023020885114,0.012321918805932341,0.03964604164099134,-0.016446324289198753
1.5055783380842742,0.030782681811496897,0.017730553638713148,0.01250866989698158,0.03800267456291738,-0.015233820614556165
1.5056498552392008,0.03146961942071043,0.020172123181044117,0.013496870470295333,0.039905450195995965,-0.015722467157213434
1.5057213723941274,0.03149161794629547,0.0215512669724759,0.013134126432083434,0.042587997730963854,-0.017746014073507836
1.505792889549054,0.030427310908792447,0.021236863098962666,0.011855838401314541,0.04390047805322463,-0.019572715333308153
1.5058644067039806,0.02809465201809536,0.019106646447422878,0.009674998552531539,0.04280752687497931,-0.02051746542771257
1.5059359238589072,0.024683284499830333,0.01531029498914434,0.006168765257997816,0.04079110468079578,-0.02186701136398056
1.5060074410138338,0.020766913938386953,0.012921828167658878,0.003987129865862614,0.03840102678858637,-0.021966789591009277
1.5060789581687604,0.017165658691511196,0.014043599996311669,0.004506773893992003,0.03589213947588737,-0.019937843557323084
1.506150475323687,0.014695536880755058,0.016722663337793108,0.005603202541494299,0.034349773634479594,-0.018100528627010216
1.5062219924786135,0.013907828977730352,0.01909295942882648,0.006474304461408025,0.03220585725441043,-0.016042664734905357
1.5062935096335401,0.014929925183180436,0.019502443561812622,0.007024475314287043,0.027656488765136992,-0.012662565708921578
1.5063650267884667,0.01746107614733839,0.018360677972051112,0.006681651925523114,0.023504364681717824,-0.01022000871688852
1.5064365439433933,0.020900617081537138,0.0199412157163697,0.008103902228742074,0.021140666786161128,-0.007601198289006512
1.50650806109832,0.024545654709518663,0.024212572554061736,0.01119024144466396,0.02059327959340347,-0.004900415229350975
1.5065795782532465,0.027795889555703463,0.03171162208814591,0.015188716512202768,0.027034047861710164,-0.006054603562322622
1.506651095408173,0.030315638754338018,0.04158698740486098,0.02020329875354711,0.03705011174963204,-0.0087646931043102
1.5067226125630997,0.03210575674634778,0.05142105723436791,0.02516307524326057,0.04872766743620811,-0.012600963671611036
1.5067941297180263,0.03344435853615213,0.05711064136969523,0.02809340030703321,0.05801649845548288,-0.01642807568866813
1.5068656468729529,0.03469846610783441,0.057548465837205846,0.028836225363534616,0.06264726008444192,-0.01888433487814663
1.5069371640278795,0.03608805388876267,0.05638812132540727,0.029158238083419115,0.06402603396784605,-0.01953915192189036
1.507008681182806,0.03753193323000867,0.05609345790802433,0.029645090979329304,0.0653821179923162,-0.02005373618744357
1.5070801983377327,0.038657419159163646,0.05635969139590717,0.03000532215028713,0.0656976865322157,-0.019985423461431347
1.5071517154926592,0.038950459296790155,0.05512820936909293,0.029635790998015537,0.06412278385965343,-0.019238636716106327
1.5072232326475858,0.03795818995272562,0.04943128133538174,0.026170643808596194,0.06051491319558634,-0.019521948227218536
1.5072947498025124,0.035465807062779846,0.042189592540068425,0.02167628316777021,0.054949497837321164,-0.019310631171992283
1.507366266957439,0.03160750390290827,0.0361797605053964,0.01779655130545853,0.04986796925096657,-0.018947239225582068
1.5074377841123656,0.02689036393457737,0.031077205204206985,0.014369878001425985,0.04606476821942318,-0.0190727632768794
1.5075093012672922,0.022110982309926926,0.026581590755206982,0.012274203971852665,0.041688676108509015,-0.017813465619124138
1.5075808184222188,0.018158898886019043,0.023850079794451497,0.010838451012952628,0.03949725159803509,-0.017476583186054863
1.5076523355771454,0.015750547010193554,0.022201397562375748,0.009985828883372298,0.03698805035172538,-0.01648976567637304
1.507723852732072,0.015198153002695225,0.01894388331569972,0.008495434228764531,0.03162176223142472,-0.014127035541160812
1.5077953698869986,0.01632710132796861,0.014474044518585107,0.006411917338543193,0.02461406877448508,-0.011147234727202172
1.5078668870419252,0.01858159605132472,0.01114125317518673,0.00521914285473996,0.01799659979989891,-0.007746090284203057
1.5079384041968518,0.02125563485920751,0.009189487032914742,0.005152249488431391,0.01170450194221546,-0.0037024431394046347
1.5080099213517784,0.023737553869918368,0.009098253087348435,0.0057615299185219465,0.00911635909888258,-0.0015557057174032907
1.508081438506705,0.025680396681245936,0.011148179092044271,0.007453924502377228,0.0099805473979783,-0.0008326071646322759
1.5081529556616315,0.027059576075294776,0.013022593651010234,0.008842952470356694,0.012444477353048272,-0.0013807522230204613
1.5082244728165581,0.028112039179855254,0.012124424569959763,0.008942296206187028,0.013524152720130614,-0.002007813416082957
1.5082959899714847,0.029172386947160022,0.009634770793200494,0.008780907310022895,0.014047987976797422,-0.0024712548684025126
1.5083675071264113,0.03045818310099522,0.009395200392790334,0.010026451111954632,0.015081458878306954,-0.002197627583626865
1.508439024281338,0.03190386747651281,0.013605806098512552,0.012747040105629182,0.01841326338469338,-0.002298978378366721
1.5085105414362645,0.03314377564440417,0.02002521663436898,0.01600259242207933,0.023891890850009125,-0.0033908565599308155
1.508582058591191,0.03366149064758627,0.02523171069516847,0.0186299276568245,0.02885905944928935,-0.004627292749267244
1.5086535757461177,0.03301661123576188,0.025011001896518757,0.017302793300784304,0.030570174072154614,-0.006750010295853151
1.5087250929010443,0.031031763736761156,0.020667384321876616,0.013978643770450466,0.02875318111716904,-0.008093300360934075
1.5087966100559709,0.02787943173947238,0.015016055727019965,0.009773118861112214,0.024577688641509,-0.008570342598477016
1.5088681272108975,0.024071143965329337,0.009836566226663486,0.005405399448016361,0.021160641986732023,-0.009663862291903979
1.508939644365824,0.020368522042175177,0.005729552604728125,0.002619426200917792,0.017460434686755517,-0.00937157456482737
1.5090111615207507,0.017622660517009992,0.003852011290033131,0.001280243020763253,0.01613062360263641,-0.009523192373476784
1.5090826786756772,0.016549556574789192,0.003255905819779702,0.001094148915450876,0.01575826202661344,-0.009422201037409988
1.5091541958306038,0.01749078347259404,0.003289966140701551,0.001728275756159572,0.014037955053252936,-0.007821175535230618
1.5092257129855304,0.02026609634215111,0.0038063987727851444,0.002622344403247119,0.011267813114369292,-0.0053396682963474966
1.509297230140457,0.024225306810832306,0.00736553425221263,0.005090188490138515,0.010221375790963484,-0.002784555920974883
1.5093687472953836,0.028505184243561566,0.015880437263150728,0.010396256019729185,0.012122154814675429,8.82924588478874e-06
1.5094402644503102,0.032363241212534366,0.027788709893214157,0.017181792517199104,0.01824656175681476,0.0011790295224888834
1.5095117816052368,0.035420479974014,0.040968750776861934,0.023785576506019895,0.027412665821016955,0.00023365067193550603
1.5095832987601634,0.03772295943106026,0.05076386487711454,0.028541189697550762,0.03468324338218918,-0.0008820026601796004
1.50965481591509,0.039632532833370364,0.05358705111505885,0.030196375009199177,0.0382647003479358,-0.001954398685451989
1.5097263330700166,0.041605230836871475,0.04842144896151996,0.028415936049993602,0.037710259090223894,-0.0029481766461265852
1.5097978502249432,0.04392716574129624,0.040433121378436264,0.026087173799228647,0.03205721061267449,-0.0010392157463918498
1.5098693673798698,0.04649881119729661,0.03589195533346825,0.025125670272120693,0.025891254032750242,0.002242749275046008
1.5099408845347964,0.048782229516577,0.03621027666450006,0.025898717163670308,0.023629988438327695,0.004301989484598934
1.510012401689723,0.04998265464348263,0.03948557949475777,0.027970420605425636,0.023651749038549573,0.005863214053270251
1.5100839188446495,0.04939582665258717,0.04026450477835548,0.02744804663090382,0.023188998226293833,0.005767038682189923
1.5101554359995761,0.046726633743720845,0.037805488155449284,0.024915387052692306,0.021286802230619184,0.005078913799532953
1.5102269531545027,0.04221494386441091,0.03491592835363212,0.022036546886626967,0.01872795117292404,0.004555320442183232
1.5102984703094293,0.0365554045951188,0.03334978640369733,0.019143160662124768,0.018765742929228287,0.002331694684583306
1.510369987464356,0.030705701566729478,0.03362533820988445,0.01712115674686206,0.02075664968022166,-0.0005004117170605683
1.5104415046192825,0.025671938650474672,0.03514025024454956,0.016152578444133103,0.023958420472550465,-0.0033201808963497074
1.510513021774209,0.02230380117340663,0.0371017192201835,0.01595046449902194,0.027605728086406156,-0.005847871153409255
1.5105845389291357,0.02110478427342222,0.03562441232994795,0.014310671393420193,0.028125645252965552,-0.007432454137115612
1.5106560560840623,0.022087028251984653,0.029896126274679427,0.011927341615445858,0.023245193902939332,-0.006066425205209356
1.5107275732389889,0.02474352062355467,0.020740230354349107,0.008315005741078718,0.01557116771807646,-0.0038162911713793923
1.5107990903939155,0.028206425428266402,0.013613804205423075,0.006455089330600415,0.008294503931233287,-0.0004942275127195311
1.510870607548842,0.03156791810921427,0.010080713125606572,0.006924877381908108,0.0037655026494083565,0.0028091679911996415
1.5109421247037687,0.034217944840168574,0.010144345448204795,0.0085255112555674,0.0042037511688301195,0.003739700363455083
1.5110136418586952,0.036025983655989566,0.0135156157448657,0.01161661354179527,0.00788569089092415,0.0036921032584882373
1.5110851590136218,0.03729532439305516,0.015155960641677072,0.013294021431409462,0.012094422254662292,0.002228110672138138
1.5111566761685484,0.03854470610167679,0.013432021065362513,0.013163190298163863,0.016036027674434968,-0.00043590323609057246
1.511228193323475,0.04022460916569971,0.011581439754432163,0.013651672900344249,0.017436711850204147,-0.0009762212616432038
1.5112997104784016,0.04246467581659284,0.012350760676765911,0.01442102957265151,0.018600345538108756,-0.0011488981133241062
1.5113712276333282,0.04493429586497486,0.017658908615684307,0.016921655013448497,0.022168821120799806,-0.0015710217082054074
1.5114427447882548,0.04689231770787431,0.024047424302399027,0.019784155718843215,0.02634134950490325,-0.002111086712587938
1.5115142619431814,0.047454803887083834,0.027053477295115164,0.02007376929597759,0.028390192629897604,-0.0032245556340495256
