freq,gls,usurper,pdc_unbiased,shape_periodogram,shift_periodogram
1.5,0.031605246424144244,0.03194685378988981,0.022003088454338578,0.02655887684459636,0.004657767236908159
1.5000715171549266,0.028595336453250155,0.024782709921643598,0.01679692217781675,0.020972551230323135,0.003185089242619464
1.5001430343098532,0.024797888546036324,0.018790541623994857,0.011419584810450916,0.016620090913945174,0.000916730412743737
1.5002145514647798,0.020789812632417533,0.01695836538432324,0.008796510756732951,0.01288173689358529,0.0006640384927856419
1.5002860686197064,0.017345459787468324,0.01976751149514407,0.009479677332466734,0.011514908941436728,0.001966306905339558
1.500357585774633,0.015271945925960987,0.024652102073238404,0.011714688134418397,0.012179170969699327,0.003513505275990987
1.5004291029295596,0.015165201318802408,0.030390270054694586,0.01415548030345099,0.015545500763583726,0.003808260809065775
1.5005006200844861,0.01716595655706576,0.035743564445438934,0.016954003693511403,0.018250735584578917,0.0047564538172919476
1.5005721372394127,0.02086274426290797,0.03985562353665969,0.019187221778694714,0.020902256211403226,0.005253135304939535
1.5006436543943393,0.02544081002802935,0.043451088682255154,0.02137618975240262,0.023544941467975963,0.005717210547846009
1.500715171549266,0.03000884122307953,0.047315968550977965,0.02421994995090846,0.02491736461888141,0.007409231250492335
1.5007866887041925,0.03391266896856934,0.05187869636326442,0.02666061786266369,0.029379650135232176,0.007127008007002315
1.500858205859119,0.0368882624749449,0.05698367405737969,0.029368029530911475,0.03518895780836435,0.006360476777559157
1.5009297230140457,0.0390355018056212,0.06251186691117133,0.03287087235373193,0.04273465612489379,0.005353730274123329
1.5010012401689723,0.04067274274449097,0.0644756870956065,0.0349635290275476,0.04878546195308529,0.003936938826838762
1.5010727573238989,0.04213722341942038,0.06462771192873426,0.036798409825528795,0.05277298868065881,0.003391414927108331
1.5011442744788255,0.043587855733941964,0.06457483866356882,0.03793328428010061,0.05601908713000649,0.00264160914634938
1.501215791633752,0.044880915226329254,0.06423800198960815,0.03824814004694497,0.058592088687635005,0.0015487819142106318
1.5012873087886787,0.045592465454410994,0.06533172257943602,0.03896037083855539,0.06140331511019645,0.0006683582226988232
1.5013588259436053,0.04519857422015515,0.06463581079335048,0.038338310339186395,0.061270434178924645,0.00020832811332092662
1.5014303430985318,0.04331902735671992,0.06070970123553249,0.03525172960142179,0.06101869927193671,-0.0022893953260088268
1.5015018602534584,0.03989064242203222,0.052390136160676344,0.029380562295107576,0.058167168614678216,-0.00578129616726079
1.501573377408385,0.035207008956161204,0.04256044923236006,0.02275340008029923,0.054419736505607545,-0.009438175347141246
1.5016448945633116,0.029854908046904056,0.03357498618380407,0.01716592382272006,0.04794839521788354,-0.010764703783739074
1.5017164117182382,0.02460404968418353,0.026051699870782912,0.01272729457488559,0.04062206968470143,-0.010660770601039598
1.5017879288731648,0.020274028275387688,0.021423197978678407,0.010756457121333964,0.034521227594524764,-0.00910840242824725
1.5018594460280914,0.01756978332877583,0.01911012726588998,0.009814843547662735,0.03112160990081545,-0.008110686925389752
1.501930963183018,0.016887968997375314,0.018496264878737716,0.009773529530205848,0.027845514128807765,-0.00641376819846463
1.5020024803379446,0.018154766828972088,0.017572861614735535,0.009545857603491862,0.024740253886311223,-0.004965762003320274
1.5020739974928712,0.020807783027131654,0.01811720254740588,0.00997328939183271,0.022497239700319267,-0.003417237533205339
1.5021455146477978,0.023992628107040868,0.020831201706273516,0.01144212206274167,0.02166277245697806,-0.0017286063525840747
1.5022170318027244,0.026898257150269028,0.02569979945921641,0.014028974316248104,0.02334787383617276,-0.0004215674220920331
1.502288548957651,0.029041972437567,0.030806384128846117,0.016679671046279716,0.026416770715738506,0.00020881007295008594
1.5023600661125776,0.03036170293294545,0.036116623176439204,0.019990738498687276,0.030400901368744567,0.0009171761629903967
1.5024315832675041,0.031115659296329378,0.036825447910483824,0.02077896981185265,0.03339829141013634,2.974836798277087e-06
1.5025031004224307,0.031680428730509906,0.03375257397240779,0.019519808615351825,0.03476039194753686,-0.0017874424448055609
1.5025746175773573,0.032340192227813126,0.02964368684942265,0.018649627815208736,0.033401539523958704,-0.0018087657038287647
1.502646134732284,0.033131945974426154,0.0267403026047176,0.017871043624403338,0.030760615492053014,-0.001074523935691716
1.5027176518872105,0.033797027787609374,0.0262205496644542,0.01799769758677829,0.029723468799857357,-0.00041870733447085497
1.502789169042137,0.033871437590867574,0.024996441702994688,0.017486670760106647,0.02780226424753064,0.00016237131358491514
1.5028606861970637,0.03289397904446062,0.021594898928642473,0.015274482970942199,0.02585921494694213,-0.0006905088578405061
1.5029322033519903,0.030638444170610023,0.017652568509030412,0.012011118949132128,0.02433532100321584,-0.0026576163733626947
1.5030037205069169,0.02725242384486997,0.015481118045718108,0.009441040885373031,0.023300020390236324,-0.004293591821183054
1.5030752376618435,0.023245599290448483,0.016987243196907104,0.008606550278537486,0.02265190332818335,-0.0046598514908994864
1.50314675481677,0.019358366958489085,0.020641418183390724,0.008953985446160287,0.022234780645859594,-0.004144306888706586
1.5032182719716967,0.01638051368297583,0.025350622912690485,0.010426555451109277,0.022050872942267097,-0.0027963402020023376
1.5032897891266233,0.01497089818834955,0.02983390200815561,0.012350463029946239,0.022502729752929974,-0.0014008799441613982
1.5033613062815498,0.015499460648454992,0.03336360014634707,0.013981854206916533,0.02270903964163628,-0.00012402136673087707
1.5034328234364764,0.01793079665045714,0.033837627611050206,0.01416864675154985,0.020849266348479688,0.001017359095181325
1.503504340591403,0.021792554285279486,0.03329130945609561,0.013806564009865633,0.018518414987047437,0.0019412855009541205
1.5035758577463296,0.026283745634476982,0.03620480013392759,0.015751292513310384,0.018741091505123493,0.003475663372752792
1.5036473749012562,0.03053094650102892,0.04198913158815972,0.019003856556851165,0.0229290155034284,0.004026614855962978
1.5037188920561828,0.03389868374654469,0.04978148142862415,0.02304438568669538,0.0302795734540043,0.0035770310079908936
1.5037904092111094,0.03619247413189749,0.05917406695302761,0.02836367437687625,0.03781158479988028,0.004120261525298804
1.503861926366036,0.03764566473947448,0.06634913426231981,0.03246316988130233,0.04506153915698124,0.0037767572465812927
1.5039334435209626,0.038716510453014726,0.06983936791255463,0.03408384953452373,0.052293612744683804,0.0013325711565845997
1.5040049606758892,0.0398171228344044,0.0715473526422536,0.03557140334761458,0.05733239299818713,-6.59056340818667e-05
1.5040764778308158,0.041095739566223526,0.07518977994863123,0.037525773851031737,0.061538497151146614,-0.0006262547091744041
1.5041479949857424,0.04234364882306056,0.0787750305477236,0.038887791087543686,0.06573867558406955,-0.0016886021622153622
1.504219512140669,0.043051695709888996,0.08039171649367527,0.03921573232033744,0.06962358883264028,-0.0034665813076869816
1.5042910292955955,0.04260283060723393,0.07554471320939135,0.036347749549566495,0.0710524894934695,-0.006670104384127245
1.5043625464505221,0.04053910287302065,0.06401420570666279,0.030363706364527798,0.0686725335465026,-0.010509730968892371
1.5044340636054487,0.03679439695722014,0.04939269807938484,0.02344001313236871,0.06179957493558521,-0.012763137340241211
1.5045055807603753,0.03178229372791513,0.036561091692378554,0.01698689592080203,0.0547695969340956,-0.014528798558555139
1.504577097915302,0.026296542555493532,0.027730666272050095,0.012446934359831944,0.0479411346592102,-0.014772568621046159
1.5046486150702285,0.021278189004975218,0.02436343049235806,0.011187449324425095,0.0420155651907493,-0.012706645206667056
1.504720132225155,0.017555651134353225,0.02325128082099489,0.011283372248322305,0.0376569039356354,-0.01031916618737351
1.5047916493800817,0.01564621916050789,0.022015325298299093,0.010644076718018416,0.03459388787374426,-0.00924230877717668
1.5048631665350083,0.015656872938766518,0.019613543558400767,0.009217644422453899,0.03055605533890522,-0.008318983481359803
1.5049346836899349,0.017286051262519187,0.017933488208645595,0.008230188330603324,0.026321275116462976,-0.006918984867843393
1.5050062008448615,0.019918755698584013,0.017873347636143313,0.007905738300784866,0.02253774702311429,-0.005194748907908562
1.505077717999788,0.022804926807040774,0.02017547067998915,0.009361654152707073,0.01985549868809401,-0.002540700957373941
1.5051492351547147,0.025289013466251117,0.025377540095405448,0.011726326065843064,0.02255573723182649,-0.0019590754517905466
1.5052207523096413,0.027015644551186973,0.030666862118465855,0.014241445734319206,0.025598716644900474,-0.0014305374545119929
1.5052922694645678,0.028012475009877,0.03327229060096775,0.015961322224474977,0.026834452418433102,-0.0006223120720712083
1.5053637866194944,0.028596359216805502,0.029784872015917094,0.014919408532213189,0.025416051345448488,-0.0007579946419707871
1.505435303774421,0.02915112616185344,0.022807475013393145,0.013309044659559194,0.02154841933227771,-8.229844405225896e-05
1.5055068209293476,0.029900153036102176,0.017906955976844954,0.012321918805932341,0.018084755127221065,0.0009093070258359264
1.5055783380842742,0.030782681811496897,0.017183658950409547,0.01250866989698158,0.016582142318888573,0.001861812964854507
1.5056498552392008,0.03146961942071043,0.019769424038830058,0.013496870470295333,0.018312452887076346,0.0017870335721032792
1.5057213723941274,0.03149161794629547,0.021245260308198247,0.013134126432083434,0.021043611488526386,3.585157406249737e-05
1.505792889549054,0.030427310908792447,0.020815148542342482,0.011855838401314541,0.02416598626041517,-0.002700033534024588
1.5058644067039806,0.02809465201809536,0.018570424052775886,0.009674998552531539,0.02539313827607846,-0.005201150788512953
1.5059359238589072,0.024683284499830333,0.01479690867626843,0.006168765257997816,0.025105875249661642,-0.00802738388534547
1.5060074410138338,0.020766913938386953,0.012424122096167159,0.003987129865862614,0.023567812371856105,-0.00906716509811355
1.5060789581687604,0.017165658691511196,0.013581234397273899,0.004506773893992003,0.021534253197533514,-0.0075510404520627225
1.506150475323687,0.014695536880755058,0.016275368107029436,0.005603202541494299,0.020871906088262327,-0.0062698618337048055
1.5062219924786135,0.013907828977730352,0.01867383576803019,0.006474304461408025,0.020157533297015025,-0.005152541679718455
1.5062935096335401,0.014929925183180436,0.019197618550738173,0.007024475314287043,0.017471823679191048,-0.0032660723824731973
1.5063650267884667,0.01746107614733839,0.01816673040765361,0.006681651925523114,0.015287716463072025,-0.0024031470546127718
1.5064365439433933,0.020900617081537138,0.019952472924980647,0.008103902228742074,0.013768350217220202,-0.00039256995170036945
1.50650806109832,0.024545654709518663,0.024520129869067493,0.01119024144466396,0.012395563879939463,0.0029537846483499233
1.5065795782532465,0.027795889555703463,0.03244725009276892,0.015188716512202768,0.015763898938732555,0.004570546763455664
1.506651095408173,0.030315638754338018,0.042795024487424886,0.02020329875354711,0.021250474830565004,0.005932561655821863
1.5067226125630997,0.03210575674634778,0.05307596357251443,0.02516307524326057,0.02795148504344907,0.006608219887809633
1.5067941297180263,0.03344435853615213,0.05908781206766883,0.02809340030703321,0.034139139600796564,0.00583097233038607
1.5068656468729529,0.03469846610783441,0.0597480006526639,0.028836225363534616,0.03740986748764717,0.004734552120626325
1.5069371640278795,0.03608805388876267,0.058665456387210164,0.029158238083419115,0.038648265913973454,0.004354038503215331
1.507008681182806,0.03753193323000867,0.05836832869248422,0.029645090979329304,0.04050202510657616,0.003788513586402224
1.5070801983377327,0.038657419159163646,0.05844614132546007,0.03000532215028713,0.04216412110293435,0.003216494311879126
1.5071517154926592,0.038950459296790155,0.057018998594142924,0.029635790998015537,0.0424971713032648,0.002725982437769995
1.5072232326475858,0.03795818995272562,0.05097260802605361,0.026170643808596194,0.04246767428324571,-0.00020667144713054858
1.5072947498025124,0.035465807062779846,0.04328594719249432,0.02167628316777021,0.04147307877717911,-0.0035033693484474862
1.507366266957439,0.03160750390290827,0.036852344598232625,0.01779655130545853,0.039698424834357766,-0.005863481265922243
1.5074377841123656,0.02689036393457737,0.031393728589889265,0.014369878001425985,0.03779105990262804,-0.0077672719038323615
1.5075093012672922,0.022110982309926926,0.02660676129054055,0.012274203971852665,0.034604186614581256,-0.007862712249756957
1.5075808184222188,0.018158898886019043,0.023525224483215004,0.010838451012952628,0.03298664517076647,-0.008227230452656319
1.5076523355771454,0.015750547010193554,0.021492584672996133,0.009985828883372298,0.031277695910620476,-0.008047959059079717
1.507723852732072,0.015198153002695225,0.0179351910904725,0.008495434228764531,0.02745249698791031,-0.00729167327390405
1.5077953698869986,0.01632710132796861,0.013205695663657112,0.006411917338543193,0.022102536010971723,-0.006233444897959633
1.5078668870419252,0.01858159605132472,0.009717286951670645,0.00521914285473996,0.01640338611292482,-0.0042346300497301545
1.5079384041968518,0.02125563485920751,0.007662532698764362,0.005152249488431391,0.010214841785165489,-0.0010216673773547954
1.5080099213517784,0.023737553869918368,0.0075163712993537735,0.0057615299185219465,0.006456460378215302,0.0014812367861639076
1.508081438506705,0.025680396681245936,0.009690409965919586,0.007453924502377228,0.0043512531046785525,0.004030408148213997
1.5081529556616315,0.027059576075294776,0.011769299619595192,0.008842952470356694,0.00313017138264959,0.005854904087773605
1.5082244728165581,0.028112039179855254,0.011088099818608596,0.008942296206187028,0.001619736971392515,0.006737123550549327
1.5082959899714847,0.029172386947160022,0.008887680659543979,0.008780907310022895,0.0004151869640025588,0.007236371565102124
1.5083675071264113,0.03045818310099522,0.008878171452176793,0.010026451111954632,0.0001144156607108978,0.008452844671554178
1.508439024281338,0.03190386747651281,0.013297039107752871,0.012747040105629182,0.0019193512781880563,0.009809604458509084
1.5085105414362645,0.03314377564440417,0.019874808118795988,0.01600259242207933,0.00597788114086275,0.010430691400990517
1.508582058591191,0.03366149064758627,0.025285959187664398,0.0186299276568245,0.01010374017124164,0.010483221508896357
1.5086535757461177,0.03301661123576188,0.025096001407157925,0.017302793300784304,0.012384647715628597,0.008151282903825125
1.5087250929010443,0.031031763736761156,0.020583218565315805,0.013978643770450466,0.01307042286573994,0.004965533678183697
1.5087966100559709,0.02787943173947238,0.014686948643648329,0.009773118861112214,0.01202710352417686,0.0019449224066049701
1.5088681272108975,0.024071143965329337,0.009327181697956656,0.005405399448016361,0.01124528730449354,-0.0013511112791252879
1.508939644365824,0.020368522042175177,0.005158875258953365,0.002619426200917792,0.009018375569481343,-0.00254023628806268
1.5090111615207507,0.017622660517009992,0.0032727960127712937,0.001280243020763253,0.008292455942565636,-0.003293815314853739
1.5090826786756772,0.016549556574789192,0.002716470237281484,0.001094148915450876,0.008968756115303327,-0.0038091285568799004
1.5091541958306038,0.01749078347259404,0.0028604734300653766,0.001728275756159572,0.008532654629591843,-0.003040296075576683
1.5092257129855304,0.02026609634215111,0.003619300890536137,0.002622344403247119,0.006302666616952465,-0.001103030380305596
1.509297230140457,0.024225306810832306,0.007540666593213592,0.005090188490138515,0.004627811265420825,0.0018772214746826475
1.5093687472953836,0.028505184243561566,0.01652187584489984,0.010396256019729185,0.0046514752203959215,0.006370288730925144
1.5094402644503102,0.032363241212534366,0.028880825069687182,0.017181792517199104,0.007711149767398531,0.01051679028274006
1.5095117816052368,0.035420479974014,0.04247703688076189,0.023785576506019895,0.012640786756142382,0.013523313799357924
1.5095832987601634,0.03772295943106026,0.052500187604280345,0.028541189697550762,0.016410370516723356,0.015574294280338621
1.50965481591509,0.039632532833370364,0.05546108329184481,0.030196375009199177,0.018584171434439745,0.015833649918121535
1.5097263330700166,0.041605230836871475,0.05039554547436202,0.028415936049993602,0.017996725084825284,0.014630371858715144
1.5097978502249432,0.04392716574129624,0.04238052847832906,0.026087173799228647,0.01361645968026988,0.014963796922031375
1.5098693673798698,0.04649881119729661,0.03774191533673732,0.025125670272120693,0.009421039544180498,0.01636178878574165
1.5099408845347964,0.048782229516577,0.03788866609902285,0.025898717163670308,0.009159697763831983,0.01715652156327328
1.510012401689723,0.04998265464348263,0.040956371745781046,0.027970420605425636,0.010980779279254952,0.01795541305733828
1.5100839188446495,0.04939582665258717,0.041392429655872656,0.02744804663090382,0.012822798148705279,0.01653917784867885
1.5101554359995761,0.046726633743720845,0.03848223713847087,0.024915387052692306,0.01399008004912009,0.01377085005317018
1.5102269531545027,0.04221494386441091,0.03510103047950154,0.022036546886626967,0.014738558934753296,0.010929573817085368
1.5102984703094293,0.0365554045951188,0.0331249388352389,0.019143160662124768,0.016474220040145756,0.007554680333954889
1.510369987464356,0.030705701566729478,0.03300478608115136,0.01712115674686206,0.018676021856512015,0.00467379587230497
1.5104415046192825,0.025671938650474672,0.034241992209588484,0.016152578444133103,0.02092793051265498,0.002661234502940251
1.510513021774209,0.02230380117340663,0.03596413301373495,0.01595046449902194,0.023875439452698554,0.0009321415794602328
1.5105845389291357,0.02110478427342222,0.03429918098127254,0.014310671393420193,0.02461553981677173,-0.0008521401150375441
1.5106560560840623,0.022087028251984653,0.02841102232696964,0.011927341615445858,0.02068118277729499,-0.0007977497060889203
1.5107275732389889,0.02474352062355467,0.01911052826121096,0.008315005741078718,0.014115992962019675,-0.00039696508896757776
1.5107990903939155,0.028206425428266402,0.011997473172995978,0.006455089330600415,0.006970681905793478,0.0017985091788503443
1.510870607548842,0.03156791810921427,0.008594990927504813,0.006924877381908108,0.001334146577418549,0.005174981493373241
1.5109421247037687,0.034217944840168574,0.00897262092243276,0.0085255112555674,-0.001307312110757102,0.007929405837224294
1.5110136418586952,0.036025983655989566,0.012677634161434592,0.01161661354179527,-0.0019242343545554533,0.010879897804181629
1.5110851590136218,0.03729532439305516,0.014664605260950184,0.013294021431409462,-0.001397857705029722,0.012026158744188793
1.5111566761685484,0.03854470610167679,0.01340848100501758,0.013163190298163863,-0.00041381189735451495,0.011395312248218185
1.511228193323475,0.04022460916569971,0.011972715764802768,0.013651672900344249,-0.001505262428866679,0.012386574162163372
1.5112997104784016,0.04246467581659284,0.013080838117308882,0.01442102957265151,-0.001962502346000302,0.01328134619786135
1.5113712276333282,0.04493429586497486,0.018653333013037315,0.016921655013448497,-0.00012645525806771776,0.014435032410383495
1.5114427447882548,0.04689231770787431,0.025205525519679327,0.019784155718843215,0.002781257985000598,0.01533040310327041
1.5115142619431814,0.047454803887083834,0.028098133296243007,0.02007376929597759,0.005700376904122939,0.014034928388989471
