freq,gls,usurper,pdc_unbiased,shape_periodogram,shift_periodogram
1.5,0.031605246424144244,0.03479397024537144,0.022003088454338578,0.02835853662009281,0.006883053137958189
1.5000715171549266,0.028595336453250155,0.028725238883375352,0.01679692217781675,0.02369919725233754,0.004328710426689324
1.5001430343098532,0.024797888546036324,0.023580255647351576,0.011419584810450916,0.020546366771460673,0.0009447771319730691
1.5002145514647798,0.020789812632417533,0.022392988112742422,0.008796510756732951,0.017794419908446567,-0.00015863605392069002
1.5002860686197064,0.017345459787468324,0.02545437860989028,0.009479677332466734,0.016985198751657812,0.000815965290610215
1.500357585774633,0.015271945925960987,0.030208025321109437,0.011714688134418397,0.01787731511541773,0.002410407401885556
1.5004291029295596,0.015165201318802408,0.03578483052031566,0.01415548030345099,0.021020536737866528,0.0031751411697049235
1.5005006200844861,0.01716595655706576,0.04087818789721795,0.016954003693511403,0.023506516713139657,0.00455582676487666
1.5005721372394127,0.02086274426290797,0.044932397308866154,0.019187221778694714,0.026779617988308406,0.005077403434952388
1.5006436543943393,0.02544081002802935,0.04830839484000068,0.02137618975240262,0.029492578358381826,0.00581206936311611
1.500715171549266,0.03000884122307953,0.0518335115795274,0.02421994995090846,0.03015825170994538,0.008054373799265322
1.5007866887041925,0.03391266896856934,0.05635565195577632,0.02666061786266369,0.03271971106259604,0.00908332119796777
1.500858205859119,0.0368882624749449,0.06151423817230259,0.029368029530911475,0.035891525291160416,0.01007672302583837
1.5009297230140457,0.0390355018056212,0.06695281484154257,0.03287087235373193,0.03998620101418629,0.011367352030604828
1.5010012401689723,0.04067274274449097,0.06854782008448858,0.0349635290275476,0.04241983463705402,0.012144836026666833
1.5010727573238989,0.04213722341942038,0.06802081994092263,0.036798409825528795,0.042541992859763636,0.013732408959958765
1.5011442744788255,0.043587855733941964,0.06743001898091713,0.03793328428010061,0.042812775054182725,0.014626603480195925
1.501215791633752,0.044880915226329254,0.06655515935742985,0.03824814004694497,0.043526670098666634,0.014587292133569263
1.5012873087886787,0.045592465454410994,0.0673876974291262,0.03896037083855539,0.04668268835088758,0.013804912109841803
1.5013588259436053,0.04519857422015515,0.06679040103414517,0.038338310339186395,0.04791927188076237,0.012691217985791224
1.5014303430985318,0.04331902735671992,0.06344374918478857,0.03525172960142179,0.04910413938520288,0.009393488795426829
1.5015018602534584,0.03989064242203222,0.05577975946578344,0.029380562295107576,0.04837775854906819,0.004464414225155633
1.501573377408385,0.035207008956161204,0.046364285867396424,0.02275340008029923,0.04701239241855731,-0.0008501336566723663
1.5016448945633116,0.029854908046904056,0.03760353719490566,0.01716592382272006,0.04358558079296013,-0.004302000085364404
1.5017164117182382,0.02460404968418353,0.029969068855394604,0.01272729457488559,0.03919440038697816,-0.006289714142934345
1.5017879288731648,0.020274028275387688,0.024861755997079793,0.010756457121333964,0.03549204749174893,-0.00638174596371395
1.5018594460280914,0.01756978332877583,0.021945460845848395,0.009814843547662735,0.03253842042740467,-0.005891688163714175
1.501930963183018,0.016887968997375314,0.020628792604275185,0.009773529530205848,0.028757413325852996,-0.004224636311074011
1.5020024803379446,0.018154766828972088,0.018990240826170467,0.009545857603491862,0.025963120737818157,-0.003168982451598917
1.5020739974928712,0.020807783027131654,0.019030702172948475,0.00997328939183271,0.024612321173720596,-0.0021786062211414155
1.5021455146477978,0.023992628107040868,0.02149698421245276,0.01144212206274167,0.024767971903686563,-0.000936626348949976
1.5022170318027244,0.026898257150269028,0.02646094330037863,0.014028974316248104,0.026397577020566547,0.0006403394868933466
1.502288548957651,0.029041972437567,0.03205177985751137,0.016679671046279716,0.02869967803073821,0.001971827192138568
1.5023600661125776,0.03036170293294545,0.03798928816563243,0.019990738498687276,0.03149723712469549,0.0036708883023711435
1.5024315832675041,0.031115659296329378,0.03918746567744235,0.02077896981185265,0.03332661318457514,0.0035514775689694774
1.5025031004224307,0.031680428730509906,0.036300198822997246,0.019519808615351825,0.03286632815723719,0.0026332596727820386
1.5025746175773573,0.032340192227813126,0.03203605034279572,0.018649627815208736,0.030175117358310473,0.0030677326824040713
1.502646134732284,0.033131945974426154,0.028871254809772387,0.017871043624403338,0.026892817631341517,0.003850254027568285
1.5027176518872105,0.033797027787609374,0.02848742563655693,0.01799769758677829,0.02600607122363321,0.004362777824344567
1.502789169042137,0.033871437590867574,0.02735017280445787,0.017486670760106647,0.024811696710887714,0.004444014166781184
1.5028606861970637,0.03289397904446062,0.024572100436384976,0.015274482970942199,0.023379197644279343,0.003112604696573401
1.5029322033519903,0.030638444170610023,0.021551405826677975,0.012011118949132128,0.02239136851085284,0.0006421826965827194
1.5030037205069169,0.02725242384486997,0.02020533839817503,0.009441040885373031,0.022803997204132495,-0.0018394108527616132
1.5030752376618435,0.023245599290448483,0.022541951086613925,0.008606550278537486,0.02478543969279915,-0.003477435810074993
1.50314675481677,0.019358366958489085,0.026678881315006026,0.008953985446160287,0.026855319390339128,-0.0040996762305051575
1.5032182719716967,0.01638051368297583,0.031405640398254074,0.010426555451109277,0.02848292011524547,-0.00351756730030357
1.5032897891266233,0.01497089818834955,0.03550368789568933,0.012350463029946239,0.029640174986180545,-0.0023201664388788957
1.5033613062815498,0.015499460648454992,0.038500621612500306,0.013981854206916533,0.02943945672388377,-0.0007721009504260981
1.5034328234364764,0.01793079665045714,0.03841858129082357,0.01416864675154985,0.027110533179615034,0.0004439726941113205
1.503504340591403,0.021792554285279486,0.037210386846716834,0.013806564009865633,0.023828804806047887,0.0015986789402868606
1.5035758577463296,0.026283745634476982,0.03939098180449783,0.015751292513310384,0.02234384811248924,0.004004851236935481
1.5036473749012562,0.03053094650102892,0.044651908460402644,0.019003856556851165,0.024167813984074412,0.006089632398113595
1.5037188920561828,0.03389868374654469,0.05223369603349672,0.02304438568669538,0.02830794822045192,0.007836580322606259
1.5037904092111094,0.03619247413189749,0.061718877992700066,0.02836367437687625,0.03267077055959002,0.010628282371458183
1.503861926366036,0.03764566473947448,0.0690580910840453,0.03246316988130233,0.03688824854661792,0.012396919703763972
1.5039334435209626,0.038716510453014726,0.07282487240147849,0.03408384953452373,0.040835454822223775,0.012070609312041033
1.5040049606758892,0.0398171228344044,0.0745629912095469,0.03557140334761458,0.043712344118154556,0.012107218407538447
1.5040764778308158,0.041095739566223526,0.07808794554569679,0.037525773851031737,0.04761029258264575,0.012102577278308616
1.5041479949857424,0.04234364882306056,0.08170374369807681,0.038887791087543686,0.052281047937723125,0.011219847726699478
1.504219512140669,0.043051695709888996,0.08336409612492417,0.03921573232033744,0.05706408445202264,0.009359666915994878
1.5042910292955955,0.04260283060723393,0.07892543241702135,0.036347749549566495,0.05851391400402045,0.00613611261396618
1.5043625464505221,0.04053910287302065,0.06790595912056384,0.030363706364527798,0.055962959101772417,0.0019255266671514071
1.5044340636054487,0.03679439695722014,0.053588671705210235,0.02344001313236871,0.050061508425800025,-0.001610720980197364
1.5045055807603753,0.03178229372791513,0.04084301983062399,0.01698689592080203,0.045175170151230126,-0.005178901224058014
1.504577097915302,0.026296542555493532,0.03194275126384063,0.012446934359831944,0.04066130173668428,-0.0072017246810944235
1.5046486150702285,0.021278189004975218,0.028189179831916995,0.011187449324425095,0.03664974964832017,-0.006518534708540956
1.504720132225155,0.017555651134353225,0.026348062493743815,0.011283372248322305,0.033422631725648716,-0.00497813672589175
1.5047916493800817,0.01564621916050789,0.024383269718534235,0.010644076718018416,0.030467641058056168,-0.004217577655476458
1.5048631665350083,0.015656872938766518,0.021267103582652814,0.009217644422453899,0.027100117331977307,-0.003974453591883282
1.5049346836899349,0.017286051262519187,0.019295324936779466,0.008230188330603324,0.024183739001530945,-0.0035425269417996403
1.5050062008448615,0.019918755698584013,0.01898527626774622,0.007905738300784866,0.021733868917949248,-0.0027286589385323297
1.505077717999788,0.022804926807040774,0.020967996259302516,0.009361654152707073,0.01941875435929606,-0.00038548038326560453
1.5051492351547147,0.025289013466251117,0.026285964008774095,0.011726326065843064,0.021589128195112696,0.0007491186215738385
1.5052207523096413,0.027015644551186973,0.03180289106857742,0.014241445734319206,0.02453740248933863,0.0016680438212945692
1.5052922694645678,0.028012475009877,0.03471175816213901,0.015961322224474977,0.02567862769220895,0.002690666023566878
1.5053637866194944,0.028596359216805502,0.03161196342287897,0.014919408532213189,0.02366522793264632,0.0026665591379519487
1.505435303774421,0.02915112616185344,0.024590254789945726,0.013309044659559194,0.018779892598553238,0.00342806010104074
1.5055068209293476,0.029900153036102176,0.01944642188505943,0.012321918805932341,0.014741858214790798,0.004364695395718373
1.5055783380842742,0.030782681811496897,0.018513361482799418,0.01250866989698158,0.012484961725006342,0.005547703010656888
1.5056498552392008,0.03146961942071043,0.021242296047432014,0.013496870470295333,0.014462588553702091,0.00553985825617438
1.5057213723941274,0.03149161794629547,0.023018012464769023,0.013134126432083434,0.017135195948540436,0.004012440701358579
1.505792889549054,0.030427310908792447,0.023530336341536534,0.011855838401314541,0.019302029518436552,0.0018948663623423983
1.5058644067039806,0.02809465201809536,0.022321586407387337,0.009674998552531539,0.020229405793134918,-0.0004707369514187412
1.5059359238589072,0.024683284499830333,0.01936473068936317,0.006168765257997816,0.02130517729784218,-0.004086880716183503
1.5060074410138338,0.020766913938386953,0.01730690923167186,0.003987129865862614,0.022068441073349696,-0.006379113496123704
1.5060789581687604,0.017165658691511196,0.01833182789084166,0.004506773893992003,0.021942067437235417,-0.005858104386348616
1.506150475323687,0.014695536880755058,0.020594354463429002,0.005603202541494299,0.022266668761724336,-0.005025142551267471
1.5062219924786135,0.013907828977730352,0.022323424341623568,0.006474304461408025,0.021544043866455694,-0.003921608655385046
1.5062935096335401,0.014929925183180436,0.022018448358755445,0.007024475314287043,0.018633215841941022,-0.0021190425649114685
1.5063650267884667,0.01746107614733839,0.020187294912123732,0.006681651925523114,0.015664984548773745,-0.0010882972385409277
1.5064365439433933,0.020900617081537138,0.020925886732699052,0.008103902228742074,0.013034064477765457,0.001366678433713016
1.50650806109832,0.024545654709518663,0.02475307844027779,0.01119024144466396,0.010088166524157383,0.005449426447779791
1.5065795782532465,0.027795889555703463,0.03233508285468817,0.015188716512202768,0.010995328045009667,0.008611984646380922
1.506651095408173,0.030315638754338018,0.04267237158161991,0.02020329875354711,0.013214168024110332,0.012092273789119319
1.5067226125630997,0.03210575674634778,0.05336997882142551,0.02516307524326057,0.01779802034254036,0.014460584428341845
1.5067941297180263,0.03344435853615213,0.05973173874398412,0.02809340030703321,0.022835794902390343,0.014812656890900189
1.5068656468729529,0.03469846610783441,0.060411112472800226,0.028836225363534616,0.025058767049434553,0.01447646838606779
1.5069371640278795,0.03608805388876267,0.059308598332900815,0.029158238083419115,0.026114448486658382,0.014289345321377841
1.507008681182806,0.03753193323000867,0.0589516689322508,0.029645090979329304,0.02825229516938897,0.013762681778192653
1.5070801983377327,0.038657419159163646,0.0593726884871748,0.03000532215028713,0.030914189707068492,0.01288696419782384
1.5071517154926592,0.038950459296790155,0.05829176267975518,0.029635790998015537,0.032121689709406986,0.012013069897671657
1.5072232326475858,0.03795818995272562,0.05313308339223213,0.026170643808596194,0.03180226331492585,0.009058239613601074
1.5072947498025124,0.035465807062779846,0.046341357598858005,0.02167628316777021,0.03013725667615183,0.005789996051390389
1.507366266957439,0.03160750390290827,0.04064406284848275,0.01779655130545853,0.028448098364446815,0.003083216096672384
1.5074377841123656,0.02689036393457737,0.03576094315220222,0.014369878001425985,0.027162462170932728,0.0006003750292193579
1.5075093012672922,0.022110982309926926,0.030936633344371203,0.012274203971852665,0.024104425056896646,0.00010559346831237449
1.5075808184222188,0.018158898886019043,0.027511877880327957,0.010838451012952628,0.022700656453995254,-0.0005446409133183238
1.5076523355771454,0.015750547010193554,0.025102376265629528,0.009985828883372298,0.021435670588839877,-0.0007364350659229598
1.507723852732072,0.015198153002695225,0.021054703487741324,0.008495434228764531,0.01837993468451362,-0.0006912451042347401
1.5077953698869986,0.01632710132796861,0.01586312286710937,0.006411917338543193,0.01480081060185221,-0.0009399715860904094
1.5078668870419252,0.01858159605132472,0.011730023063812812,0.00521914285473996,0.011304075562068904,-0.000430318286793413
1.5079384041968518,0.02125563485920751,0.009144777896381207,0.005152249488431391,0.007255450193270345,0.0013331628112362083
1.5080099213517784,0.023737553869918368,0.00849950230491134,0.0057615299185219465,0.004707236037347976,0.003024675902880607
1.508081438506705,0.025680396681245936,0.010616946687276384,0.007453924502377228,0.002625632051888794,0.005473155804100667
1.5081529556616315,0.027059576075294776,0.012801663612641657,0.008842952470356694,0.0013938886104596189,0.007268050464397971
1.5082244728165581,0.028112039179855254,0.012135235196270364,0.008942296206187028,-0.0008540010250361429,0.008368911251177552
1.5082959899714847,0.029172386947160022,0.009663426431645566,0.008780907310022895,-0.003257978216602616,0.009307273706553102
1.5083675071264113,0.03045818310099522,0.009422943669149714,0.010026451111954632,-0.0037676494975204724,0.010648868187933454
1.508439024281338,0.03190386747651281,0.013514653563659036,0.012747040105629182,-0.0014955217958515915,0.012054973813704696
1.5085105414362645,0.03314377564440417,0.0202092318617298,0.01600259242207933,0.0034055203100180065,0.012755561048803637
1.508582058591191,0.03366149064758627,0.02602009089794296,0.0186299276568245,0.00887977119248104,0.01263781481142461
1.5086535757461177,0.03301661123576188,0.026846979864074406,0.017302793300784304,0.012069639220319159,0.010016579840032132
1.5087250929010443,0.031031763736761156,0.023389584299940917,0.013978643770450466,0.012840474637459217,0.006700508159722161
1.5087966100559709,0.02787943173947238,0.01823759870395822,0.009773118861112214,0.012436375409279355,0.0031265111265560666
1.5088681272108975,0.024071143965329337,0.013361578695515151,0.005405399448016361,0.01272398643932171,-0.0009034580590922218
1.508939644365824,0.020368522042175177,0.009274821386215345,0.002619426200917792,0.01132614930510063,-0.0027616637749698814
1.5090111615207507,0.017622660517009992,0.007188706614403175,0.001280243020763253,0.009925696063549549,-0.003326724603808655
1.5090826786756772,0.016549556574789192,0.005969378388152109,0.001094148915450876,0.009279028292985688,-0.003201655877797947
1.5091541958306038,0.01749078347259404,0.0051819819068412995,0.001728275756159572,0.007274043972079099,-0.0017325118807979961
1.5092257129855304,0.02026609634215111,0.005009844541110063,0.002622344403247119,0.004179585357462938,0.00045930417882148155
1.509297230140457,0.024225306810832306,0.008177491122570858,0.005090188490138515,0.0022141553303041323,0.0035478620541415967
1.5093687472953836,0.028505184243561566,0.016407650164161305,0.010396256019729185,0.002664183499135446,0.008083061646003288
1.5094402644503102,0.032363241212534366,0.02833611374535378,0.017181792517199104,0.006042046596825875,0.012621795633986568
1.5095117816052368,0.035420479974014,0.04192502690781407,0.023785576506019895,0.01070344127787918,0.016422279615123023
1.5095832987601634,0.03772295943106026,0.05211115523242705,0.028541189697550762,0.013923492612707795,0.0192223568711422
1.50965481591509,0.039632532833370364,0.05524375426559318,0.030196375009199177,0.015938573381389657,0.019795044739979582
1.5097263330700166,0.041605230836871475,0.05027062659065412,0.028415936049993602,0.014871417873911639,0.01868401523201398
1.5097978502249432,0.04392716574129624,0.04235894333447071,0.026087173799228647,0.00992742104096783,0.018827544314194252
1.5098693673798698,0.04649881119729661,0.037489330666747964,0.025125670272120693,0.005391418099507143,0.02000951650897684
1.5099408845347964,0.048782229516577,0.037261919762215295,0.025898717163670308,0.005368628490560369,0.020710256026711497
1.510012401689723,0.04998265464348263,0.04021595432720922,0.027970420605425636,0.007752108444224489,0.02148854990278178
1.5100839188446495,0.04939582665258717,0.04132116429192623,0.02744804663090382,0.009633600070117631,0.02017548543867579
1.5101554359995761,0.046726633743720845,0.03975957226466802,0.024915387052692306,0.009680770515273369,0.01789172270636823
1.5102269531545027,0.04221494386441091,0.037647779232056824,0.022036546886626967,0.009564335359696401,0.01537250629506068
1.5102984703094293,0.0365554045951188,0.03685320077039501,0.019143160662124768,0.011887442758202266,0.011742447912299078
1.510369987464356,0.030705701566729478,0.037865998602240325,0.01712115674686206,0.015324342510483537,0.008389156858996962
1.5104415046192825,0.025671938650474672,0.03998047579300878,0.016152578444133103,0.0182515187257504,0.006206060801275055
1.510513021774209,0.02230380117340663,0.04204148225036996,0.01595046449902194,0.02087393883294523,0.00484470361595516
1.5105845389291357,0.02110478427342222,0.04040506472242923,0.014310671393420193,0.0209433501118201,0.003348537136128985
1.5106560560840623,0.022087028251984653,0.03421904021932631,0.011927341615445858,0.017215556530049823,0.0028983570151585075
1.5107275732389889,0.02474352062355467,0.024371524196910216,0.008315005741078718,0.011370367670621093,0.0023043982210781437
1.5107990903939155,0.028206425428266402,0.01621160964518558,0.006455089330600415,0.005278455031292172,0.0033867501219658597
1.510870607548842,0.03156791810921427,0.011773854538770626,0.006924877381908108,0.0004562705049131849,0.0059775974802996745
1.5109421247037687,0.034217944840168574,0.01126707424818589,0.0085255112555674,-0.0019362403811618912,0.008484080800241042
1.5110136418586952,0.036025983655989566,0.014466476917232048,0.01161661354179527,-0.002689928950124958,0.011583408726157441
1.5110851590136218,0.03729532439305516,0.016118056455469515,0.013294021431409462,-0.0024013318953343735,0.012951193427675528
1.5111566761685484,0.03854470610167679,0.014613593926849387,0.013163190298163863,-0.001670477120758007,0.01250532244344836
1.511228193323475,0.04022460916569971,0.013093987966950384,0.013651672900344249,-0.0022153988128426638,0.013186823435618226
1.5112997104784016,0.04246467581659284,0.013987206244762032,0.01442102957265151,-0.0015199051366855045,0.013560655590494571
1.5113712276333282,0.04493429586497486,0.019305795793926817,0.016921655013448497,0.002267554465171328,0.014088541530021127
1.5114427447882548,0.04689231770787431,0.025767332139410695,0.019784155718843215,0.00692874186113785,0.014546856992522617
1.5115142619431814,0.047454803887083834,0.028712452580063125,0.02007376929597759,0.010885776299982707,0.013024551004848221
