freq,gls,usurper,pdc_unbiased,shape_periodogram,shift_periodogram
1.5,0.031605246424144244,0.028004054183611727,0.022003088454338578,0.021643048001757866,0.01186418225381327
1.5000715171549266,0.028595336453250155,0.02184552533560775,0.01679692217781675,0.016255413267663013,0.009158442434874533
1.5001430343098532,0.024797888546036324,0.016510920472002474,0.011419584810450916,0.012466093279973913,0.005675454299934363
1.5002145514647798,0.020789812632417533,0.014780319865569309,0.008796510756732951,0.009635117070620215,0.004358853263763194
1.5002860686197064,0.017345459787468324,0.017072447610498337,0.009479677332466734,0.008859330016345788,0.005289943982151379
1.500357585774633,0.015271945925960987,0.02136250591697935,0.011714688134418397,0.009194132079714173,0.007219278382229458
1.5004291029295596,0.015165201318802408,0.026583387150666236,0.01415548030345099,0.011561930045811642,0.00854816609800904
1.5005006200844861,0.01716595655706576,0.0317682667677919,0.016954003693511403,0.013382372201230537,0.010419787428896318
1.5005721372394127,0.02086274426290797,0.03583086170499138,0.019187221778694714,0.014947335865432189,0.011869992116685036
1.5006436543943393,0.02544081002802935,0.039301467213423424,0.02137618975240262,0.01628188820564127,0.01336921223142006
1.500715171549266,0.03000884122307953,0.042805185263857216,0.02421994995090846,0.01712433968012898,0.01566354491272246
1.5007866887041925,0.03391266896856934,0.046638299457147425,0.02666061786266369,0.021303017636014884,0.01629089877664555
1.500858205859119,0.0368882624749449,0.05087244086914932,0.029368029530911475,0.027070545480273038,0.016548135278127866
1.5009297230140457,0.0390355018056212,0.05534271114092223,0.03287087235373193,0.03457089226273748,0.016867892682822898
1.5010012401689723,0.04067274274449097,0.05678592310411217,0.0349635290275476,0.04019629523168457,0.016615576955289816
1.5010727573238989,0.04213722341942038,0.05680046392923054,0.036798409825528795,0.04401620686384552,0.01682700547530557
1.5011442744788255,0.043587855733941964,0.056558099312263105,0.03793328428010061,0.047589497509850476,0.016488030961607815
1.501215791633752,0.044880915226329254,0.05589402111780199,0.03824814004694497,0.05110779244653729,0.015412730516998237
1.5012873087886787,0.045592465454410994,0.056459008198062974,0.03896037083855539,0.05403332879902659,0.014934808558819134
1.5013588259436053,0.04519857422015515,0.055508853757188614,0.038338310339186395,0.053353476697954774,0.01462383667349959
1.5014303430985318,0.04331902735671992,0.05200774264195383,0.03525172960142179,0.05209318736830638,0.01226075565927689
1.5015018602534584,0.03989064242203222,0.044700071032810776,0.029380562295107576,0.049529572138521404,0.007833357019977881
1.501573377408385,0.035207008956161204,0.03618591486943953,0.02275340008029923,0.04682091648301962,0.002768081755311932
1.5016448945633116,0.029854908046904056,0.028379003883556318,0.01716592382272006,0.042396857416887625,-0.0006664787844135023
1.5017164117182382,0.02460404968418353,0.02180256290423235,0.01272729457488559,0.03707867495736143,-0.0026908488407050334
1.5017879288731648,0.020274028275387688,0.017935000370394954,0.010756457121333964,0.03221804144672092,-0.0026167352703506293
1.5018594460280914,0.01756978332877583,0.016287533212351726,0.009814843547662735,0.02928914876679697,-0.0023453221858822614
1.501930963183018,0.016887968997375314,0.01646479143969799,0.009773529530205848,0.026804998791116544,-0.0014170789010292924
1.5020024803379446,0.018154766828972088,0.01609004924087124,0.009545857603491862,0.02487909007861152,-0.0008778516869407543
1.5020739974928712,0.020807783027131654,0.01689517329350424,0.00997328939183271,0.023251931713212836,0.00014894785444203858
1.5021455146477978,0.023992628107040868,0.01924702297708189,0.01144212206274167,0.022858698707661877,0.0016557297577557426
1.5022170318027244,0.026898257150269028,0.02308138179853034,0.014028974316248104,0.02461038147791001,0.0033591694901364596
1.502288548957651,0.029041972437567,0.027066178943135125,0.016679671046279716,0.027357037350477897,0.004735028646835661
1.5023600661125776,0.03036170293294545,0.031538179790672305,0.019990738498687276,0.031193378960274267,0.00629681838107061
1.5024315832675041,0.031115659296329378,0.0318284290173056,0.02077896981185265,0.03344596835110899,0.00614808144980654
1.5025031004224307,0.031680428730509906,0.029051428304320837,0.019519808615351825,0.03434744473540368,0.004636151956826803
1.5025746175773573,0.032340192227813126,0.02555460904491274,0.018649627815208736,0.0331706020167768,0.0042911788013361325
1.502646134732284,0.033131945974426154,0.023008637090255222,0.017871043624403338,0.031277054665715905,0.004309435309520979
1.5027176518872105,0.033797027787609374,0.022465391721814332,0.01799769758677829,0.0299558813467094,0.004939932506205652
1.502789169042137,0.033871437590867574,0.021136853785309665,0.017486670760106647,0.02705063686693544,0.005598231538970248
1.5028606861970637,0.03289397904446062,0.01806970277325341,0.015274482970942199,0.02388848854885301,0.004788037708077664
1.5029322033519903,0.030638444170610023,0.014559372737874185,0.012011118949132128,0.021219636469022245,0.002817518011458006
1.5030037205069169,0.02725242384486997,0.012571889284232451,0.009441040885373031,0.019986057631885046,0.0009283987672545588
1.5030752376618435,0.023245599290448483,0.013682882237129441,0.008606550278537486,0.0196589347787694,0.0002865210903602869
1.50314675481677,0.019358366958489085,0.01664454387433083,0.008953985446160287,0.01967350990970414,0.0006010529997057831
1.5032182719716967,0.01638051368297583,0.02043287538579539,0.010426555451109277,0.019480787730007755,0.0020331546330745963
1.5032897891266233,0.01497089818834955,0.02450273880029283,0.012350463029946239,0.018645968666334785,0.004130917870290507
1.5033613062815498,0.015499460648454992,0.02817201029601917,0.013981854206916533,0.01750205999284425,0.006079230641279181
1.5034328234364764,0.01793079665045714,0.02913215318299465,0.01416864675154985,0.015248259745246687,0.007127469258272624
1.503504340591403,0.021792554285279486,0.029052444034237,0.013806564009865633,0.013127327968722638,0.007618166853930345
1.5035758577463296,0.026283745634476982,0.0318965380521585,0.015751292513310384,0.01362467061217098,0.00921714727308841
1.5036473749012562,0.03053094650102892,0.036878212338860156,0.019003856556851165,0.018003205031704793,0.010513492839699797
1.5037188920561828,0.03389868374654469,0.04325199702811929,0.02304438568669538,0.025150251498950484,0.011461638245197962
1.5037904092111094,0.03619247413189749,0.05112760060992958,0.02836367437687625,0.033069629612685565,0.013291534334898325
1.503861926366036,0.03764566473947448,0.0567878154080399,0.03246316988130233,0.03982321473359109,0.014451869031629235
1.5039334435209626,0.038716510453014726,0.059306975291058585,0.03408384953452373,0.046276884194741894,0.01344161483141619
1.5040049606758892,0.0398171228344044,0.06030833004714965,0.03557140334761458,0.050757963250810695,0.013074970546078469
1.5040764778308158,0.041095739566223526,0.06325287700110853,0.037525773851031737,0.05505206702518782,0.013212826062140023
1.5041479949857424,0.04234364882306056,0.06627186691141615,0.038887791087543686,0.05895990026690126,0.01295366509850497
1.504219512140669,0.043051695709888996,0.06756219017263101,0.03921573232033744,0.06181310070064819,0.012148079087141394
1.5042910292955955,0.04260283060723393,0.06331088368239599,0.036347749549566495,0.06187963799190057,0.009469582797127299
1.5043625464505221,0.04053910287302065,0.053474463427954505,0.030363706364527798,0.05881341569250178,0.005130310727023538
1.5044340636054487,0.03679439695722014,0.04103497965177134,0.02344001313236871,0.05320475384968777,0.0009174640204588248
1.5045055807603753,0.03178229372791513,0.030166573201469787,0.01698689592080203,0.04788347874704237,-0.002967446193185239
1.504577097915302,0.026296542555493532,0.022681119020988003,0.012446934359831944,0.043505249848261235,-0.005451060784404661
1.5046486150702285,0.021278189004975218,0.019809187416178237,0.011187449324425095,0.039763288146563415,-0.0051557792379376645
1.504720132225155,0.017555651134353225,0.01902504617382043,0.011283372248322305,0.036035310407048236,-0.003616290200557254
1.5047916493800817,0.01564621916050789,0.018318091267651947,0.010644076718018416,0.03296557291353992,-0.003011200524764136
1.5048631665350083,0.015656872938766518,0.01663586717853534,0.009217644422453899,0.02999268440098622,-0.003169551577097205
1.5049346836899349,0.017286051262519187,0.015400393331358748,0.008230188330603324,0.026592559780100528,-0.0027570330843708422
1.5050062008448615,0.019918755698584013,0.01529784340094781,0.007905738300784866,0.02347560682408552,-0.0018436767901250344
1.505077717999788,0.022804926807040774,0.01729680171745567,0.009361654152707073,0.021481249613935747,0.0002738058541339805
1.5051492351547147,0.025289013466251117,0.021625279822662713,0.011726326065843064,0.024288943610379133,0.0013615274255550994
1.5052207523096413,0.027015644551186973,0.02602923306320286,0.014241445734319206,0.027640999308260045,0.002376602929434698
1.5052922694645678,0.028012475009877,0.028129143037566792,0.015961322224474977,0.02870111714306463,0.0035500833247853352
1.5053637866194944,0.028596359216805502,0.024715493817126878,0.014919408532213189,0.02679376846782532,0.0033310999467349046
1.505435303774421,0.02915112616185344,0.01825310651520767,0.013309044659559194,0.022594185324088835,0.0034794461509617216
1.5055068209293476,0.029900153036102176,0.013899640871599424,0.012321918805932341,0.019467978322328768,0.0037850289587360694
1.5055783380842742,0.030782681811496897,0.013190269167847043,0.01250866989698158,0.018428670295151,0.004361211960390488
1.5056498552392008,0.03146961942071043,0.015156319756948453,0.013496870470295333,0.019509699552844907,0.004851767446179341
1.5057213723941274,0.03149161794629547,0.01597466156162739,0.013134126432083434,0.020422318004178,0.004162619314905088
1.505792889549054,0.030427310908792447,0.015631668180188817,0.011855838401314541,0.02136015934755917,0.00261975475688062
1.5058644067039806,0.02809465201809536,0.013747354925975765,0.009674998552531539,0.021020917628276205,0.0007416115549151486
1.5059359238589072,0.024683284499830333,0.010333049557087142,0.006168765257997816,0.01987025001285324,-0.0020422691713966705
1.5060074410138338,0.020766913938386953,0.00825539161528677,0.003987129865862614,0.018364938953357158,-0.003467253897260255
1.5060789581687604,0.017165658691511196,0.009326891718823083,0.004506773893992003,0.01629256543246496,-0.002182475856257389
1.506150475323687,0.014695536880755058,0.011798234840057311,0.005603202541494299,0.01483786142036493,-0.0006064730205302913
1.5062219924786135,0.013907828977730352,0.014323959800800775,0.006474304461408025,0.01317353162952619,0.0008433585166546064
1.5062935096335401,0.014929925183180436,0.015370410128769312,0.007024475314287043,0.010290199043015556,0.0024713496748133244
1.5063650267884667,0.01746107614733839,0.014910282864593904,0.006681651925523114,0.008549485000294215,0.002832222128429518
1.5064365439433933,0.020900617081537138,0.01666578879080069,0.008103902228742074,0.007853275422494166,0.004413367228037593
1.50650806109832,0.024545654709518663,0.020516979709708442,0.01119024144466396,0.007529189041770697,0.007383206825917039
1.5065795782532465,0.027795889555703463,0.02677395310847159,0.015188716512202768,0.011150365027019412,0.009660324511104252
1.506651095408173,0.030315638754338018,0.03518961423050404,0.02020329875354711,0.017178658886698776,0.011939572360929497
1.5067226125630997,0.03210575674634778,0.04363839609789393,0.02516307524326057,0.02371562915816496,0.013972808108030725
1.5067941297180263,0.03344435853615213,0.04841018395084774,0.02809340030703321,0.029083819404437338,0.014590404991973152
1.5068656468729529,0.03469846610783441,0.04864631752324648,0.028836225363534616,0.032271293883956546,0.014037662354725417
1.5069371640278795,0.03608805388876267,0.047660536854095804,0.029158238083419115,0.03398699684627421,0.01366835316147173
1.507008681182806,0.03753193323000867,0.04749072168680901,0.029645090979329304,0.036304769260608744,0.013217290334148885
1.5070801983377327,0.038657419159163646,0.047753013524930554,0.03000532215028713,0.03841830656825594,0.012728702038752223
1.5071517154926592,0.038950459296790155,0.04681106382221426,0.029635790998015537,0.03834252846425789,0.01241705872061789
1.5072232326475858,0.03795818995272562,0.04201511016177921,0.026170643808596194,0.03695733707006294,0.009757375073894034
1.5072947498025124,0.035465807062779846,0.03594395677452236,0.02167628316777021,0.03499122509928251,0.0063750236696862505
1.507366266957439,0.03160750390290827,0.030832951354764083,0.01779655130545853,0.033494092642630056,0.0033786098299938903
1.5074377841123656,0.02689036393457737,0.026290896359028794,0.014369878001425985,0.032224633678228136,0.0007123500397243025
1.5075093012672922,0.022110982309926926,0.021996175524498816,0.012274203971852665,0.0302320785284398,-0.0004448435250384537
1.5075808184222188,0.018158898886019043,0.01904411963053689,0.010838451012952628,0.029924767779797537,-0.0016489567528295455
1.5076523355771454,0.015750547010193554,0.017487081308743907,0.009985828883372298,0.028371507260140687,-0.0018307273930568606
1.507723852732072,0.015198153002695225,0.014886267283942904,0.008495434228764531,0.024818305321251278,-0.0018224055950351178
1.5077953698869986,0.01632710132796861,0.011393532247197078,0.006411917338543193,0.0201827499469741,-0.0019397240925414791
1.5078668870419252,0.01858159605132472,0.008917915958648144,0.00521914285473996,0.01532342944125915,-0.0011491854126506197
1.5079384041968518,0.02125563485920751,0.007376961232830493,0.005152249488431391,0.01029643700886133,0.0007438150350395452
1.5080099213517784,0.023737553869918368,0.007085737542916451,0.0057615299185219465,0.007215451478153111,0.0025030695537860623
1.508081438506705,0.025680396681245936,0.008602559863053218,0.007453924502377228,0.005577396801008168,0.0046992460955910306
1.5081529556616315,0.027059576075294776,0.009965079555486483,0.008842952470356694,0.005448979875407792,0.0060290065230368586
1.5082244728165581,0.028112039179855254,0.008825536063993772,0.008942296206187028,0.004421361083156652,0.006520021584451033
1.5082959899714847,0.029172386947160022,0.006225984238277744,0.008780907310022895,0.003566535793806125,0.006703629487402702
1.5083675071264113,0.03045818310099522,0.005855225638430001,0.010026451111954632,0.0035079238646764945,0.007874032939246704
1.508439024281338,0.03190386747651281,0.009432796959736861,0.012747040105629182,0.005946962569487486,0.009432731035544368
1.5085105414362645,0.03314377564440417,0.014998407192124674,0.01600259242207933,0.010254428379139697,0.010758569738790691
1.508582058591191,0.03366149064758627,0.019554559782547585,0.0186299276568245,0.01316995976986986,0.012046979885374818
1.5086535757461177,0.03301661123576188,0.019273896332781405,0.017302793300784304,0.013148034989860984,0.010832319593414033
1.5087250929010443,0.031031763736761156,0.01564909240434647,0.013978643770450466,0.01135191087922284,0.008466830818880635
1.5087966100559709,0.02787943173947238,0.010935196304635237,0.009773118861112214,0.009073951081081055,0.005476903165627634
1.5088681272108975,0.024071143965329337,0.006573859150035988,0.005405399448016361,0.007676636477812969,0.0019956342249333758
1.508939644365824,0.020368522042175177,0.0029465293386780164,0.002619426200917792,0.005449091510483867,0.0002947864089231093
1.5090111615207507,0.017622660517009992,0.0010472795753472218,0.001280243020763253,0.004876857734761903,-0.0007165761041785672
1.5090826786756772,0.016549556574789192,0.0006055405070134995,0.001094148915450876,0.004907347003087961,-0.000899885785995843
1.5091541958306038,0.01749078347259404,0.001190322892923171,0.001728275756159572,0.004405304342107554,-0.00012044701053084653
1.5092257129855304,0.02026609634215111,0.0022374689396549383,0.002622344403247119,0.0025892376729886417,0.001409365510458865
1.509297230140457,0.024225306810832306,0.005886286332422914,0.005090188490138515,0.001131983435121139,0.004249636066675946
1.5093687472953836,0.028505184243561566,0.013713654358215806,0.010396256019729185,0.0014746337180022572,0.009005166302182628
1.5094402644503102,0.032363241212534366,0.024129396460628377,0.017181792517199104,0.004582501189458818,0.014049469346509854
1.5095117816052368,0.035420479974014,0.0353596403989093,0.023785576506019895,0.009663400239559816,0.018161238687624315
1.5095832987601634,0.03772295943106026,0.043618272345821066,0.028541189697550762,0.014742864642413814,0.020572387978024746
1.50965481591509,0.039632532833370364,0.04575025528182177,0.030196375009199177,0.01767024610148145,0.02096196662759965
1.5097263330700166,0.041605230836871475,0.040670817784171295,0.028415936049993602,0.01766407603852851,0.019322626761692593
1.5097978502249432,0.04392716574129624,0.03347880029948212,0.026087173799228647,0.014392617607666412,0.01844597132522119
1.5098693673798698,0.04649881119729661,0.029605937123147484,0.025125670272120693,0.01148800455866697,0.01868773288923022
1.5099408845347964,0.048782229516577,0.030192975748610577,0.025898717163670308,0.012274100401147452,0.019095014839731212
1.510012401689723,0.04998265464348263,0.03341687055130161,0.027970420605425636,0.014649243174010125,0.020082515947502655
1.5100839188446495,0.04939582665258717,0.03421387611592502,0.02744804663090382,0.01576826386362493,0.019166374829727034
1.5101554359995761,0.046726633743720845,0.0321499029141583,0.024915387052692306,0.014930979766538306,0.017156624360045423
1.5102269531545027,0.04221494386441091,0.02969792192069269,0.022036546886626967,0.01426334038504884,0.014762159291415276
1.5102984703094293,0.0365554045951188,0.028270151401147792,0.019143160662124768,0.015287337806550066,0.011697261528995596
1.510369987464356,0.030705701566729478,0.028262673794756357,0.01712115674686206,0.017334007977146338,0.009038109391172264
1.5104415046192825,0.025671938650474672,0.029218048531554804,0.016152578444133103,0.019401987235072447,0.0073415423777793
1.510513021774209,0.02230380117340663,0.03096211436884563,0.01595046449902194,0.021187029290438242,0.006461377075413278
1.5105845389291357,0.02110478427342222,0.029986765066807135,0.014310671393420193,0.02034560371060937,0.00527691886786591
1.5106560560840623,0.022087028251984653,0.025522913399940082,0.011927341615445858,0.016090146701612153,0.004734562235938251
1.5107275732389889,0.02474352062355467,0.017956010127264426,0.008315005741078718,0.010075118875009951,0.003744115078098256
1.5107990903939155,0.028206425428266402,0.012023653044910817,0.006455089330600415,0.0033263900419197197,0.004654057400029383
1.510870607548842,0.03156791810921427,0.008956244538851634,0.006924877381908108,-0.0016816983539179068,0.007033884899270982
1.5109421247037687,0.034217944840168574,0.008732585628145906,0.0085255112555674,-0.0034835419157029065,0.009209095330121425
1.5110136418586952,0.036025983655989566,0.01150157258595697,0.01161661354179527,-0.0027954656728760847,0.011789484136458367
1.5110851590136218,0.03729532439305516,0.01259426500550855,0.013294021431409462,-0.0014374547796957742,0.012807033183358277
1.5111566761685484,0.03854470610167679,0.010532088759736486,0.013163190298163863,-0.00014634305150553365,0.01218462090928993
1.511228193323475,0.04022460916569971,0.008575637192874968,0.013651672900344249,-0.0004332176612589479,0.0127461985760981
1.5112997104784016,0.04246467581659284,0.009173344687432684,0.01442102957265151,-0.0005170448460300026,0.013487636356232229
1.5113712276333282,0.04493429586497486,0.013922976877810246,0.016921655013448497,0.0017697209580084122,0.014902890571919312
1.5114427447882548,0.04689231770787431,0.019514169378398432,0.019784155718843215,0.004262179903552768,0.01657197549098209
1.5115142619431814,0.047454803887083834,0.022071385841951962,0.02007376929597759,0.006210611835646742,0.016081781587112126
