freq,gls,usurper,pdc_unbiased,shape_periodogram,shift_periodogram
1.5,0.031605246424144244,0.0384212815463036,0.022003088454338578,0.032516826715113085,0.006423477839938408
1.5000715171549266,0.028595336453250155,0.030472825354285398,0.01679692217781675,0.027172904959480142,0.0039197700694647754
1.5001430343098532,0.024797888546036324,0.024519311377294583,0.011419584810450916,0.022998141518537126,0.0007741796037167986
1.5002145514647798,0.020789812632417533,0.023674719419903012,0.008796510756732951,0.0195205895462197,-0.00015779098873669762
1.5002860686197064,0.017345459787468324,0.027986938382616452,0.009479677332466734,0.01725440546678862,0.0014095517229686565
1.500357585774633,0.015271945925960987,0.034336783261043606,0.011714688134418397,0.016162668759629156,0.003896872829823521
1.5004291029295596,0.015165201318802408,0.04125471514045338,0.01415548030345099,0.01796258141946566,0.005363993159883755
1.5005006200844861,0.01716595655706576,0.04711198415701976,0.016954003693511403,0.02028111985264694,0.00694013897156461
1.5005721372394127,0.02086274426290797,0.05139560543984604,0.019187221778694714,0.023735783791018032,0.007528465295284388
1.5006436543943393,0.02544081002802935,0.05542727315631438,0.02137618975240262,0.02718262215524593,0.00808025188442944
1.500715171549266,0.03000884122307953,0.060058726409255185,0.02421994995090846,0.02907303755126924,0.009877861485264627
1.5007866887041925,0.03391266896856934,0.06659410102316553,0.02666061786266369,0.03326367683927842,0.010349366102956701
1.500858205859119,0.0368882624749449,0.0738528747719925,0.029368029530911475,0.03794446126232997,0.010859855119018266
1.5009297230140457,0.0390355018056212,0.08118185851037889,0.03287087235373193,0.04336244502483828,0.011788101437842735
1.5010012401689723,0.04067274274449097,0.08359328081713695,0.0349635290275476,0.04718387427019118,0.012099526136013094
1.5010727573238989,0.04213722341942038,0.08288276998875517,0.036798409825528795,0.048678515316467046,0.013147773170540592
1.5011442744788255,0.043587855733941964,0.08196953194167958,0.03793328428010061,0.05067325432968954,0.013349727728008258
1.501215791633752,0.044880915226329254,0.0812638440969057,0.03824814004694497,0.05271364491124262,0.012785229488932069
1.5012873087886787,0.045592465454410994,0.08236881290012872,0.03896037083855539,0.05618888827747914,0.011984066486777085
1.5013588259436053,0.04519857422015515,0.081400991925311,0.038338310339186395,0.057202170148284395,0.010993720811038762
1.5014303430985318,0.04331902735671992,0.07701974810102707,0.03525172960142179,0.05786526222549912,0.007902168627882445
1.5015018602534584,0.03989064242203222,0.06774344091805946,0.029380562295107576,0.05603489731249691,0.0033154281059968593
1.501573377408385,0.035207008956161204,0.0563729430005142,0.02275340008029923,0.05402137484640142,-0.0018796812599884388
1.5016448945633116,0.029854908046904056,0.04581214750261329,0.01716592382272006,0.04965178072100873,-0.005138755554476911
1.5017164117182382,0.02460404968418353,0.03700589316681456,0.01272729457488559,0.043981414641656405,-0.006805715700434818
1.5017879288731648,0.020274028275387688,0.030836754530042584,0.010756457121333964,0.03843763462860081,-0.006280116460059648
1.5018594460280914,0.01756978332877583,0.02718756643115019,0.009814843547662735,0.03456250152298281,-0.005516443684623028
1.501930963183018,0.016887968997375314,0.02551636719916201,0.009773529530205848,0.03186913404441346,-0.004428340906749292
1.5020024803379446,0.018154766828972088,0.02351104440041871,0.009545857603491862,0.030431675233979674,-0.004034648585767767
1.5020739974928712,0.020807783027131654,0.023861780468978366,0.00997328939183271,0.02996315975888273,-0.003450266982708765
1.5021455146477978,0.023992628107040868,0.02776018500287454,0.01144212206274167,0.030987418556889555,-0.002542756707030395
1.5022170318027244,0.026898257150269028,0.03498581927734884,0.014028974316248104,0.03391249431585428,-0.0014126334235667766
1.502288548957651,0.029041972437567,0.042422413212900904,0.016679671046279716,0.03653057116570343,-9.56817943263827e-05
1.5023600661125776,0.03036170293294545,0.0492391013761009,0.019990738498687276,0.038787404346645314,0.0019736219009389346
1.5024315832675041,0.031115659296329378,0.05027493898019874,0.02077896981185265,0.03950109473681274,0.0023926653181511126
1.5025031004224307,0.031680428730509906,0.046409691374018666,0.019519808615351825,0.03866804972409017,0.001595008322938756
1.5025746175773573,0.032340192227813126,0.04003408195187551,0.018649627815208736,0.03593008701426025,0.00194721285740092
1.502646134732284,0.033131945974426154,0.035493414194872654,0.017871043624403338,0.03249555487418577,0.0026736703410710394
1.5027176518872105,0.033797027787609374,0.03409656750628112,0.01799769758677829,0.030808218655663994,0.0034936083946452354
1.502789169042137,0.033871437590867574,0.03193441991196613,0.017486670760106647,0.028404449710566163,0.0040327195450994184
1.5028606861970637,0.03289397904446062,0.02771735361385285,0.015274482970942199,0.02659477042071433,0.002776832380047866
1.5029322033519903,0.030638444170610023,0.023733335592889395,0.012011118949132128,0.025022621456023648,0.00046638735163645635
1.5030037205069169,0.02725242384486997,0.021936497763351652,0.009441040885373031,0.02423044397570322,-0.001539132119343467
1.5030752376618435,0.023245599290448483,0.024995360597780993,0.008606550278537486,0.024599121049478912,-0.0024517134272737102
1.50314675481677,0.019358366958489085,0.030929141372739326,0.008953985446160287,0.025084009647036998,-0.0023384450373260817
1.5032182719716967,0.01638051368297583,0.037667513011516426,0.010426555451109277,0.024910984754635494,-0.0009275160834173461
1.5032897891266233,0.01497089818834955,0.042983814112004845,0.012350463029946239,0.02438931932081569,0.0010394049856247796
1.5033613062815498,0.015499460648454992,0.046533701629335365,0.013981854206916533,0.023951105256596585,0.0027055918819266444
1.5034328234364764,0.01793079665045714,0.04630722958644269,0.01416864675154985,0.022430291143605265,0.003510497525724807
1.503504340591403,0.021792554285279486,0.04525839866799108,0.013806564009865633,0.020827487538057802,0.0038506062441062954
1.5035758577463296,0.026283745634476982,0.04876974498493486,0.015751292513310384,0.02163542115265013,0.005281257806423942
1.5036473749012562,0.03053094650102892,0.056654092882568445,0.019003856556851165,0.025931096860154008,0.00644521057216725
1.5037188920561828,0.03389868374654469,0.06754014268527825,0.02304438568669538,0.0326587076004275,0.007311569378517207
1.5037904092111094,0.03619247413189749,0.08010294562304353,0.02836367437687625,0.03900164208906664,0.009504291841149794
1.503861926366036,0.03764566473947448,0.08974093129715781,0.03246316988130233,0.044200345745435,0.011067044687941632
1.5039334435209626,0.038716510453014726,0.09517687102724123,0.03408384953452373,0.04898779916287625,0.010545011535716341
1.5040049606758892,0.0398171228344044,0.09745429732561232,0.03557140334761458,0.05231277434503787,0.010512502840647475
1.5040764778308158,0.041095739566223526,0.10234551188398607,0.037525773851031737,0.05569663378238081,0.01088137502684893
1.5041479949857424,0.04234364882306056,0.10752037760941749,0.038887791087543686,0.0591861931801819,0.01066643182750104
1.504219512140669,0.043051695709888996,0.10992119282817071,0.03921573232033744,0.06216684796589775,0.009720747440738016
1.5042910292955955,0.04260283060723393,0.10398255132388168,0.036347749549566495,0.06298599619513091,0.006762049160438638
1.5043625464505221,0.04053910287302065,0.08942563045284167,0.030363706364527798,0.060423882298785765,0.002376439178503866
1.5044340636054487,0.03679439695722014,0.07046674447683791,0.02344001313236871,0.05466622787686668,-0.0015240916472015551
1.5045055807603753,0.03178229372791513,0.05375744343639921,0.01698689592080203,0.049299388497497335,-0.005154284049605169
1.504577097915302,0.026296542555493532,0.042585675938884716,0.012446934359831944,0.044617856796210865,-0.007326950234105288
1.5046486150702285,0.021278189004975218,0.038066606783615904,0.011187449324425095,0.040301813881983055,-0.00666758305774762
1.504720132225155,0.017555651134353225,0.03567813886271607,0.011283372248322305,0.036718303990742364,-0.005082168936726816
1.5047916493800817,0.01564621916050789,0.0333770243962224,0.010644076718018416,0.03476316576471233,-0.004846292778634824
1.5048631665350083,0.015656872938766518,0.029789395199653453,0.009217644422453899,0.03257875321707596,-0.005230321331723552
1.5049346836899349,0.017286051262519187,0.027205866060922998,0.008230188330603324,0.030362683087400703,-0.005201956483675155
1.5050062008448615,0.019918755698584013,0.02723688687879895,0.007905738300784866,0.028124580075549004,-0.004561683650931906
1.505077717999788,0.022804926807040774,0.030312392397119498,0.009361654152707073,0.026265290052920984,-0.002461338050765167
1.5051492351547147,0.025289013466251117,0.037646606918725706,0.011726326065843064,0.02848999459360274,-0.0012409288054998407
1.5052207523096413,0.027015644551186973,0.0447446028328163,0.014241445734319206,0.030715924122080223,0.00011611179158180814
1.5052922694645678,0.028012475009877,0.04784060024614169,0.015961322224474977,0.030709177176610536,0.0016829657188099005
1.5053637866194944,0.028596359216805502,0.043114327810103874,0.014919408532213189,0.028306920560028172,0.0017388813977196767
1.505435303774421,0.02915112616185344,0.032815337059865717,0.013309044659559194,0.023083369421939778,0.0024562855412994127
1.5055068209293476,0.029900153036102176,0.02520427538985262,0.012321918805932341,0.018583013734481024,0.0034382072628069554
1.5055783380842742,0.030782681811496897,0.023652379994558097,0.01250866989698158,0.016335200662608816,0.004546520541300407
1.5056498552392008,0.03146961942071043,0.02690185419741899,0.013496870470295333,0.017169519975623694,0.005096423466332023
1.5057213723941274,0.03149161794629547,0.0295283026240096,0.013134126432083434,0.018839656469870555,0.004069350144407415
1.505792889549054,0.030427310908792447,0.029756530023436766,0.011855838401314541,0.020646738822329865,0.0021527624790300542
1.5058644067039806,0.02809465201809536,0.027498048868705063,0.009674998552531539,0.02104153903381874,5.492488238140667e-06
1.5059359238589072,0.024683284499830333,0.02367813271535973,0.006168765257997816,0.020744040078116324,-0.0030571703399445093
1.5060074410138338,0.020766913938386953,0.02138548415979349,0.003987129865862614,0.020416923768214214,-0.004903318876476382
1.5060789581687604,0.017165658691511196,0.02280904840080531,0.004506773893992003,0.018864886577469264,-0.0037827463748335505
1.506150475323687,0.014695536880755058,0.02583772701595647,0.005603202541494299,0.0178920954571884,-0.0023799683911811696
1.5062219924786135,0.013907828977730352,0.028293800645899016,0.006474304461408025,0.017522717387098763,-0.001434005768563404
1.5062935096335401,0.014929925183180436,0.02769138064878745,0.007024475314287043,0.015879279187997742,-0.00024763786388512423
1.5063650267884667,0.01746107614733839,0.0254582706763373,0.006681651925523114,0.015295659308427485,-0.00031547552895152945
1.5064365439433933,0.020900617081537138,0.026852684178962437,0.008103902228742074,0.015323935857792096,0.0009653002939374636
1.50650806109832,0.024545654709518663,0.03239805956165518,0.01119024144466396,0.014832182755287634,0.003975724891018315
1.5065795782532465,0.027795889555703463,0.043250527720095584,0.015188716512202768,0.017536138524849795,0.0064812836835932185
1.506651095408173,0.030315638754338018,0.05743992707679233,0.02020329875354711,0.021250264342896435,0.009489921736076405
1.5067226125630997,0.03210575674634778,0.071612194968822,0.02516307524326057,0.02566427876643824,0.01215838950642071
1.5067941297180263,0.03344435853615213,0.08037384003861793,0.02809340030703321,0.029952599645039872,0.013034869565823138
1.5068656468729529,0.03469846610783441,0.08172001090488154,0.028836225363534616,0.032114227053503315,0.012808864431429836
1.5069371640278795,0.03608805388876267,0.08034231607768084,0.029158238083419115,0.03327246160144526,0.012618624387427516
1.507008681182806,0.03753193323000867,0.07973315459980923,0.029645090979329304,0.0352023384003738,0.012256432015419346
1.5070801983377327,0.038657419159163646,0.07970834539907536,0.03000532215028713,0.03722466627705328,0.011740402173922523
1.5071517154926592,0.038950459296790155,0.07763557342138191,0.029635790998015537,0.037537806285636466,0.011273325888884094
1.5072232326475858,0.03795818995272562,0.07054779981844646,0.026170643808596194,0.0368022595153259,0.008426351061518718
1.5072947498025124,0.035465807062779846,0.06154913611085872,0.02167628316777021,0.035303637724649,0.00496242140561012
1.507366266957439,0.03160750390290827,0.054036151831018814,0.01779655130545853,0.03332635652779311,0.0022588877487825123
1.5074377841123656,0.02689036393457737,0.047763638415306994,0.014369878001425985,0.03199406719149425,-0.0003010626052721162
1.5075093012672922,0.022110982309926926,0.04189115251210597,0.012274203971852665,0.029316657294280346,-0.0010881377493955286
1.5075808184222188,0.018158898886019043,0.0379283298003665,0.010838451012952628,0.02763781163777545,-0.0016921539213124682
1.5076523355771454,0.015750547010193554,0.034471415074874,0.009985828883372298,0.025642062845912365,-0.0016335609973968488
1.507723852732072,0.015198153002695225,0.028482526059018777,0.008495434228764531,0.02247087539295051,-0.0016637033394464745
1.5077953698869986,0.01632710132796861,0.020890673411927976,0.006411917338543193,0.01892915722521979,-0.00207811929886292
1.5078668870419252,0.01858159605132472,0.014738413014515749,0.00521914285473996,0.015537365230722926,-0.0017455523342689134
1.5079384041968518,0.02125563485920751,0.01084083602775394,0.005152249488431391,0.011687864100434934,-0.000198745786081542
1.5080099213517784,0.023737553869918368,0.010113125236595629,0.0057615299185219465,0.009405337530879358,0.0013080630540624164
1.508081438506705,0.025680396681245936,0.012400832603320424,0.007453924502377228,0.007395188998766073,0.0036853340231702836
1.5081529556616315,0.027059576075294776,0.014972681640624423,0.008842952470356694,0.005128997800877182,0.005893769377529232
1.5082244728165581,0.028112039179855254,0.014228262383756112,0.008942296206187028,0.002208638878832739,0.007203328888699567
1.5082959899714847,0.029172386947160022,0.01109262152303158,0.008780907310022895,-0.0005026693336464638,0.008188694950269517
1.5083675071264113,0.03045818310099522,0.010270845098203724,0.010026451111954632,-0.0018292742145598327,0.009874353525501211
1.508439024281338,0.03190386747651281,0.015435097437377634,0.012747040105629182,-0.00030365440264547,0.011709523290601116
1.5085105414362645,0.03314377564440417,0.023768228247733784,0.01600259242207933,0.0038384429196143574,0.01293884092612962
1.508582058591191,0.03366149064758627,0.030302920236289225,0.0186299276568245,0.00776820758812549,0.01368645065865629
1.5086535757461177,0.03301661123576188,0.03096242883258786,0.017302793300784304,0.00957543221186905,0.011725942398619257
1.5087250929010443,0.031031763736761156,0.025981079889382096,0.013978643770450466,0.009947714451109282,0.00854927205136885
1.5087966100559709,0.02787943173947238,0.019182908903233185,0.009773118861112214,0.008579332821119043,0.005298498546299164
1.5088681272108975,0.024071143965329337,0.013324401741419006,0.005405399448016361,0.008219631913687554,0.0014795448625468436
1.508939644365824,0.020368522042175177,0.008739024436340908,0.002619426200917792,0.006581302041000888,-0.00036794721913163214
1.5090111615207507,0.017622660517009992,0.006641075910464205,0.001280243020763253,0.005128254724761085,-0.0009780726704677538
1.5090826786756772,0.016549556574789192,0.0052460046345255236,0.001094148915450876,0.004629234461367267,-0.0009387937517554219
1.5091541958306038,0.01749078347259404,0.004040465998746118,0.001728275756159572,0.003977013434856192,-9.024276589208839e-05
1.5092257129855304,0.02026609634215111,0.003488515397696969,0.002622344403247119,0.00247552031856593,0.0013491249077522399
1.509297230140457,0.024225306810832306,0.00702367892076377,0.005090188490138515,0.002119993014760728,0.003740015001714439
1.5093687472953836,0.028505184243561566,0.017350604370795306,0.010396256019729185,0.003942123927979455,0.007800813085765202
1.5094402644503102,0.032363241212534366,0.033007307127294924,0.017181792517199104,0.00807501828133278,0.012242208978616085
1.5095117816052368,0.035420479974014,0.051404678505491616,0.023785576506019895,0.013248282528789092,0.01608624590500347
1.5095832987601634,0.03772295943106026,0.06538389284503537,0.028541189697550762,0.017075935346834898,0.018813692779755947
1.50965481591509,0.039632532833370364,0.0699389717739002,0.030196375009199177,0.018774817581403477,0.01961051160738229
1.5097263330700166,0.041605230836871475,0.06384237532291605,0.028415936049993602,0.017457353942170635,0.018540702663946106
1.5097978502249432,0.04392716574129624,0.05310900381877117,0.026087173799228647,0.012688117631932635,0.01841247717266381
1.5098693673798698,0.04649881119729661,0.04663047698758824,0.025125670272120693,0.00831382953732237,0.019363152424626853
1.5099408845347964,0.048782229516577,0.04635993259292222,0.025898717163670308,0.008083665092005279,0.02016189620396505
1.510012401689723,0.04998265464348263,0.04980816273914576,0.027970420605425636,0.010289939907965052,0.021124991606360083
1.5100839188446495,0.04939582665258717,0.05130614724147819,0.02744804663090382,0.012479196929635132,0.019736932163589828
1.5101554359995761,0.046726633743720845,0.04923577116906867,0.024915387052692306,0.013754025742254502,0.01690243729261083
1.5102269531545027,0.04221494386441091,0.04640229116843957,0.022036546886626967,0.014310935895431465,0.014052738218632043
1.5102984703094293,0.0365554045951188,0.04560233171294506,0.019143160662124768,0.015816255261325716,0.010794097969994957
1.510369987464356,0.030705701566729478,0.04743797090046785,0.01712115674686206,0.01792294750789745,0.008076540337082766
1.5104415046192825,0.025671938650474672,0.0506155883141144,0.016152578444133103,0.018825619645363435,0.006819172963755602
1.510513021774209,0.02230380117340663,0.05315165524056555,0.01595046449902194,0.019313285496408192,0.006431838252780361
1.5105845389291357,0.02110478427342222,0.05067519899199456,0.014310671393420193,0.018479458996135154,0.005289263934928943
1.5106560560840623,0.022087028251984653,0.04144108370420038,0.011927341615445858,0.014600372415006436,0.0047424657747157165
1.5107275732389889,0.02474352062355467,0.027385307182657827,0.008315005741078718,0.009395524433404513,0.0036326288743980415
1.5107990903939155,0.028206425428266402,0.01569290148145259,0.006455089330600415,0.0038939101295579204,0.004239588857625991
1.510870607548842,0.03156791810921427,0.009151269080034618,0.006924877381908108,-0.00022780449532365586,0.006387428556437557
1.5109421247037687,0.034217944840168574,0.008518872067659711,0.0085255112555674,-0.002084851802467687,0.008617231581083072
1.5110136418586952,0.036025983655989566,0.012523995787109882,0.01161661354179527,-0.002673691462366024,0.01167181425069723
1.5110851590136218,0.03729532439305516,0.015007029691498766,0.013294021431409462,-0.00262204125996269,0.013174433408955574
1.5111566761685484,0.03854470610167679,0.013472262661017677,0.013163190298163863,-0.002368866989109988,0.012949855686586301
1.511228193323475,0.04022460916569971,0.011144455740641846,0.013651672900344249,-0.0033765208197825813,0.013814400679908334
1.5112997104784016,0.04246467581659284,0.012436978139718276,0.01442102957265151,-0.0037094217867317063,0.014652456203983453
1.5113712276333282,0.04493429586497486,0.019503710269219616,0.016921655013448497,-0.001793193194579655,0.01612474857918818
1.5114427447882548,0.04689231770787431,0.027736822355615223,0.019784155718843215,0.0012884142448166722,0.017439752513352925
1.5115142619431814,0.047454803887083834,0.0319493109790161,0.02007376929597759,0.004393506285049826,0.0164070926183599
