freq,gls,usurper,pdc_unbiased,shape_periodogram,shift_periodogram
1.5,0.031605246424144244,0.032044253485821336,0.022003088454338578,0.03868081901699233,-0.00010260730191294452
1.5000715171549266,0.028595336453250155,0.02539734698746518,0.01679692217781675,0.03170525901464618,-0.0011611451295768741
1.5001430343098532,0.024797888546036324,0.019729795292287505,0.011419584810450916,0.026346989516993,-0.003170136929587361
1.5002145514647798,0.020789812632417533,0.017987077829310957,0.008796510756732951,0.02238063180325289,-0.003477708891454792
1.5002860686197064,0.017345459787468324,0.02066559805209264,0.009479677332466734,0.021419845971864568,-0.002407268012030816
1.500357585774633,0.015271945925960987,0.02528516715985958,0.011714688134418397,0.022651456324688922,-0.0010781729230541401
1.5004291029295596,0.015165201318802408,0.030654268015672455,0.01415548030345099,0.027147649697951394,-0.0011916505469313926
1.5005006200844861,0.01716595655706576,0.03569487715878804,0.016954003693511403,0.030879460710600288,-0.0006144121788506675
1.5005721372394127,0.02086274426290797,0.03962948307770495,0.019187221778694714,0.034935416215925885,-0.0006890235074532893
1.5006436543943393,0.02544081002802935,0.04307244797289333,0.02137618975240262,0.03929437202320785,-0.0009524581369080349
1.500715171549266,0.03000884122307953,0.04666839393461891,0.02421994995090846,0.04240197932090115,-2.440481580990753e-05
1.5007866887041925,0.03391266896856934,0.05073185052842815,0.02666061786266369,0.04845720619976707,-0.0009114591372697004
1.500858205859119,0.0368882624749449,0.05524134984508071,0.029368029530911475,0.05553332844863128,-0.002074247913267022
1.5009297230140457,0.0390355018056212,0.060159620631467424,0.03287087235373193,0.0638660514780034,-0.0031700073006480185
1.5010012401689723,0.04067274274449097,0.06172797846628538,0.0349635290275476,0.06982763301339166,-0.004314551332485437
1.5010727573238989,0.04213722341942038,0.06170746802921899,0.036798409825528795,0.07316152137893357,-0.004375332093146271
1.5011442744788255,0.043587855733941964,0.061499734247000365,0.03793328428010061,0.0760777020045045,-0.004838430873442431
1.501215791633752,0.044880915226329254,0.060931422118476616,0.03824814004694497,0.07838724791058069,-0.005714822451623866
1.5012873087886787,0.045592465454410994,0.06179574451379602,0.03896037083855539,0.08161001187702416,-0.006700120068203257
1.5013588259436053,0.04519857422015515,0.06104639897579543,0.038338310339186395,0.0818213642903631,-0.0073484776762405175
1.5014303430985318,0.04331902735671992,0.05740736131959049,0.03525172960142179,0.08106484383523356,-0.009664420290249404
1.5015018602534584,0.03989064242203222,0.04966435551753959,0.029380562295107576,0.07700376537668016,-0.012757753096948732
1.501573377408385,0.035207008956161204,0.04058629746812979,0.02275340008029923,0.07180003313171958,-0.015934599532146963
1.5016448945633116,0.029854908046904056,0.032309903514141945,0.01716592382272006,0.06438298952161173,-0.017098627791656315
1.5017164117182382,0.02460404968418353,0.025401498463492246,0.01272729457488559,0.056223647154516984,-0.016892704490925527
1.5017879288731648,0.020274028275387688,0.021283379911128823,0.010756457121333964,0.04913327209568936,-0.015075370317673814
1.5018594460280914,0.01756978332877583,0.019336730632380318,0.009814843547662735,0.04487144801374155,-0.013772779117508342
1.501930963183018,0.016887968997375314,0.018986754488248606,0.009773529530205848,0.040795876502253955,-0.01178141951229133
1.5020024803379446,0.018154766828972088,0.018306361014791155,0.009545857603491862,0.03734419666775304,-0.010262830324322797
1.5020739974928712,0.020807783027131654,0.019008295358802735,0.00997328939183271,0.035337512091076224,-0.008893961029353305
1.5021455146477978,0.023992628107040868,0.02163951171891695,0.01144212206274167,0.035351979380829825,-0.007625292206494973
1.5022170318027244,0.026898257150269028,0.026158079123885337,0.014028974316248104,0.03801721307212319,-0.006702830759787421
1.502288548957651,0.029041972437567,0.030887499743471773,0.016679671046279716,0.041825535567780375,-0.006292799902177025
1.5023600661125776,0.03036170293294545,0.035891515944799134,0.019990738498687276,0.04598482976931496,-0.005482834069979776
1.5024315832675041,0.031115659296329378,0.03647693329447147,0.02077896981185265,0.048332284253703825,-0.005964940446396613
1.5025031004224307,0.031680428730509906,0.0336181398991082,0.019519808615351825,0.04850723579418389,-0.007146816553864757
1.5025746175773573,0.032340192227813126,0.02988508769126135,0.018649627815208736,0.04611352249116939,-0.006712767701454962
1.502646134732284,0.033131945974426154,0.02717971419014134,0.017871043624403338,0.042536006800180624,-0.005610581908917098
1.5027176518872105,0.033797027787609374,0.026693649822602875,0.01799769758677829,0.04097374247221402,-0.004723801870969102
1.502789169042137,0.033871437590867574,0.02541999491485989,0.017486670760106647,0.03866928305739872,-0.004022417152709014
1.5028606861970637,0.03289397904446062,0.022245247676034682,0.015274482970942199,0.03588741622397958,-0.004562042351279718
1.5029322033519903,0.030638444170610023,0.018598422631348286,0.012011118949132128,0.033466076572274676,-0.006193685917512833
1.5030037205069169,0.02725242384486997,0.016646570395670635,0.009441040885373031,0.03200349749161388,-0.007699096994148829
1.5030752376618435,0.023245599290448483,0.018078487180544264,0.008606550278537486,0.03172492060898078,-0.008285387319932046
1.50314675481677,0.019358366958489085,0.02143560507815028,0.008953985446160287,0.03216151922483265,-0.008200637618457646
1.5032182719716967,0.01638051368297583,0.02567168050087071,0.010426555451109277,0.03289869048835599,-0.007288052670042219
1.5032897891266233,0.01497089818834955,0.029777788695768314,0.012350463029946239,0.033850243552629354,-0.006089840867970505
1.5033613062815498,0.015499460648454992,0.03303853352027204,0.013981854206916533,0.034227225627844055,-0.004859990688072764
1.5034328234364764,0.01793079665045714,0.03342390687928932,0.01416864675154985,0.032279552417577205,-0.003729849424517275
1.503504340591403,0.021792554285279486,0.03279785914956305,0.013806564009865633,0.030216642161395798,-0.0030193834449344227
1.5035758577463296,0.026283745634476982,0.035377633319006084,0.015751292513310384,0.031089676849001435,-0.0017637429348424973
1.5036473749012562,0.03053094650102892,0.04055115300128083,0.019003856556851165,0.03622601597510514,-0.0014896542311334511
1.5037188920561828,0.03389868374654469,0.04752067042581328,0.02304438568669538,0.04508075799243111,-0.00237815937260415
1.5037904092111094,0.03619247413189749,0.055998099095784244,0.02836367437687625,0.054169773184676286,-0.0022702205785156753
1.503861926366036,0.03764566473947448,0.0623358369997726,0.03246316988130233,0.062403162641803296,-0.0027970822251835036
1.5039334435209626,0.038716510453014726,0.06527952019734004,0.03408384953452373,0.06989087003305221,-0.005112840596505147
1.5040049606758892,0.0398171228344044,0.066667524746003,0.03557140334761458,0.07538655106774965,-0.006554115966844445
1.5040764778308158,0.041095739566223526,0.06991443327102352,0.037525773851031737,0.08018125180930812,-0.0072396105808385895
1.5041479949857424,0.04234364882306056,0.07317180552853517,0.038887791087543686,0.08505938883929084,-0.008484232747316928
1.504219512140669,0.043051695709888996,0.07460160224805809,0.03921573232033744,0.08894287808540141,-0.010136407187630281
1.5042910292955955,0.04260283060723393,0.0700892062800633,0.036347749549566495,0.0891272954187569,-0.012732771897568381
1.5043625464505221,0.04053910287302065,0.05946881472222977,0.030363706364527798,0.08450243491604774,-0.01564374873414917
1.5044340636054487,0.03679439695722014,0.046098531598420436,0.02344001313236871,0.07501867037402057,-0.01694249239549269
1.5045055807603753,0.03178229372791513,0.03441165501559395,0.01698689592080203,0.06596383704759766,-0.018042420888441463
1.504577097915302,0.026296542555493532,0.026444357060483523,0.012446934359831944,0.05804759983949915,-0.018044949832290325
1.5046486150702285,0.021278189004975218,0.023538505837928762,0.011187449324425095,0.051682550780242725,-0.015969803023233163
1.504720132225155,0.017555651134353225,0.02270045457456178,0.011283372248322305,0.04680760742854148,-0.013460187881668442
1.5047916493800817,0.01564621916050789,0.021675885232377574,0.010644076718018416,0.043146813395632165,-0.012194423669992542
1.5048631665350083,0.015656872938766518,0.019603572433982766,0.009217644422453899,0.038435990412998604,-0.011090768277634763
1.5049346836899349,0.017286051262519187,0.018212564149742483,0.008230188330603324,0.03414606460490406,-0.009815650705216113
1.5050062008448615,0.019918755698584013,0.018242441334085483,0.007905738300784866,0.03078929264449543,-0.008429009255404522
1.505077717999788,0.022804926807040774,0.020519815742048794,0.009361654152707073,0.028568689448425402,-0.00606117168050356
1.5051492351547147,0.025289013466251117,0.02539819134084958,0.011726326065843064,0.03196936798758243,-0.005697249772550099
1.5052207523096413,0.027015644551186973,0.03025933369478147,0.014241445734319206,0.03573523811404735,-0.005383939410481354
1.5052922694645678,0.028012475009877,0.0326643494344474,0.015961322224474977,0.03714499330060518,-0.004590289764512603
1.5053637866194944,0.028596359216805502,0.029323428784080764,0.014919408532213189,0.03514887358467324,-0.004503495155835385
1.505435303774421,0.02915112616185344,0.02279096260822869,0.013309044659559194,0.03044881722042763,-0.003566907108978204
1.5055068209293476,0.029900153036102176,0.01820558161207518,0.012321918805932341,0.02637179957459056,-0.0023987903109908273
1.5055783380842742,0.030782681811496897,0.01749041064832443,0.01250866989698158,0.024856230010038078,-0.001483750681148423
1.5056498552392008,0.03146961942071043,0.019808376880298444,0.013496870470295333,0.026947741502898078,-0.0016644032308237003
1.5057213723941274,0.03149161794629547,0.021026354510286057,0.013134126432083434,0.02971756763910381,-0.0033555226640242584
1.505792889549054,0.030427310908792447,0.020701730499700012,0.011855838401314541,0.03198625691681473,-0.005593147869115126
1.5058644067039806,0.02809465201809536,0.018709048620662767,0.009674998552531539,0.03193596018814877,-0.007462338137242788
1.5059359238589072,0.024683284499830333,0.015142588288043846,0.006168765257997816,0.030850304129640436,-0.00996769357747026
1.5060074410138338,0.020766913938386953,0.012949595264538635,0.003987129865862614,0.02944143087721259,-0.01116181219597636
1.5060789581687604,0.017165658691511196,0.014111118333592897,0.004506773893992003,0.027925129081386498,-0.009957093728839836
1.506150475323687,0.014695536880755058,0.016612554770255385,0.005603202541494299,0.027780860252341746,-0.008933404491742276
1.5062219924786135,0.013907828977730352,0.018737106482575528,0.006474304461408025,0.02726178894078791,-0.00791909850614052
1.5062935096335401,0.014929925183180436,0.01909870779083639,0.007024475314287043,0.0242739963864799,-0.0059569285186271735
1.5063650267884667,0.01746107614733839,0.01796971271138444,0.006681651925523114,0.02186746084838484,-0.00505910118784767
1.5064365439433933,0.020900617081537138,0.01939594597506465,0.008103902228742074,0.020817943606737815,-0.0033028941838508887
1.50650806109832,0.024545654709518663,0.023358645863075,0.01119024144466396,0.0201772834123278,-0.00030477314115535394
1.5065795782532465,0.027795889555703463,0.030286820291066635,0.015188716512202768,0.02451153824513433,0.0010151629313991922
1.506651095408173,0.030315638754338018,0.039440010728056626,0.02020329875354711,0.031088795455884926,0.0021048656135801975
1.5067226125630997,0.03210575674634778,0.04861977670139087,0.02516307524326057,0.0387010696411184,0.0026345998691730756
1.5067941297180263,0.03344435853615213,0.05386519488405915,0.02809340030703321,0.04480914856667584,0.00214822148754244
1.5068656468729529,0.03469846610783441,0.0542864128528517,0.028836225363534616,0.04776570015390766,0.0013251294376798444
1.5069371640278795,0.03608805388876267,0.05323400497351057,0.029158238083419115,0.04881089507494894,0.0010858053635736584
1.507008681182806,0.03753193323000867,0.05299715094818324,0.029645090979329304,0.05080058125018574,0.000520387630320746
1.5070801983377327,0.038657419159163646,0.05316785705933679,0.03000532215028713,0.05249768998856797,-9.860773383635833e-06
1.5071517154926592,0.038950459296790155,0.05199249337255466,0.029635790998015537,0.052361083818541744,-0.000263567733924223
1.5072232326475858,0.03795818995272562,0.04656677852833685,0.026170643808596194,0.05083486114025132,-0.0025199718252726846
1.5072947498025124,0.035465807062779846,0.0396650016569361,0.02167628316777021,0.04757954584930993,-0.004810297637001888
1.507366266957439,0.03160750390290827,0.033992288589199275,0.01779655130545853,0.044003680706124995,-0.006405103099802779
1.5074377841123656,0.02689036393457737,0.02915162057863646,0.014369878001425985,0.04099952458404111,-0.007889335421509526
1.5075093012672922,0.022110982309926926,0.024886636001030835,0.012274203971852665,0.0369000476858087,-0.007671996349663306
1.5075808184222188,0.018158898886019043,0.022211422240861048,0.010838451012952628,0.03492783199474087,-0.007938834091971629
1.5076523355771454,0.015750547010193554,0.02059927612163793,0.009985828883372298,0.03294204329908649,-0.007692393229005355
1.507723852732072,0.015198153002695225,0.017560726583278296,0.008495434228764531,0.02867130268302278,-0.006864405100200534
1.5077953698869986,0.01632710132796861,0.013478847105764377,0.006411917338543193,0.023103055561058145,-0.005907091284702756
1.5078668870419252,0.01858159605132472,0.010515826895544813,0.00521914285473996,0.017816818610752613,-0.004316882456644487
1.5079384041968518,0.02125563485920751,0.008796607468746633,0.005152249488431391,0.012308333510069524,-0.0016392897950628117
1.5080099213517784,0.023737553869918368,0.008727398962498212,0.0057615299185219465,0.00920836202462035,0.0004289744207013871
1.508081438506705,0.025680396681245936,0.01068910272905739,0.007453924502377228,0.007908808084975549,0.0025434239714105904
1.5081529556616315,0.027059576075294776,0.012464687819150415,0.008842952470356694,0.0073012058270543094,0.00405094367872405
1.5082244728165581,0.028112039179855254,0.011610947125744096,0.008942296206187028,0.005590304225090641,0.004986643938323302
1.5082959899714847,0.029172386947160022,0.009345924649220953,0.008780907310022895,0.004063676057532699,0.005604500247442527
1.5083675071264113,0.03045818310099522,0.00924183459454815,0.010026451111954632,0.0038031583737695705,0.006815087174136388
1.508439024281338,0.03190386747651281,0.013270077379158916,0.012747040105629182,0.006475141789629489,0.007850378343804408
1.5085105414362645,0.03314377564440417,0.019346392334363558,0.01600259242207933,0.011760841465963729,0.008052994918414741
1.508582058591191,0.03366149064758627,0.024366762777774588,0.0186299276568245,0.01681345014824539,0.007826390242610722
1.5086535757461177,0.03301661123576188,0.024178347367587696,0.017302793300784304,0.019270317141319406,0.0054540076182182495
1.5087250929010443,0.031031763736761156,0.020106149588247003,0.013978643770450466,0.019100238437497998,0.002651512815595407
1.5087966100559709,0.02787943173947238,0.01479156974112804,0.009773118861112214,0.016806474637742985,0.00013872947931965174
1.5088681272108975,0.024071143965329337,0.009871855554550474,0.005405399448016361,0.015089846779694084,-0.002800836757455322
1.508939644365824,0.020368522042175177,0.0059538116263894375,0.002619426200917792,0.012332336905091237,-0.003849939976727536
1.5090111615207507,0.017622660517009992,0.004049253411207134,0.001280243020763253,0.01133618814085501,-0.004517743532129952
1.5090826786756772,0.016549556574789192,0.0033826297109761107,0.001094148915450876,0.011515161324565386,-0.004768160608569474
1.5091541958306038,0.01749078347259404,0.003438022636637092,0.001728275756159572,0.010725530686224652,-0.0038255785894402046
1.5092257129855304,0.02026609634215111,0.004074367374431497,0.002622344403247119,0.0087840833951408,-0.002085398751290933
1.509297230140457,0.024225306810832306,0.007643868836595298,0.005090188490138515,0.008387224622367745,0.0002539231614761492
1.5093687472953836,0.028505184243561566,0.01580813756109894,0.010396256019729185,0.010380914710039215,0.003870359934357723
1.5094402644503102,0.032363241212534366,0.02702307150887592,0.017181792517199104,0.015358648239776477,0.007290931410086879
1.5095117816052368,0.035420479974014,0.0392491444446711,0.023785576506019895,0.022034641810001934,0.009713172665524504
1.5095832987601634,0.03772295943106026,0.048170034015656456,0.028541189697550762,0.0266152755854648,0.01157238305612373
1.50965481591509,0.039632532833370364,0.0505393297348008,0.030196375009199177,0.02816605965575051,0.012241577875716251
1.5097263330700166,0.041605230836871475,0.045473981849058376,0.028415936049993602,0.026190403381607344,0.011674375055507861
1.5097978502249432,0.04392716574129624,0.03791123109489902,0.026087173799228647,0.020108150494416225,0.01266907678437357
1.5098693673798698,0.04649881119729661,0.033603672725482335,0.025125670272120693,0.014553005102573832,0.01459040424467992
1.5099408845347964,0.048782229516577,0.033836128893410276,0.025898717163670308,0.013446961158208362,0.015810725908366123
1.510012401689723,0.04998265464348263,0.03688348571260866,0.027970420605425636,0.014854695105992898,0.016911972578717013
1.5100839188446495,0.04939582665258717,0.03748174378909339,0.02744804663090382,0.01609998720468531,0.015840311140446265
1.5101554359995761,0.046726633743720845,0.0350576851915782,0.024915387052692306,0.016281886886057303,0.013549818825376765
1.5102269531545027,0.04221494386441091,0.032262528991146656,0.022036546886626967,0.01573589813088425,0.01132008669317459
1.5102984703094293,0.0365554045951188,0.030722223388286715,0.019143160662124768,0.016917783268704377,0.008220351982675955
1.510369987464356,0.030705701566729478,0.0308957647099499,0.01712115674686206,0.019445103947541897,0.005209469093378111
1.5104415046192825,0.025671938650474672,0.032256944749129574,0.016152578444133103,0.022362485463420692,0.002919607161084296
1.510513021774209,0.02230380117340663,0.0340728506385508,0.01595046449902194,0.025623974134372358,0.001124319410487105
1.5105845389291357,0.02110478427342222,0.032696098238771516,0.014310671393420193,0.026254421269263143,-0.0006131576286030687
1.5106560560840623,0.022087028251984653,0.02751292466283729,0.011927341615445858,0.021745335962238918,-0.00044345848965194484
1.5107275732389889,0.02474352062355467,0.01922451499961212,0.008315005741078718,0.014960930305405929,-0.00021076776213443802
1.5107990903939155,0.028206425428266402,0.012917297457348056,0.006455089330600415,0.008402040720341057,0.0014314255533871799
1.510870607548842,0.03156791810921427,0.009963969584285713,0.006924877381908108,0.0037848278035046037,0.0041317749074001155
1.5109421247037687,0.034217944840168574,0.010264067577532615,0.0085255112555674,0.002556921390520776,0.006130884595305071
1.5110136418586952,0.036025983655989566,0.013598945605035797,0.01161661354179527,0.003353157231126467,0.008418918493718813
1.5110851590136218,0.03729532439305516,0.015209290759423604,0.013294021431409462,0.004643396128124138,0.009234591764707664
1.5111566761685484,0.03854470610167679,0.013700219440576438,0.013163190298163863,0.0060777647017174535,0.008408941046923146
1.511228193323475,0.04022460916569971,0.012206812019886997,0.013651672900344249,0.0055648258005288114,0.009087665221370807
1.5112997104784016,0.04246467581659284,0.013064610714912075,0.01442102957265151,0.0057802239715459905,0.009648673242224386
1.5113712276333282,0.04493429586497486,0.018171828837205785,0.016921655013448497,0.008855040487509383,0.010293467155711809
1.5114427447882548,0.04689231770787431,0.024201437974337516,0.019784155718843215,0.012971418756498728,0.010735944287300398
1.5115142619431814,0.047454803887083834,0.026849655846104686,0.02007376929597759,0.01611399075768396,0.009427618576534557
