freq,gls,usurper,pdc_unbiased,shape_periodogram,shift_periodogram
1.5,0.031605246424144244,0.032333000097492015,0.022003088454338578,0.03745457904677714,0.009395260512240516
1.5000715171549266,0.028595336453250155,0.027304439824905623,0.01679692217781675,0.031601649841605954,0.006241159251296785
1.5001430343098532,0.024797888546036324,0.02305743212801624,0.011419584810450916,0.02768846090067092,0.0023285421122021966
1.5002145514647798,0.020789812632417533,0.0224508616030346,0.008796510756732951,0.023774539565621342,0.0010389283196948816
1.5002860686197064,0.017345459787468324,0.025763650703278653,0.009479677332466734,0.02102785791123511,0.0025359624056814213
1.500357585774633,0.015271945925960987,0.030779929931298303,0.011714688134418397,0.020049577242116944,0.004964451869404234
1.5004291029295596,0.015165201318802408,0.03619763471225968,0.01415548030345099,0.021537118218001913,0.006828812753873141
1.5005006200844861,0.01716595655706576,0.04148400973392389,0.016954003693511403,0.02334602579761081,0.008934952197694425
1.5005721372394127,0.02086274426290797,0.045844729088227676,0.019187221778694714,0.026302961797657957,0.01014971440656677
1.5006436543943393,0.02544081002802935,0.04943343222671758,0.02137618975240262,0.028639685168943423,0.011513899283437063
1.500715171549266,0.03000884122307953,0.05284839334773112,0.02421994995090846,0.029011648916681565,0.01410714789890417
1.5007866887041925,0.03391266896856934,0.05624289858103243,0.02666061786266369,0.03182069233172539,0.015566618080375634
1.500858205859119,0.0368882624749449,0.06001856029557853,0.029368029530911475,0.03516683995563056,0.017115648960654206
1.5009297230140457,0.0390355018056212,0.06357174793753134,0.03287087235373193,0.03970122567731912,0.01905824624904289
1.5010012401689723,0.04067274274449097,0.0634258745301993,0.0349635290275476,0.04285029116401947,0.02008438161061439
1.5010727573238989,0.04213722341942038,0.06149499645456761,0.036798409825528795,0.04501333383064352,0.021168710445658098
1.5011442744788255,0.043587855733941964,0.05936319814675613,0.03793328428010061,0.048524638937324706,0.02117151291837118
1.501215791633752,0.044880915226329254,0.057179699058415176,0.03824814004694497,0.05250463143642639,0.02024823253725432
1.5012873087886787,0.045592465454410994,0.05673532795770797,0.03896037083855539,0.056295519655779405,0.019762256543518965
1.5013588259436053,0.04519857422015515,0.05531447224904761,0.038338310339186395,0.05768207475655506,0.01874212521762793
1.5014303430985318,0.04331902735671992,0.0519720654810544,0.03525172960142179,0.0584621786209019,0.015556221098921564
1.5015018602534584,0.03989064242203222,0.045403211510392734,0.029380562295107576,0.05718768400679248,0.010346840367346915
1.501573377408385,0.035207008956161204,0.037801851550997016,0.02275340008029923,0.05524042257933841,0.004627006541489797
1.5016448945633116,0.029854908046904056,0.031121932394983662,0.01716592382272006,0.05073569855618906,0.0006911884991716095
1.5017164117182382,0.02460404968418353,0.02539519830150015,0.01272729457488559,0.044286969061471934,-0.0015469128781772407
1.5017879288731648,0.020274028275387688,0.022088499896004418,0.010756457121333964,0.0388313677615843,-0.0017399644546084575
1.5018594460280914,0.01756978332877583,0.02072216944969339,0.009814843547662735,0.03598291842367763,-0.001757499557202539
1.501930963183018,0.016887968997375314,0.020853762607738666,0.009773529530205848,0.033452433318332746,-0.0010160887189511678
1.5020024803379446,0.018154766828972088,0.020410707362473596,0.009545857603491862,0.03175692392334888,-0.0007097634093966671
1.5020739974928712,0.020807783027131654,0.021643811060546057,0.00997328939183271,0.03115709865989742,-0.00011786693885508582
1.5021455146477978,0.023992628107040868,0.024447766470156472,0.01144212206274167,0.03147217372562535,0.0011831625717661203
1.5022170318027244,0.026898257150269028,0.028717149961573197,0.014028974316248104,0.03274998791567602,0.0032517979219241376
1.502288548957651,0.029041972437567,0.03311912149211591,0.016679671046279716,0.03473780909825876,0.005162743452891737
1.5023600661125776,0.03036170293294545,0.03789092892246766,0.019990738498687276,0.037518359258033575,0.007458869415270163
1.5024315832675041,0.031115659296329378,0.03818655208829879,0.02077896981185265,0.03869368413491784,0.007847410260330673
1.5025031004224307,0.031680428730509906,0.03534680860909958,0.019519808615351825,0.038818809790653795,0.006609479972527521
1.5025746175773573,0.032340192227813126,0.031250389870972846,0.018649627815208736,0.03774171607931821,0.006112706527112601
1.502646134732284,0.033131945974426154,0.02814442957369917,0.017871043624403338,0.036396512769993485,0.005785900525127627
1.5027176518872105,0.033797027787609374,0.027421736944981626,0.01799769758677829,0.03627293356561159,0.005944613026632692
1.502789169042137,0.033871437590867574,0.025882737149089983,0.017486670760106647,0.03544735223741608,0.005712466507027821
1.5028606861970637,0.03289397904446062,0.022949383729865006,0.015274482970942199,0.0340055795291844,0.0040505005990617805
1.5029322033519903,0.030638444170610023,0.019980624682664167,0.012011118949132128,0.03178200199405347,0.0016292699827479141
1.5030037205069169,0.02725242384486997,0.01904911214829383,0.009441040885373031,0.031094972723131425,-0.0006053425322218348
1.5030752376618435,0.023245599290448483,0.021715233996311825,0.008606550278537486,0.031409821054808315,-0.001496793486605638
1.50314675481677,0.019358366958489085,0.02606683040828098,0.008953985446160287,0.03036927149828194,-0.0008450943356297474
1.5032182719716967,0.01638051368297583,0.030708622993045796,0.010426555451109277,0.028851059633553715,0.0010248245085449205
1.5032897891266233,0.01497089818834955,0.03495116546916072,0.012350463029946239,0.028387469054711366,0.002999067859944433
1.5033613062815498,0.015499460648454992,0.03839006455082215,0.013981854206916533,0.027863174157071843,0.004713619468048133
1.5034328234364764,0.01793079665045714,0.03887838861939707,0.01416864675154985,0.025610453174559466,0.005585849144682536
1.503504340591403,0.021792554285279486,0.038321405647183594,0.013806564009865633,0.023429895981783737,0.0059133453511880625
1.5035758577463296,0.026283745634476982,0.040311013855350394,0.015751292513310384,0.02192583326711782,0.008227834562889842
1.5036473749012562,0.03053094650102892,0.044272091077650774,0.019003856556851165,0.022872928655926144,0.011031893901651366
1.5037188920561828,0.03389868374654469,0.04971693111069921,0.02304438568669538,0.02752480502557085,0.013445648755578634
1.5037904092111094,0.03619247413189749,0.05680800158800185,0.02836367437687625,0.03271569091910443,0.016913267513632348
1.503861926366036,0.03764566473947448,0.06145367997251548,0.03246316988130233,0.03702539474329545,0.019492840425024197
1.5039334435209626,0.038716510453014726,0.06316020799891794,0.03408384953452373,0.04125155574758714,0.01973750463475219
1.5040049606758892,0.0398171228344044,0.06314644088472839,0.03557140334761458,0.04500964688024691,0.019999867680739247
1.5040764778308158,0.041095739566223526,0.06546647017866748,0.037525773851031737,0.04971306879353283,0.020417423621735833
1.5041479949857424,0.04234364882306056,0.06836564899439203,0.038887791087543686,0.05465426185391078,0.020197644097371296
1.504219512140669,0.043051695709888996,0.06945187299173525,0.03921573232033744,0.059328951775498344,0.01907317470350098
1.5042910292955955,0.04260283060723393,0.06523494747231533,0.036347749549566495,0.061725780017051396,0.015597810292662554
1.5043625464505221,0.04053910287302065,0.055168514510061994,0.030363706364527798,0.060295526578956704,0.010327056614211422
1.5044340636054487,0.03679439695722014,0.04265867069841444,0.02344001313236871,0.05491192293979443,0.0053830020703498375
1.5045055807603753,0.03178229372791513,0.03211012060652974,0.01698689592080203,0.04930974040965857,0.0009607090996122136
1.504577097915302,0.026296542555493532,0.025203067220004167,0.012446934359831944,0.04374940105493978,-0.0016480069117172926
1.5046486150702285,0.021278189004975218,0.022767669688745874,0.011187449324425095,0.0384193979313065,-0.00120245885433788
1.504720132225155,0.017555651134353225,0.021938318682333195,0.011283372248322305,0.03439648175914359,0.00013004130356771557
1.5047916493800817,0.01564621916050789,0.021371565003851303,0.010644076718018416,0.031889266306603416,0.0002948265879719319
1.5048631665350083,0.015656872938766518,0.019779570029073892,0.009217644422453899,0.02962289919152237,-0.00036391035282276954
1.5049346836899349,0.017286051262519187,0.01905529028739047,0.008230188330603324,0.027523343471571458,-0.0006561676075971442
1.5050062008448615,0.019918755698584013,0.019911866344435668,0.007905738300784866,0.024848277303533357,-0.00013991295490526555
1.505077717999788,0.022804926807040774,0.022680650911851057,0.009361654152707073,0.02251637286686495,0.0019647045790993976
1.5051492351547147,0.025289013466251117,0.02794704115990647,0.011726326065843064,0.02420203099901215,0.0036954404816780047
1.5052207523096413,0.027015644551186973,0.033140558228855865,0.014241445734319206,0.026708067506535427,0.005316803965632444
1.5052922694645678,0.028012475009877,0.035797600638234464,0.015961322224474977,0.02728677888201522,0.006775592515016563
1.5053637866194944,0.028596359216805502,0.032510580078152815,0.014919408532213189,0.02460829679141318,0.006609345046000747
1.505435303774421,0.02915112616185344,0.02514826380563689,0.013309044659559194,0.01996913128023695,0.006506526756195137
1.5055068209293476,0.029900153036102176,0.019854645552317262,0.012321918805932341,0.016583558070089825,0.0066106335315819055
1.5055783380842742,0.030782681811496897,0.018502262192066375,0.01250866989698158,0.015597311926051185,0.007092309157102717
1.5056498552392008,0.03146961942071043,0.020273877009630646,0.013496870470295333,0.017305159009826786,0.007506309398567075
1.5057213723941274,0.03149161794629547,0.02132032729562234,0.013134126432083434,0.020454224684973,0.006190547426673827
1.505792889549054,0.030427310908792447,0.02159699465123461,0.011855838401314541,0.022933633927927372,0.0042097304614929325
1.5058644067039806,0.02809465201809536,0.02053138760290449,0.009674998552531539,0.023918763218652876,0.0018304942758455584
1.5059359238589072,0.024683284499830333,0.018121077591859065,0.006168765257997816,0.024407331032681938,-0.0016569034993703185
1.5060074410138338,0.020766913938386953,0.01679964014953077,0.003987129865862614,0.023622758274779655,-0.0034909276356170464
1.5060789581687604,0.017165658691511196,0.018285033897445145,0.004506773893992003,0.020525935265584543,-0.002041302287424259
1.506150475323687,0.014695536880755058,0.020560435081475075,0.005603202541494299,0.01872386759338221,-0.00044231438622145105
1.5062219924786135,0.013907828977730352,0.02249145561504194,0.006474304461408025,0.017973246402423534,0.000617994988895616
1.5062935096335401,0.014929925183180436,0.022305655945943553,0.007024475314287043,0.015537970025686196,0.001892325405359952
1.5063650267884667,0.01746107614733839,0.020437753604906808,0.006681651925523114,0.013999713383816934,0.0020403948805756897
1.5064365439433933,0.020900617081537138,0.020905000219313234,0.008103902228742074,0.012970762042893604,0.0037107945823117005
1.50650806109832,0.024545654709518663,0.023640663840743228,0.01119024144466396,0.011447364408605065,0.00711687252725466
1.5065795782532465,0.027795889555703463,0.029218973832787126,0.015188716512202768,0.013073586369440324,0.010420250907567527
1.506651095408173,0.030315638754338018,0.03695751804358285,0.02020329875354711,0.01670145756843977,0.01407459227978788
1.5067226125630997,0.03210575674634778,0.04514592121098029,0.02516307524326057,0.020718716166289855,0.01755839987122545
1.5067941297180263,0.03344435853615213,0.04965373337031787,0.02809340030703321,0.024122342465917976,0.01930057410055766
1.5068656468729529,0.03469846610783441,0.0493709142879525,0.028836225363534616,0.026770642218303334,0.01919292449421547
1.5069371640278795,0.03608805388876267,0.04792018992652227,0.029158238083419115,0.028772644726193772,0.01888352708697796
1.507008681182806,0.03753193323000867,0.04744578196729726,0.029645090979329304,0.030978497545611244,0.018668455404001263
1.5070801983377327,0.038657419159163646,0.047649806718064305,0.03000532215028713,0.032538487980682124,0.01853157471424055
1.5071517154926592,0.038950459296790155,0.046549036471562395,0.029635790998015537,0.03325287063621246,0.017959734689790518
1.5072232326475858,0.03795818995272562,0.04203156932367195,0.026170643808596194,0.033347026566466945,0.014630026771002202
1.5072947498025124,0.035465807062779846,0.03631010858516626,0.02167628316777021,0.03251940755543282,0.010604504155457585
1.507366266957439,0.03160750390290827,0.03193038502400678,0.01779655130545853,0.030959732984839065,0.0073907713364041085
1.5074377841123656,0.02689036393457737,0.028171892244051606,0.014369878001425985,0.030070814349248885,0.0044024065919005045
1.5075093012672922,0.022110982309926926,0.024512342839458964,0.012274203971852665,0.027528346591398037,0.0031913732323656675
1.5075808184222188,0.018158898886019043,0.02190665238390697,0.010838451012952628,0.025951461755957587,0.0023110173317512864
1.5076523355771454,0.015750547010193554,0.02036516728684432,0.009985828883372298,0.024005584592036677,0.0020995392639813963
1.507723852732072,0.015198153002695225,0.017727847952708205,0.008495434228764531,0.02073235418399226,0.0016904617155226694
1.5077953698869986,0.01632710132796861,0.014305733186876389,0.006411917338543193,0.01779908067520414,0.0006123357446330683
1.5078668870419252,0.01858159605132472,0.012292749150065141,0.00521914285473996,0.014514124765455199,0.0004903143649108242
1.5079384041968518,0.02125563485920751,0.011335396323155474,0.005152249488431391,0.009949261221666242,0.0018340644507446272
1.5080099213517784,0.023737553869918368,0.011647208167013486,0.0057615299185219465,0.006899753008988339,0.003353831431380615
1.508081438506705,0.025680396681245936,0.013768281623637184,0.007453924502377228,0.005215930292837965,0.005482948859583794
1.5081529556616315,0.027059576075294776,0.015688283293786465,0.008842952470356694,0.0036134351479466032,0.0072983594397347555
1.5082244728165581,0.028112039179855254,0.01474506528630037,0.008942296206187028,0.000577440554299,0.008328734297661431
1.5082959899714847,0.029172386947160022,0.011982060031151737,0.008780907310022895,-0.0018947930847498882,0.008937327146340603
1.5083675071264113,0.03045818310099522,0.011124498059259857,0.010026451111954632,-0.002486810377238791,0.010304701627952368
1.508439024281338,0.03190386747651281,0.014474991218480848,0.012747040105629182,-8.097472029097736e-05,0.012151170459341654
1.5085105414362645,0.03314377564440417,0.020091884080935037,0.01600259242207933,0.004059589180193522,0.013972214216238534
1.508582058591191,0.03366149064758627,0.024620606179032438,0.0186299276568245,0.007786161325237727,0.015323704324498321
1.5086535757461177,0.03301661123576188,0.024885116501793463,0.017302793300784304,0.010379386245325802,0.013261993728067602
1.5087250929010443,0.031031763736761156,0.02147441820559938,0.013978643770450466,0.011127867863926083,0.009868426998734902
1.5087966100559709,0.02787943173947238,0.017114460753167696,0.009773118861112214,0.009971213456721422,0.00622355843918405
1.5088681272108975,0.024071143965329337,0.01318721520383031,0.005405399448016361,0.009271492175948816,0.0022838545747045605
1.508939644365824,0.020368522042175177,0.009668763025903627,0.002619426200917792,0.007088191344405793,0.0003065516395502107
1.5090111615207507,0.017622660517009992,0.007167876204063243,0.001280243020763253,0.00521031556694227,-0.0003884681694080527
1.5090826786756772,0.016549556574789192,0.00535217274474424,0.001094148915450876,0.004614054901638362,-0.0003816689017571134
1.5091541958306038,0.01749078347259404,0.004297639230771258,0.001728275756159572,0.0038267942329190344,0.0004642912978728166
1.5092257129855304,0.02026609634215111,0.0038476759277100404,0.002622344403247119,0.0027180773743632567,0.0016566338808827324
1.509297230140457,0.024225306810832306,0.006469778227193031,0.005090188490138515,0.002418628075591698,0.004096614958424113
1.5093687472953836,0.028505184243561566,0.013475907070410072,0.010396256019729185,0.0037141858255903067,0.00874501656094951
1.5094402644503102,0.032363241212534366,0.023218009247109626,0.017181792517199104,0.006991453794125501,0.014190708023070412
1.5095117816052368,0.035420479974014,0.03441795495852076,0.023785576506019895,0.01211404391164122,0.018896599865374605
1.5095832987601634,0.03772295943106026,0.04277684334691183,0.028541189697550762,0.01680968240570099,0.02197733873670509
1.50965481591509,0.039632532833370364,0.04479168396784057,0.030196375009199177,0.01958357240954678,0.022699452758980172
1.5097263330700166,0.041605230836871475,0.03941017042045011,0.028415936049993602,0.018639955842759137,0.021294840467630936
1.5097978502249432,0.04392716574129624,0.03157103842240422,0.026087173799228647,0.01382648789955434,0.020559787946937337
1.5098693673798698,0.04649881119729661,0.027149693590687148,0.025125670272120693,0.009269280500701865,0.021047832607874066
1.5099408845347964,0.048782229516577,0.02719196681872102,0.025898717163670308,0.008392083456811018,0.022053553951430844
1.510012401689723,0.04998265464348263,0.030187625816226023,0.027970420605425636,0.009774465928551952,0.023599441755770164
1.5100839188446495,0.04939582665258717,0.03136469371506023,0.02744804663090382,0.011708482210645079,0.022506968498551733
1.5101554359995761,0.046726633743720845,0.030183867646554813,0.024915387052692306,0.012508623962326703,0.01985031270154871
1.5102269531545027,0.04221494386441091,0.028855171837203375,0.022036546886626967,0.012668814307554883,0.017061293230110384
1.5102984703094293,0.0365554045951188,0.029016389834332322,0.019143160662124768,0.013670490183171163,0.01399932594334424
1.510369987464356,0.030705701566729478,0.03070569951541195,0.01712115674686206,0.015632011093090894,0.011470838103408114
1.5104415046192825,0.025671938650474672,0.03319209271408251,0.016152578444133103,0.016634292325749048,0.010240286357934452
1.510513021774209,0.02230380117340663,0.035869454661408555,0.01595046449902194,0.018027854045711954,0.009618545269942907
1.5105845389291357,0.02110478427342222,0.03557127333214533,0.014310671393420193,0.018078167756413757,0.008042516178232772
1.5106560560840623,0.022087028251984653,0.031156895801001637,0.011927341615445858,0.015464066888476524,0.006580213704162611
1.5107275732389889,0.02474352062355467,0.023720596863375732,0.008315005741078718,0.011562175426236249,0.00434586665225381
1.5107990903939155,0.028206425428266402,0.0177287183362489,0.006455089330600415,0.006010770368990438,0.004287694972410946
1.510870607548842,0.03156791810921427,0.014344968816350346,0.006924877381908108,0.0009141004534231484,0.00630577620518854
1.5109421247037687,0.034217944840168574,0.013816294656209465,0.0085255112555674,-0.00134316119382414,0.008524314706191768
1.5110136418586952,0.036025983655989566,0.016442563825433437,0.01161661354179527,-0.0014203284491264752,0.011488643024561566
1.5110851590136218,0.03729532439305516,0.017427282405907123,0.013294021431409462,-0.000845663275836652,0.01290722070761981
1.5111566761685484,0.03854470610167679,0.01554951308048632,0.013163190298163863,-0.00041896294970195135,0.012651236954796804
1.511228193323475,0.04022460916569971,0.013864576054963905,0.013651672900344249,-0.0009155027609308022,0.013268982782697244
1.5112997104784016,0.04246467581659284,0.014653638601137988,0.01442102957265151,-0.0010218614450654964,0.01403365802333255
1.5113712276333282,0.04493429586497486,0.019627170084651074,0.016921655013448497,0.0011128564689720317,0.015754647242863597
1.5114427447882548,0.04689231770787431,0.025196326794906566,0.019784155718843215,0.003383258661696909,0.01777836188905525
1.5115142619431814,0.047454803887083834,0.02757179108849288,0.02007376929597759,0.005639064711434205,0.01735893383657381
