freq,gls,usurper,pdc_unbiased,shape_periodogram,shift_periodogram
1.5,0.031605246424144244,0.036957875256437976,0.022003088454338578,0.05396068129375139,-0.023838520858318682
1.5000715171549266,0.028595336453250155,0.030342440201855853,0.01679692217781675,0.04780671170967207,-0.02297994217179332
1.5001430343098532,0.024797888546036324,0.024547163510375763,0.011419584810450916,0.04260132319550302,-0.022926866841104995
1.5002145514647798,0.020789812632417533,0.02235273303675309,0.008796510756732951,0.037351960311146994,-0.02093908297120603
1.5002860686197064,0.017345459787468324,0.024385531908671185,0.009479677332466734,0.0338063988157821,-0.01790090684358542
1.500357585774633,0.015271945925960987,0.028303989503376054,0.011714688134418397,0.031421062108752666,-0.014630287285536453
1.5004291029295596,0.015165201318802408,0.03315485988137084,0.01415548030345099,0.0328943379717731,-0.014009449378629238
1.5005006200844861,0.01716595655706576,0.03714008535582468,0.016954003693511403,0.03184029323094701,-0.011312157273609635
1.5005721372394127,0.02086274426290797,0.0391766673867108,0.019187221778694714,0.02748573218733623,-0.006617543415545689
1.5006436543943393,0.02544081002802935,0.040878612293212366,0.02137618975240262,0.023464780410448745,-0.002195427836150664
1.500715171549266,0.03000884122307953,0.04331714799912126,0.02421994995090846,0.02126852106992434,0.0013594991223768228
1.5007866887041925,0.03391266896856934,0.047209613739159655,0.02666061786266369,0.025448595544424274,2.464983204151687e-05
1.500858205859119,0.0368882624749449,0.05266551093698603,0.029368029530911475,0.035206869850210466,-0.005161343778329226
1.5009297230140457,0.0390355018056212,0.05964426691689118,0.03287087235373193,0.051265171612321275,-0.01436268844149368
1.5010012401689723,0.04067274274449097,0.06390863396403408,0.0349635290275476,0.06869357231691942,-0.025550210366693027
1.5010727573238989,0.04213722341942038,0.0663661811773132,0.036798409825528795,0.08327623467408761,-0.034871658927025005
1.5011442744788255,0.043587855733941964,0.06783149802128449,0.03793328428010061,0.09430189709595138,-0.042108229329745825
1.501215791633752,0.044880915226329254,0.06791842448465012,0.03824814004694497,0.09949016768730826,-0.045670150464408914
1.5012873087886787,0.045592465454410994,0.06850479332438061,0.03896037083855539,0.10011492127158023,-0.04563151925576189
1.5013588259436053,0.04519857422015515,0.06766507762645786,0.038338310339186395,0.09959774525676408,-0.045686023012271516
1.5014303430985318,0.04331902735671992,0.06417216619649936,0.03525172960142179,0.09793231162719468,-0.04661246081403117
1.5015018602534584,0.03989064242203222,0.05676862501564186,0.029380562295107576,0.09396195285947301,-0.04778758402310385
1.501573377408385,0.035207008956161204,0.04797023329219883,0.02275340008029923,0.08863950617436242,-0.048499264302187615
1.5016448945633116,0.029854908046904056,0.03972891906696783,0.01716592382272006,0.08156301379333067,-0.0472159190787791
1.5017164117182382,0.02460404968418353,0.03265617019171688,0.01272729457488559,0.07365873977266382,-0.04454044106475281
1.5017879288731648,0.020274028275387688,0.02819243506443317,0.010756457121333964,0.06550618320031887,-0.03998486131270436
1.5018594460280914,0.01756978332877583,0.02574081499097446,0.009814843547662735,0.05892806009088311,-0.03586467938590801
1.501930963183018,0.016887968997375314,0.02401153263125973,0.009773529530205848,0.04872741588992293,-0.028500976343624113
1.5020024803379446,0.018154766828972088,0.021060692666656885,0.009545857603491862,0.03585901220297751,-0.019340717496470206
1.5020739974928712,0.020807783027131654,0.019347209636371883,0.00997328939183271,0.023485803606335925,-0.010092776891870004
1.5021455146477978,0.023992628107040868,0.02026393344863696,0.01144212206274167,0.016052278288722382,-0.00370149334219682
1.5022170318027244,0.026898257150269028,0.02457747070815614,0.014028974316248104,0.01754744599590974,-0.002995016987799028
1.502288548957651,0.029041972437567,0.03042813060790865,0.016679671046279716,0.026223123620512864,-0.007437774628096794
1.5023600661125776,0.03036170293294545,0.037966903917145474,0.019990738498687276,0.04211410520905507,-0.01664883134411161
1.5024315832675041,0.031115659296329378,0.04181348401139536,0.02077896981185265,0.060723988677563866,-0.029588457778532973
1.5025031004224307,0.031680428730509906,0.041883561258663195,0.019519808615351825,0.0757045065872004,-0.04133174574843596
1.5025746175773573,0.032340192227813126,0.03999644250590706,0.018649627815208736,0.08396040819916213,-0.04793331249351996
1.502646134732284,0.033131945974426154,0.03738504452008014,0.017871043624403338,0.08341839559978487,-0.04807738424539095
1.5027176518872105,0.033797027787609374,0.03576678195223908,0.01799769758677829,0.0778211370006505,-0.04392172216373305
1.502789169042137,0.033871437590867574,0.03331907305341837,0.017486670760106647,0.07112576070078995,-0.03941238427405661
1.5028606861970637,0.03289397904446062,0.029397785299905606,0.015274482970942199,0.06455948581248168,-0.036176274998223845
1.5029322033519903,0.030638444170610023,0.0254648367403769,0.012011118949132128,0.059743670631494585,-0.034938686422173806
1.5030037205069169,0.02725242384486997,0.0234357083946264,0.009441040885373031,0.056723669068384004,-0.03452488238822516
1.5030752376618435,0.023245599290448483,0.024918373926492095,0.008606550278537486,0.056264180581649885,-0.03476827285871735
1.50314675481677,0.019358366958489085,0.028294923156428387,0.008953985446160287,0.056532192703188384,-0.03472254125734024
1.5032182719716967,0.01638051368297583,0.03266382658167297,0.010426555451109277,0.05756641618602869,-0.034454957480285764
1.5032897891266233,0.01497089818834955,0.036740615426619175,0.012350463029946239,0.057565357646689824,-0.03312491318259948
1.5033613062815498,0.015499460648454992,0.039105159666477214,0.013981854206916533,0.05318877362815342,-0.02882532102440017
1.5034328234364764,0.01793079665045714,0.03755621626253999,0.01416864675154985,0.04311557088634914,-0.02139929078910417
1.503504340591403,0.021792554285279486,0.03405604772467779,0.013806564009865633,0.02859981946144204,-0.011143202706845495
1.5035758577463296,0.026283745634476982,0.034009090357844884,0.015751292513310384,0.016919193523633642,-0.0013503005912722857
1.5036473749012562,0.03053094650102892,0.03780315842794015,0.019003856556851165,0.014267262938941061,0.002815547107453479
1.5037188920561828,0.03389868374654469,0.044890441409773135,0.02304438568669538,0.02162511984703926,0.00028863874281590923
1.5037904092111094,0.03619247413189749,0.05576347250409382,0.02836367437687625,0.04067617910393945,-0.009814982381607391
1.503861926366036,0.03764566473947448,0.06563886802181228,0.03246316988130233,0.06530285225007137,-0.024822243537479145
1.5039334435209626,0.038716510453014726,0.07237340648055421,0.03408384953452373,0.08949145811230737,-0.041274789566527664
1.5040049606758892,0.0398171228344044,0.07663358599034471,0.03557140334761458,0.10788649876316563,-0.053650903130425996
1.5040764778308158,0.041095739566223526,0.08110675261018976,0.037525773851031737,0.11816432264728306,-0.059805405230938934
1.5041479949857424,0.04234364882306056,0.08389284150229448,0.038887791087543686,0.11932212825930359,-0.05970765568878977
1.504219512140669,0.043051695709888996,0.08387766088366795,0.03921573232033744,0.1143477660351654,-0.05584298686693356
1.5042910292955955,0.04260283060723393,0.07818216860300536,0.036347749549566495,0.10625288844236924,-0.05192037744243508
1.5043625464505221,0.04053910287302065,0.06687037979691085,0.030363706364527798,0.09553828724306188,-0.048254911463425594
1.5044340636054487,0.03679439695722014,0.05326873229452928,0.02344001313236871,0.08388570375465977,-0.04456638660139078
1.5045055807603753,0.03178229372791513,0.04164864885443597,0.01698689592080203,0.07505328968986436,-0.04260978067309353
1.504577097915302,0.026296542555493532,0.03377042489716434,0.012446934359831944,0.06794074943801114,-0.04058347439766702
1.5046486150702285,0.021278189004975218,0.03133306075714949,0.011187449324425095,0.06464830199889499,-0.039064793922740926
1.504720132225155,0.017555651134353225,0.03106920419310444,0.011283372248322305,0.06297198216825489,-0.03778260845166362
1.5047916493800817,0.01564621916050789,0.03027143754559298,0.010644076718018416,0.060550626975638754,-0.03646828654356802
1.5048631665350083,0.015656872938766518,0.027244247897250665,0.009217644422453899,0.0527117410996735,-0.03177164930134055
1.5049346836899349,0.017286051262519187,0.02349275958067432,0.008230188330603324,0.039709641545594025,-0.023037041543870897
1.5050062008448615,0.019918755698584013,0.021008331244437985,0.007905738300784866,0.026584004820709193,-0.013762620509843945
1.505077717999788,0.022804926807040774,0.020981140573360153,0.009361654152707073,0.015527066770433636,-0.004759303861848133
1.5051492351547147,0.025289013466251117,0.024840582516323248,0.011726326065843064,0.014361445999386631,-0.002282391837448861
1.5052207523096413,0.027015644551186973,0.03059645936704505,0.014241445734319206,0.02344695772028908,-0.00711497844574739
1.5052922694645678,0.028012475009877,0.03527327131001192,0.015961322224474977,0.037745043732753565,-0.016271884758182815
1.5053637866194944,0.028596359216805502,0.03530861423842975,0.014919408532213189,0.05395680438515104,-0.02873389834350779
1.505435303774421,0.02915112616185344,0.031881547793649045,0.013309044659559194,0.06735309618092383,-0.03956139367378608
1.5055068209293476,0.029900153036102176,0.02909489591522113,0.012321918805932341,0.07488945959571593,-0.04571418385151203
1.5055783380842742,0.030782681811496897,0.028444000947144565,0.01250866989698158,0.07534233133977447,-0.045914075994589756
1.5056498552392008,0.03146961942071043,0.02960661287904066,0.013496870470295333,0.0720794738308588,-0.0428621174938357
1.5057213723941274,0.03149161794629547,0.029560663996021894,0.013134126432083434,0.06785923879435746,-0.04004953778994605
1.505792889549054,0.030427310908792447,0.028093870424591157,0.011855838401314541,0.0618266792883134,-0.03655646525581433
1.5058644067039806,0.02809465201809536,0.024998277776901986,0.009674998552531539,0.05392681832025747,-0.032336191530542686
1.5059359238589072,0.024683284499830333,0.020679582388103784,0.006168765257997816,0.047400731433325564,-0.030030206569819685
1.5060074410138338,0.020766913938386953,0.017946753686781645,0.003987129865862614,0.04221751083130193,-0.027783664628962604
1.5060789581687604,0.017165658691511196,0.018914682692544205,0.004506773893992003,0.03930724625742677,-0.02531789776932968
1.506150475323687,0.014695536880755058,0.02155991647028644,0.005603202541494299,0.038431054638087776,-0.023926296265640495
1.5062219924786135,0.013907828977730352,0.023813393572522136,0.006474304461408025,0.037140288559591846,-0.022390241433069905
1.5062935096335401,0.014929925183180436,0.02355896597647575,0.007024475314287043,0.031552363454541384,-0.01796617566936388
1.5063650267884667,0.01746107614733839,0.020631351177913728,0.006681651925523114,0.020824241132040486,-0.010442037934742169
1.5064365439433933,0.020900617081537138,0.019990978318570794,0.008103902228742074,0.009873565027681691,-0.0015402588331387425
1.50650806109832,0.024545654709518663,0.02221462181806843,0.01119024144466396,0.0019984330148767955,0.006286002569243355
1.5065795782532465,0.027795889555703463,0.028500692725198118,0.015188716512202768,0.0036331822986839513,0.007866954102233597
1.506651095408173,0.030315638754338018,0.038128109955096245,0.02020329875354711,0.012841407949470997,0.004675612801420553
1.5067226125630997,0.03210575674634778,0.04912613682296958,0.02516307524326057,0.029324376412434666,-0.0038148216217089486
1.5067941297180263,0.03344435853615213,0.057193760289620775,0.02809340030703321,0.04846505366060671,-0.01564224130913965
1.5068656468729529,0.03469846610783441,0.06027719659015823,0.028836225363534616,0.06444632894420732,-0.026712761792880405
1.5069371640278795,0.03608805388876267,0.06101440480012335,0.029158238083419115,0.07417052735439339,-0.033548352842019985
1.507008681182806,0.03753193323000867,0.06127313706926715,0.029645090979329304,0.07709752587187607,-0.03533745778494809
1.5070801983377327,0.038657419159163646,0.06052748890300562,0.03000532215028713,0.07208522443927372,-0.031447407745055084
1.5071517154926592,0.038950459296790155,0.058266544286416776,0.029635790998015537,0.06502371606321782,-0.026578011122936354
1.5072232326475858,0.03795818995272562,0.05206225221465796,0.026170643808596194,0.056939977936034114,-0.02311439868404158
1.5072947498025124,0.035465807062779846,0.044444171251371685,0.02167628316777021,0.047280676924172815,-0.019224665024958874
1.507366266957439,0.03160750390290827,0.038188862651343754,0.01779655130545853,0.03915526701569336,-0.016023922077428546
1.5074377841123656,0.02689036393457737,0.03300715952526643,0.014369878001425985,0.0335098251784758,-0.014306665117953622
1.5075093012672922,0.022110982309926926,0.02908277463509258,0.012274203971852665,0.030730220405104737,-0.0137437175902348
1.5075808184222188,0.018158898886019043,0.02712452236256968,0.010838451012952628,0.03125515010684916,-0.015115774680462634
1.5076523355771454,0.015750547010193554,0.026262926390911663,0.009985828883372298,0.03244558796845363,-0.01656638599323645
1.507723852732072,0.015198153002695225,0.023377679547856148,0.008495434228764531,0.030026861343775222,-0.015846046446711906
1.5077953698869986,0.01632710132796861,0.01816606077193377,0.006411917338543193,0.021602140213724884,-0.011191041578761381
1.5078668870419252,0.01858159605132472,0.013441438686706254,0.00521914285473996,0.011180221570168238,-0.0044781659576227685
1.5079384041968518,0.02125563485920751,0.01013340611731872,0.005152249488431391,0.001705264206219725,0.002326425617996187
1.5080099213517784,0.023737553869918368,0.009282004048670325,0.0057615299185219465,-0.0018764347682234269,0.005336924908278987
1.508081438506705,0.025680396681245936,0.011378760106926658,0.007453924502377228,0.0011802109537137704,0.004296173247629623
1.5081529556616315,0.027059576075294776,0.014446351845575073,0.008842952470356694,0.010520446467400099,-0.0014973624556855567
1.5082244728165581,0.028112039179855254,0.015543504594244079,0.008942296206187028,0.021842582414052472,-0.00961661159051089
1.5082959899714847,0.029172386947160022,0.015172587029300019,0.008780907310022895,0.032539488798135945,-0.017466918318426963
1.5083675071264113,0.03045818310099522,0.016304999533175234,0.010026451111954632,0.041036155205379475,-0.022756290622245955
1.508439024281338,0.03190386747651281,0.020617620977550176,0.012747040105629182,0.04658179886683768,-0.02489210359968818
1.5085105414362645,0.03314377564440417,0.026076950934408764,0.01600259242207933,0.04818056516445406,-0.023799904758569874
1.508582058591191,0.03366149064758627,0.0302341945282485,0.0186299276568245,0.04782035302977202,-0.02172243483172113
1.5086535757461177,0.03301661123576188,0.02957910217223602,0.017302793300784304,0.046245379210041425,-0.02149927144474827
1.5087250929010443,0.031031763736761156,0.025107510933784515,0.013978643770450466,0.04151347699062981,-0.020370578909490043
1.5087966100559709,0.02787943173947238,0.019251131981239417,0.009773118861112214,0.0342407694890132,-0.018012495387176388
1.5088681272108975,0.024071143965329337,0.013863722916951947,0.005405399448016361,0.02797681309158828,-0.01649772017991098
1.508939644365824,0.020368522042175177,0.009850288756880016,0.002619426200917792,0.023413387507852712,-0.015121158327950256
1.5090111615207507,0.017622660517009992,0.008050123915633225,0.001280243020763253,0.02103819762801811,-0.014328286143731554
1.5090826786756772,0.016549556574789192,0.007768514898347879,0.001094148915450876,0.020234362838997585,-0.013875462370439141
1.5091541958306038,0.01749078347259404,0.007708910969257008,0.001728275756159572,0.017251017487932403,-0.011279829068856205
1.5092257129855304,0.02026609634215111,0.0073285154640739735,0.002622344403247119,0.011244264981091339,-0.006318493513191173
1.509297230140457,0.024225306810832306,0.009073923341531658,0.005090188490138515,0.003782783573189328,0.0007814729510928894
1.5093687472953836,0.028505184243561566,0.015618064920944185,0.010396256019729185,-0.000553015021135174,0.007582039093107506
1.5094402644503102,0.032363241212534366,0.025948494123497808,0.017181792517199104,0.001180355287081052,0.011017339979963693
1.5095117816052368,0.035420479974014,0.03848288907941351,0.023785576506019895,0.009931059047936583,0.009256115079164387
1.5095832987601634,0.03772295943106026,0.04897947071659989,0.028541189697550762,0.022605690234675367,0.0033815996232698545
1.50965481591509,0.039632532833370364,0.05368561149524986,0.030196375009199177,0.03537492328293208,-0.004709607276093327
1.5097263330700166,0.041605230836871475,0.050856116991845994,0.028415936049993602,0.04432873220603755,-0.012423303353454653
1.5097978502249432,0.04392716574129624,0.044455708848866834,0.026087173799228647,0.0456688512942414,-0.015005518535704454
1.5098693673798698,0.04649881119729661,0.040000618002562834,0.025125670272120693,0.04110763926581707,-0.012368104588966955
1.5099408845347964,0.048782229516577,0.039110209888406716,0.025898717163670308,0.03455928533443324,-0.007093506245292449
1.510012401689723,0.04998265464348263,0.04077386764280547,0.027970420605425636,0.02836044616826438,-0.0011752905065694293
1.5100839188446495,0.04939582665258717,0.04061577346440424,0.02744804663090382,0.023848458293724832,0.001726635689960124
1.5101554359995761,0.046726633743720845,0.03816046151397291,0.024915387052692306,0.020463956037691508,0.0024222716339575333
1.5102269531545027,0.04221494386441091,0.03549762012744286,0.022036546886626967,0.01703805729087941,0.0029087395163124056
1.5102984703094293,0.0365554045951188,0.03443773494778549,0.019143160662124768,0.01769263254330525,0.00043502055304114813
1.510369987464356,0.030705701566729478,0.03519607488265644,0.01712115674686206,0.020675396583226594,-0.003119841283597994
1.5104415046192825,0.025671938650474672,0.03738485731451564,0.016152578444133103,0.025933563552183705,-0.007592677740503962
1.510513021774209,0.02230380117340663,0.03999600662611201,0.01595046449902194,0.031208012117728418,-0.011548404160984361
1.5105845389291357,0.02110478427342222,0.038739379339507975,0.014310671393420193,0.03151191168045517,-0.01290181283328642
1.5106560560840623,0.022087028251984653,0.03290097897889963,0.011927341615445858,0.02527207752126434,-0.010034558626335894
1.5107275732389889,0.02474352062355467,0.023030262663152584,0.008315005741078718,0.014082961618620878,-0.004438204259647135
1.5107990903939155,0.028206425428266402,0.015084057283885942,0.006455089330600415,0.0037045090632694608,0.0017810303643760014
1.510870607548842,0.03156791810921427,0.011104354947693606,0.006924877381908108,-0.0014659641051964643,0.005843841909160718
1.5109421247037687,0.034217944840168574,0.011500527580492245,0.0085255112555674,0.0023421604372416667,0.0041964264378052145
1.5110136418586952,0.036025983655989566,0.01628430906895107,0.01161661354179527,0.014201470453013036,-0.002242525566936047
1.5110851590136218,0.03729532439305516,0.020250897639992778,0.013294021431409462,0.029942752120389368,-0.012469100169088866
1.5111566761685484,0.03854470610167679,0.02140108064595613,0.013163190298163863,0.046151422291868645,-0.024292780030351194
1.511228193323475,0.04022460916569971,0.021657777948618884,0.013651672900344249,0.05658097702654312,-0.031512124538944745
1.5112997104784016,0.04246467581659284,0.02276648750506452,0.01442102957265151,0.06006931503694985,-0.03350947455134243
1.5113712276333282,0.04493429586497486,0.02667213449110383,0.016921655013448497,0.05827795053493435,-0.030482088244828585
1.5114427447882548,0.04689231770787431,0.030635028715527222,0.019784155718843215,0.052360323196671055,-0.0242134967717785
1.5115142619431814,0.047454803887083834,0.03159222668532092,0.02007376929597759,0.045901180497744345,-0.01933386636142606
1.511585779098108,0.04599085839647899,0.027836904139974954,0.017243949592298295,0.0399350019704935,-0.016970477197846525
