freq,gls,usurper,pdc_unbiased,shape_periodogram,shift_periodogram
1.5,0.031605246424144244,0.033095967476523436,0.022003088454338578,0.04759705541177242,-0.024139972325307815
1.5000715171549266,0.028595336453250155,0.0263367524542263,0.01679692217781675,0.03985152920362078,-0.02120432017278013
1.5001430343098532,0.024797888546036324,0.020458976129551696,0.011419584810450916,0.033517409188337226,-0.019491409925615717
1.5002145514647798,0.020789812632417533,0.01834835696703266,0.008796510756732951,0.02781774719217064,-0.016592664731857228
1.5002860686197064,0.017345459787468324,0.020605472544320918,0.009479677332466734,0.024757018205784846,-0.013754230253386485
1.500357585774633,0.015271945925960987,0.02475925209210557,0.011714688134418397,0.023658362760251607,-0.011515574539564514
1.5004291029295596,0.015165201318802408,0.029814887545873768,0.01415548030345099,0.02760245422959761,-0.013137047451874035
1.5005006200844861,0.01716595655706576,0.03445395482365321,0.016954003693511403,0.02958591351391108,-0.012989125339159762
1.5005721372394127,0.02086274426290797,0.03797627240795536,0.019187221778694714,0.03040505736807123,-0.012267093025661533
1.5006436543943393,0.02544081002802935,0.04116358619706222,0.02137618975240262,0.031383227135276734,-0.011697734021096905
1.500715171549266,0.03000884122307953,0.04477606132005783,0.02421994995090846,0.032812139364747306,-0.011082779418683693
1.5007866887041925,0.03391266896856934,0.049128831954613005,0.02666061786266369,0.0391126118994209,-0.01456805039917594
1.500858205859119,0.0368882624749449,0.054214555025944355,0.029368029530911475,0.04880633788653875,-0.02057676385803945
1.5009297230140457,0.0390355018056212,0.060029776886535303,0.03287087235373193,0.06206241641789914,-0.02892451348797317
1.5010012401689723,0.04067274274449097,0.0627296345124261,0.0349635290275476,0.07470383907906938,-0.03766321419072232
1.5010727573238989,0.04213722341942038,0.06379451847632729,0.036798409825528795,0.08418089075054792,-0.04405986193708181
1.5011442744788255,0.043587855733941964,0.0644705522618813,0.03793328428010061,0.09274046944931472,-0.05016569832425561
1.501215791633752,0.044880915226329254,0.06444857121098667,0.03824814004694497,0.09872455791856212,-0.054733021376195075
1.5012873087886787,0.045592465454410994,0.0655359769526485,0.03896037083855539,0.10322693997469679,-0.05787998235018743
1.5013588259436053,0.04519857422015515,0.0649350143012062,0.038338310339186395,0.1047294856730412,-0.05945899205870566
1.5014303430985318,0.04331902735671992,0.061299258962121225,0.03525172960142179,0.10324189792331687,-0.06016994917403169
1.5015018602534584,0.03989064242203222,0.05349042760008266,0.029380562295107576,0.09779786806324074,-0.05943977351396103
1.501573377408385,0.035207008956161204,0.04430749905841765,0.02275340008029923,0.09075465524043744,-0.05790248498572448
1.5016448945633116,0.029854908046904056,0.035843037966134764,0.01716592382272006,0.08159178566396934,-0.054048439762338106
1.5017164117182382,0.02460404968418353,0.028668541744798354,0.01272729457488559,0.07191026321648827,-0.0490866186655173
1.5017879288731648,0.020274028275387688,0.02420929548038802,0.010756457121333964,0.0627113798931387,-0.0430032258026924
1.5018594460280914,0.01756978332877583,0.021838437862776908,0.009814843547662735,0.05650722490378614,-0.03866621070781125
1.501930963183018,0.016887968997375314,0.02068911668981605,0.009773529530205848,0.04807307019552688,-0.03201500333936186
1.5020024803379446,0.018154766828972088,0.01913121369825565,0.009545857603491862,0.03898513262563685,-0.02496430876814391
1.5020739974928712,0.020807783027131654,0.018930387666773834,0.00997328939183271,0.030691787183582463,-0.018143657704321824
1.5021455146477978,0.023992628107040868,0.02089741795192754,0.01144212206274167,0.02635232944794046,-0.013812327634670194
1.5022170318027244,0.026898257150269028,0.025215075538377724,0.014028974316248104,0.027916236296099663,-0.013462697855917775
1.502288548957651,0.029041972437567,0.030160353647616822,0.016679671046279716,0.03370933530705131,-0.016417992837417815
1.5023600661125776,0.03036170293294545,0.03576498250574167,0.019990738498687276,0.04290152467014565,-0.021658536653664587
1.5024315832675041,0.031115659296329378,0.037309436331874196,0.02077896981185265,0.05314078958004887,-0.02927965169489184
1.5025031004224307,0.031680428730509906,0.035360785348834245,0.019519808615351825,0.05992437792339549,-0.035424559471798296
1.5025746175773573,0.032340192227813126,0.032351785271076045,0.018649627815208736,0.06274634379720152,-0.038193949256858005
1.502646134732284,0.033131945974426154,0.02990860830579128,0.017871043624403338,0.06173736613185163,-0.037871826287683194
1.5027176518872105,0.033797027787609374,0.029416294977613007,0.01799769758677829,0.060374453905214634,-0.036714398046314774
1.502789169042137,0.033871437590867574,0.028109608218999053,0.017486670760106647,0.05793547128281821,-0.035095697374895825
1.5028606861970637,0.03289397904446062,0.024861621546862587,0.015274482970942199,0.0536627624263473,-0.03306826193965628
1.5029322033519903,0.030638444170610023,0.021057088771028323,0.012011118949132128,0.049611891074490315,-0.03186166994214951
1.5030037205069169,0.02725242384486997,0.018851073570137433,0.009441040885373031,0.04630737829699882,-0.030821469857860335
1.5030752376618435,0.023245599290448483,0.019952461901036448,0.008606550278537486,0.04491626325768129,-0.030232081228062094
1.50314675481677,0.019358366958489085,0.022948294979929364,0.008953985446160287,0.04459210833844029,-0.029762705532217625
1.5032182719716967,0.01638051368297583,0.026880761412613825,0.010426555451109277,0.04480319602884373,-0.02902730938478942
1.5032897891266233,0.01497089818834955,0.030687167750484776,0.012350463029946239,0.04506370652341593,-0.028054276645863248
1.5033613062815498,0.015499460648454992,0.0334822124219399,0.013981854206916533,0.04312020958362579,-0.025516425971101833
1.5034328234364764,0.01793079665045714,0.03333594110359597,0.01416864675154985,0.037392762997046,-0.020870978498070195
1.503504340591403,0.021792554285279486,0.03198531724123636,0.013806564009865633,0.029106404582686533,-0.014540064839402463
1.5035758577463296,0.026283745634476982,0.033904094054582924,0.015751292513310384,0.02385053069127214,-0.009192394319849705
1.5036473749012562,0.03053094650102892,0.0387776413152855,0.019003856556851165,0.025587304223225138,-0.008570530786184846
1.5037188920561828,0.03389868374654469,0.04593811684635401,0.02304438568669538,0.034811054171635346,-0.013384972549598941
1.5037904092111094,0.03619247413189749,0.055241846393322115,0.02836367437687625,0.049932856407514596,-0.022085233843359343
1.503861926366036,0.03764566473947448,0.06285331881230184,0.03246316988130233,0.06777102954124037,-0.03370016297396876
1.5039334435209626,0.038716510453014726,0.06710344032932374,0.03408384953452373,0.08414544940201649,-0.04569951971846497
1.5040049606758892,0.0398171228344044,0.06964124447427675,0.03557140334761458,0.09711024491414065,-0.05509280246754985
1.5040764778308158,0.041095739566223526,0.07344742002886158,0.037525773851031737,0.1062266886260956,-0.06115091140416266
1.5041479949857424,0.04234364882306056,0.07675841708808355,0.038887791087543686,0.11135569621476243,-0.06440238615070053
1.504219512140669,0.043051695709888996,0.07799128433360944,0.03921573232033744,0.11274128214061865,-0.06530589796096736
1.5042910292955955,0.04260283060723393,0.07339810438519544,0.036347749549566495,0.10945939216987288,-0.06445054820897968
1.5043625464505221,0.04053910287302065,0.06280829852139465,0.030363706364527798,0.10120250627184532,-0.06154609367992212
1.5044340636054487,0.03679439695722014,0.049575246124979926,0.02344001313236871,0.08935431470556034,-0.05636886605884941
1.5045055807603753,0.03178229372791513,0.037963629882749546,0.01698689592080203,0.07922557030750386,-0.052280158797230886
1.504577097915302,0.026296542555493532,0.029855834636022274,0.012446934359831944,0.070081972009049,-0.0478088334355527
1.5046486150702285,0.021278189004975218,0.026783599496709727,0.011187449324425095,0.06362104035937265,-0.04345990965325275
1.504720132225155,0.017555651134353225,0.0257015029826517,0.011283372248322305,0.05890716460811878,-0.039667098646302135
1.5047916493800817,0.01564621916050789,0.02425571125252748,0.010644076718018416,0.05464919570330567,-0.036687016700763755
1.5048631665350083,0.015656872938766518,0.0215265356044246,0.009217644422453899,0.04706373496326066,-0.03155687790605299
1.5049346836899349,0.017286051262519187,0.019250794141816754,0.008230188330603324,0.03729807745304199,-0.024436273423648548
1.5050062008448615,0.019918755698584013,0.018344708858029225,0.007905738300784866,0.0280758126273969,-0.017342689254251486
1.505077717999788,0.022804926807040774,0.019801667097686174,0.009361654152707073,0.020652604964361502,-0.010582220771939054
1.5051492351547147,0.025289013466251117,0.024215950032688196,0.011726326065843064,0.021524895611610178,-0.009822020759153047
1.5052207523096413,0.027015644551186973,0.0291770292629844,0.014241445734319206,0.028159108579247187,-0.013524437660537316
1.5052922694645678,0.028012475009877,0.032161451903835576,0.015961322224474977,0.035973110484983084,-0.01864888793611187
1.5053637866194944,0.028596359216805502,0.02993652520733422,0.014919408532213189,0.042738028987870866,-0.024639233897549337
1.505435303774421,0.02915112616185344,0.024782171582966396,0.013309044659559194,0.04742239613357684,-0.029333250165410486
1.5055068209293476,0.029900153036102176,0.02106609938891807,0.012321918805932341,0.04998961233200263,-0.031970161777851364
1.5055783380842742,0.030782681811496897,0.020602706352334802,0.01250866989698158,0.05092501857694884,-0.03259613080453792
1.5056498552392008,0.03146961942071043,0.022735895703299508,0.013496870470295333,0.0520882980631556,-0.03291134093847289
1.5057213723941274,0.03149161794629547,0.02368535649366769,0.013134126432083434,0.05244004781858256,-0.03341213490070181
1.505792889549054,0.030427310908792447,0.022995038043935455,0.011855838401314541,0.04996869971480727,-0.032239253233095365
1.5058644067039806,0.02809465201809536,0.020628867618078594,0.009674998552531539,0.04493165739280588,-0.029589532300079022
1.5059359238589072,0.024683284499830333,0.01679669864369324,0.006168765257997816,0.04028926734622731,-0.028065363199848807
1.5060074410138338,0.020766913938386953,0.014379522343636408,0.003987129865862614,0.03610696604557507,-0.026094312153652807
1.5060789581687604,0.017165658691511196,0.01536610040824381,0.004506773893992003,0.03334763054757234,-0.02359393933955268
1.506150475323687,0.014695536880755058,0.017624903238367847,0.005603202541494299,0.03226368832788749,-0.022064981209089594
1.5062219924786135,0.013907828977730352,0.019435468189166496,0.006474304461408025,0.031039499405984616,-0.020563193483963734
1.5062935096335401,0.014929925183180436,0.0193885257575439,0.007024475314287043,0.026464179683768827,-0.016608735308519893
1.5063650267884667,0.01746107614733839,0.017649593808094353,0.006681651925523114,0.019390645197652833,-0.011227586419454628
1.5064365439433933,0.020900617081537138,0.018415014563674132,0.008103902228742074,0.013278773900794284,-0.005525497919929831
1.50650806109832,0.024545654709518663,0.021903126396246166,0.01119024144466396,0.009419699716904423,-0.0005839481961149137
1.5065795782532465,0.027795889555703463,0.02871110398850613,0.015188716512202768,0.013364731981037227,-0.001249846383579328
1.506651095408173,0.030315638754338018,0.03802670691897756,0.02020329875354711,0.02254241635528382,-0.00542784049602527
1.5067226125630997,0.03210575674634778,0.04769902057975327,0.02516307524326057,0.03534689858604711,-0.012508591385603311
1.5067941297180263,0.03344435853615213,0.053793127218746406,0.02809340030703321,0.04840822265574439,-0.021044242612140926
1.5068656468729529,0.03469846610783441,0.05518887950978057,0.028836225363534616,0.05801449581421092,-0.028195086953790544
1.5069371640278795,0.03608805388876267,0.05490603942782788,0.029158238083419115,0.0639716972946543,-0.03271779439359171
1.507008681182806,0.03753193323000867,0.05510547123072511,0.029645090979329304,0.06801048225869571,-0.03562064198140074
1.5070801983377327,0.038657419159163646,0.05518909831826652,0.03000532215028713,0.0676439853946926,-0.03510886822032181
1.5071517154926592,0.038950459296790155,0.053931137110685215,0.029635790998015537,0.06512676393868189,-0.03334014318854933
1.5072232326475858,0.03795818995272562,0.04840545195324429,0.026170643808596194,0.05972466893576161,-0.03118623461919761
1.5072947498025124,0.035465807062779846,0.041298211884366734,0.02167628316777021,0.05172537568483894,-0.027608528672734157
1.507366266957439,0.03160750390290827,0.0354133529980348,0.01779655130545853,0.044408928814076216,-0.024197107095223682
1.5074377841123656,0.02689036393457737,0.03040526122732979,0.014369878001425985,0.03884302781267264,-0.021894757424673332
1.5075093012672922,0.022110982309926926,0.026222890855009486,0.012274203971852665,0.034675166511592234,-0.019883074263192357
1.5075808184222188,0.018158898886019043,0.02362448237597566,0.010838451012952628,0.03337052992162696,-0.01973150263788873
1.5076523355771454,0.015750547010193554,0.021967641508654254,0.009985828883372298,0.03244503523756055,-0.01952229879624284
1.507723852732072,0.015198153002695225,0.018678749133570566,0.008495434228764531,0.028332097000793637,-0.01718385705898902
1.5077953698869986,0.01632710132796861,0.014114718513989204,0.006411917338543193,0.020502779938887643,-0.01227192738907752
1.5078668870419252,0.01858159605132472,0.010556468614993752,0.00521914285473996,0.012290431567389608,-0.006512732544000798
1.5079384041968518,0.02125563485920751,0.008318243992198028,0.005152249488431391,0.004416279455269123,-0.0003316133828069872
1.5080099213517784,0.023737553869918368,0.008007932322918,0.0057615299185219465,0.0011006069867601051,0.0026617163207483174
1.508081438506705,0.025680396681245936,0.010058896630687304,0.007453924502377228,0.0024100982206367943,0.0026643838873533442
1.5081529556616315,0.027059576075294776,0.012273932321122522,0.008842952470356694,0.007197298043526982,-0.00026679548323119953
1.5082244728165581,0.028112039179855254,0.012178832564302172,0.008942296206187028,0.012454312981164735,-0.004360025258790853
1.5082959899714847,0.029172386947160022,0.01074803419321771,0.008780907310022895,0.017109474915652987,-0.008137860511630873
1.5083675071264113,0.03045818310099522,0.011231172482343656,0.010026451111954632,0.02176848985332112,-0.011056698538477244
1.508439024281338,0.03190386747651281,0.015400011000571185,0.012747040105629182,0.02726986101324399,-0.013737673895519336
1.5085105414362645,0.03314377564440417,0.021285025508599273,0.01600259242207933,0.03214416569224727,-0.015595472703225343
1.508582058591191,0.03366149064758627,0.026146468542802784,0.0186299276568245,0.03579346682923927,-0.016870168027309767
1.5086535757461177,0.03301661123576188,0.025836409164917983,0.017302793300784304,0.03585720865921758,-0.017734550865743444
1.5087250929010443,0.031031763736761156,0.021654102076228206,0.013978643770450466,0.03204031055550923,-0.016754421039300766
1.5087966100559709,0.02787943173947238,0.016135955188866315,0.009773118861112214,0.025440193957131166,-0.014114411074188135
1.5088681272108975,0.024071143965329337,0.010985118959282475,0.005405399448016361,0.019829712067797968,-0.01235687220234739
1.508939644365824,0.020368522042175177,0.007039665060740502,0.002619426200917792,0.015270623590305732,-0.01046126400403565
1.5090111615207507,0.017622660517009992,0.0051678047810492485,0.001280243020763253,0.013341469642110193,-0.009757503845815125
1.5090826786756772,0.016549556574789192,0.004536884926511013,0.001094148915450876,0.013031130106781426,-0.009626315698905135
1.5091541958306038,0.01749078347259404,0.004404571892401489,0.001728275756159572,0.010936356751473489,-0.007582327174304564
1.5092257129855304,0.02026609634215111,0.004675216409436533,0.002622344403247119,0.007018206796552689,-0.003938238185887754
1.509297230140457,0.024225306810832306,0.007682106066985829,0.005090188490138515,0.0033385497352728683,0.00048192235874364576
1.5093687472953836,0.028505184243561566,0.015267652281905165,0.010396256019729185,0.00269635914642952,0.004241781495626287
1.5094402644503102,0.032363241212534366,0.02607637972576413,0.017181792517199104,0.006956633202641872,0.005035749758984993
1.5095117816052368,0.035420479974014,0.0381445778691111,0.023785576506019895,0.015358756098338427,0.0024471363196822884
1.5095832987601634,0.03772295943106026,0.047220923157189926,0.028541189697550762,0.023856467580360856,-0.001350227654595889
1.50965481591509,0.039632532833370364,0.05018008802646899,0.030196375009199177,0.030605403535836413,-0.0056692911612204345
1.5097263330700166,0.041605230836871475,0.04601891949808812,0.028415936049993602,0.03362706673676066,-0.009151749995522108
1.5097978502249432,0.04392716574129624,0.03921721880033091,0.026087173799228647,0.031170536831555688,-0.008638721973035566
1.5098693673798698,0.04649881119729661,0.03513586523647181,0.025125670272120693,0.026573440997882294,-0.005594231416779889
1.5099408845347964,0.048782229516577,0.03511518795279022,0.025898717163670308,0.023610752095759035,-0.0027778623837294287
1.510012401689723,0.04998265464348263,0.03776012704278899,0.027970420605425636,0.022015861418137397,-0.0002457978419268334
1.5100839188446495,0.04939582665258717,0.03803489144978413,0.02744804663090382,0.019997413500130613,0.0010288073334447346
1.5101554359995761,0.046726633743720845,0.03546872698929692,0.024915387052692306,0.01701659915355914,0.0018302614345175774
1.5102269531545027,0.04221494386441091,0.032503075491831915,0.022036546886626967,0.013162794638946531,0.0031094042863037854
1.5102984703094293,0.0365554045951188,0.03085550381480911,0.019143160662124768,0.012906612031496907,0.0015371775460854584
1.510369987464356,0.030705701566729478,0.030937948052600816,0.01712115674686206,0.014643164715894592,-0.0010751250639462603
1.5104415046192825,0.025671938650474672,0.032326952381680374,0.016152578444133103,0.018366868899263714,-0.0046119282918293605
1.510513021774209,0.02230380117340663,0.034152928660428544,0.01595046449902194,0.022795870388775286,-0.008236566781824432
1.5105845389291357,0.02110478427342222,0.03263295165693128,0.014310671393420193,0.023374927227772967,-0.00969983683028257
1.5106560560840623,0.022087028251984653,0.027313814581137023,0.011927341615445858,0.018167686590528028,-0.007045273655505349
1.5107275732389889,0.02474352062355467,0.01888599367203424,0.008315005741078718,0.009661378679392147,-0.0025375155531966375
1.5107990903939155,0.028206425428266402,0.012470084928437148,0.006455089330600415,0.0019824639337788184,0.002390036534313041
1.510870607548842,0.03156791810921427,0.009612294842561424,0.006924877381908108,-0.0016470766655452863,0.005545804532250405
1.5109421247037687,0.034217944840168574,0.010280448342852723,0.0085255112555674,0.001439864943033922,0.004087838051837509
1.5110136418586952,0.036025983655989566,0.01417657587618404,0.01161661354179527,0.00893367088574814,6.149588579138336e-05
1.5110851590136218,0.03729532439305516,0.016521929576782036,0.013294021431409462,0.017825306393791412,-0.005936737603261385
1.5111566761685484,0.03854470610167679,0.015986724772273805,0.013163190298163863,0.026761187027182828,-0.013080369874296336
1.511228193323475,0.04022460916569971,0.01526100291673729,0.013651672900344249,0.03189038139188272,-0.016836342795674603
1.5112997104784016,0.04246467581659284,0.016275070958321824,0.01442102957265151,0.03425312889302115,-0.018233074649707137
1.5113712276333282,0.04493429586497486,0.02098856961644224,0.016921655013448497,0.03590729414370296,-0.018007910133376437
1.5114427447882548,0.04689231770787431,0.026384846488164724,0.019784155718843215,0.03615802958892136,-0.0164505172829121
1.5115142619431814,0.047454803887083834,0.028420811472697857,0.02007376929597759,0.034465784236894184,-0.014934450064611703
