freq,gls,usurper,pdc_unbiased,shape_periodogram,shift_periodogram
1.5,0.031605246424144244,0.03289202037890211,0.022003088454338578,0.05063712421027713,-0.015622318108233597
1.5000715171549266,0.028595336453250155,0.026301569014732514,0.01679692217781675,0.043219770887323185,-0.014853611197884668
1.5001430343098532,0.024797888546036324,0.02062403794908583,0.011419584810450916,0.036978489693691656,-0.01497191165039564
1.5002145514647798,0.020789812632417533,0.01876733068955317,0.008796510756732951,0.030933153290945075,-0.013102509114353319
1.5002860686197064,0.017345459787468324,0.021300994867984303,0.009479677332466734,0.02794876615385868,-0.010662172844499006
1.500357585774633,0.015271945925960987,0.025774071271264708,0.011714688134418397,0.027510896277856103,-0.008665931859893863
1.5004291029295596,0.015165201318802408,0.031065369675477204,0.01415548030345099,0.031701421368772846,-0.009483007348172121
1.5005006200844861,0.01716595655706576,0.03596182762640189,0.016954003693511403,0.03435369273615181,-0.009037734283370543
1.5005721372394127,0.02086274426290797,0.039699154918004236,0.019187221778694714,0.03633001969933955,-0.008592145976785256
1.5006436543943393,0.02544081002802935,0.04294121220957433,0.02137618975240262,0.03802855909596339,-0.008001876114902438
1.500715171549266,0.03000884122307953,0.04639588021479762,0.02421994995090846,0.038863147124436705,-0.00635335468755944
1.5007866887041925,0.03391266896856934,0.05046270263830882,0.02666061786266369,0.04445344180924486,-0.008068859293298399
1.500858205859119,0.0368882624749449,0.05511652600442308,0.029368029530911475,0.05292698353679001,-0.011433398617776277
1.5009297230140457,0.0390355018056212,0.06028456288346909,0.03287087235373193,0.06441694892309684,-0.01613007356478869
1.5010012401689723,0.04067274274449097,0.06219443460070334,0.0349635290275476,0.07486758654895581,-0.02125014510213043
1.5010727573238989,0.04213722341942038,0.06250781230794902,0.036798409825528795,0.08260295331760054,-0.02482492631300562
1.5011442744788255,0.043587855733941964,0.06255392455691317,0.03793328428010061,0.08946529964303117,-0.028380322226839706
1.501215791633752,0.044880915226329254,0.062136080312871406,0.03824814004694497,0.09441361140731948,-0.03133510779575453
1.5012873087886787,0.045592465454410994,0.06306329807254563,0.03896037083855539,0.0989780710313275,-0.033737784528077804
1.5013588259436053,0.04519857422015515,0.06243998597115446,0.038338310339186395,0.10063222821192223,-0.03528796407417971
1.5014303430985318,0.04331902735671992,0.05895945745301824,0.03525172960142179,0.10073168370161324,-0.037732156003693604
1.5015018602534584,0.03989064242203222,0.051366424339533874,0.029380562295107576,0.09709109450338695,-0.03989894891679053
1.501573377408385,0.035207008956161204,0.04237205448053335,0.02275340008029923,0.09164084076998481,-0.04147318987948956
1.5016448945633116,0.029854908046904056,0.03407086368979892,0.01716592382272006,0.08294322674524345,-0.04014893395831337
1.5017164117182382,0.02460404968418353,0.027050140603386185,0.01272729457488559,0.07308029207427748,-0.03719498661314383
1.5017879288731648,0.020274028275387688,0.02279005277865662,0.010756457121333964,0.06421698877273808,-0.03299720910257315
1.5018594460280914,0.01756978332877583,0.020702726281275063,0.009814843547662735,0.05856437707033783,-0.030081036810029497
1.501930963183018,0.016887968997375314,0.020073852282182163,0.009773529530205848,0.05155829725982485,-0.025605598254306926
1.5020024803379446,0.018154766828972088,0.019014704100587254,0.009545857603491862,0.04412969540203971,-0.02100458970540216
1.5020739974928712,0.020807783027131654,0.019294458425062028,0.00997328939183271,0.03756378939416776,-0.016457850809200324
1.5021455146477978,0.023992628107040868,0.021576651592850608,0.01144212206274167,0.03378794759979598,-0.012905451737856417
1.5022170318027244,0.026898257150269028,0.025983069561372904,0.014028974316248104,0.035054683809578095,-0.0117334344968622
1.502288548957651,0.029041972437567,0.030787554275884674,0.016679671046279716,0.03954301175729629,-0.012581358774862614
1.5023600661125776,0.03036170293294545,0.03605558847521353,0.019990738498687276,0.046852498831761895,-0.014735382249487394
1.5024315832675041,0.031115659296329378,0.03701571959091785,0.02077896981185265,0.05394992764129922,-0.018693120929146108
1.5025031004224307,0.031680428730509906,0.03451037250538131,0.019519808615351825,0.05854284705869194,-0.022615235178002287
1.5025746175773573,0.032340192227813126,0.03098244465601506,0.018649627815208736,0.059356658578649725,-0.023807426945233863
1.502646134732284,0.033131945974426154,0.02827611808980594,0.017871043624403338,0.05696896233789576,-0.022869058104916337
1.5027176518872105,0.033797027787609374,0.027687327203720212,0.01799769758677829,0.055321274644658344,-0.021711749490486862
1.502789169042137,0.033871437590867574,0.02635678784200631,0.017486670760106647,0.05291565844790654,-0.020556927328391535
1.5028606861970637,0.03289397904446062,0.02323224734592135,0.015274482970942199,0.04994233831854619,-0.020343712703659127
1.5029322033519903,0.030638444170610023,0.019696159559109784,0.012011118949132128,0.0475494592374258,-0.021310604186349853
1.5030037205069169,0.02725242384486997,0.01782230133441463,0.009441040885373031,0.045746669037948516,-0.02212429642176654
1.5030752376618435,0.023245599290448483,0.01928834571512118,0.008606550278537486,0.04492202987013209,-0.02223464743208934
1.50314675481677,0.019358366958489085,0.022621552456462322,0.008953985446160287,0.044443976353478555,-0.021660781819255716
1.5032182719716967,0.01638051368297583,0.02682611649670537,0.010426555451109277,0.04460024791975018,-0.02063111791816939
1.5032897891266233,0.01497089818834955,0.03090347376252126,0.012350463029946239,0.04518580088850551,-0.019530788329958002
1.5033613062815498,0.015499460648454992,0.03404508934268215,0.013981854206916533,0.04422107621914352,-0.017658431302606963
1.5034328234364764,0.01793079665045714,0.034191652410052835,0.01416864675154985,0.03953923252045774,-0.014506750826702115
1.503504340591403,0.021792554285279486,0.03316705219032237,0.013806564009865633,0.03292951205164122,-0.010539407531062197
1.5035758577463296,0.026283745634476982,0.03532859098755887,0.015751292513310384,0.02924023890670862,-0.006677870623796146
1.5036473749012562,0.03053094650102892,0.040248311221357816,0.019003856556851165,0.031916006187063965,-0.005898604182016782
1.5037188920561828,0.03389868374654469,0.04719933979508651,0.02304438568669538,0.04084183678505243,-0.008527428679140251
1.5037904092111094,0.03619247413189749,0.05597664890427297,0.02836367437687625,0.053459326528387606,-0.012547986287352994
1.503861926366036,0.03764566473947448,0.06278508237848171,0.03246316988130233,0.06716721334377979,-0.018214465183972038
1.5039334435209626,0.038716510453014726,0.06627174117132176,0.03408384953452373,0.08058221816842255,-0.025612435773907618
1.5040049606758892,0.0398171228344044,0.06807469022151368,0.03557140334761458,0.09092013951609451,-0.03114062090459821
1.5040764778308158,0.041095739566223526,0.07152065167101836,0.037525773851031737,0.09862507497702594,-0.03461575138950323
1.5041479949857424,0.04234364882306056,0.074780310624455,0.038887791087543686,0.10420162569634814,-0.037175027294336666
1.504219512140669,0.043051695709888996,0.0760943472448257,0.03921573232033744,0.1075593588898103,-0.039097330708849194
1.5042910292955955,0.04260283060723393,0.07159220498385933,0.036347749549566495,0.10734244837148608,-0.04116892703161159
1.5043625464505221,0.04053910287302065,0.061077793834221045,0.030363706364527798,0.10248765956414567,-0.04263501823644745
1.5044340636054487,0.03679439695722014,0.04782868782715096,0.02344001313236871,0.09291242414184968,-0.04176727023142245
1.5045055807603753,0.03178229372791513,0.036222611303248206,0.01698689592080203,0.08375019587110326,-0.0408074450720053
1.504577097915302,0.026296542555493532,0.02821572026909646,0.012446934359831944,0.07458788437102938,-0.038382216759755415
1.5046486150702285,0.021278189004975218,0.025271077663366226,0.011187449324425095,0.06733286795645745,-0.03467325293601328
1.504720132225155,0.017555651134353225,0.02438614291471637,0.011283372248322305,0.06185544993307898,-0.031072250182470437
1.5047916493800817,0.01564621916050789,0.023267750385469545,0.010644076718018416,0.05738576824798531,-0.028686157306242147
1.5048631665350083,0.015656872938766518,0.02093496472220498,0.009217644422453899,0.05013295774395096,-0.02511563124212144
1.5049346836899349,0.017286051262519187,0.019135464991958853,0.008230188330603324,0.0415407732387221,-0.020350525041969082
1.5050062008448615,0.019918755698584013,0.018705859401064884,0.007905738300784866,0.03328231636231749,-0.01529452445862865
1.505077717999788,0.022804926807040774,0.02054658082158557,0.009361654152707073,0.026514076016661448,-0.009831711026398616
1.5051492351547147,0.025289013466251117,0.025211037584168795,0.011726326065843064,0.0279118196397595,-0.008914380545733125
1.5052207523096413,0.027015644551186973,0.03013437623293561,0.014241445734319206,0.03333597689985621,-0.010466602579842148
1.5052922694645678,0.028012475009877,0.032791481107169854,0.015961322224474977,0.03847423319109675,-0.01244633851743531
1.5053637866194944,0.028596359216805502,0.029914772267816636,0.014919408532213189,0.04170622876331232,-0.015322632296287544
1.505435303774421,0.02915112616185344,0.023838453551148435,0.013309044659559194,0.04229505742720455,-0.016937236728519524
1.5055068209293476,0.029900153036102176,0.019499410410645065,0.012321918805932341,0.041676634001785194,-0.0172975904177048
1.5055783380842742,0.030782681811496897,0.018798062723733105,0.01250866989698158,0.041107369035571086,-0.016788474435649455
1.5056498552392008,0.03146961942071043,0.02099257301314823,0.013496870470295333,0.04263481709474981,-0.017011374343064628
1.5057213723941274,0.03149161794629547,0.022130244366336222,0.013134126432083434,0.044649054000875946,-0.018584258807581924
1.505792889549054,0.030427310908792447,0.021791499454819355,0.011855838401314541,0.04568878291140481,-0.020233741684281024
1.5058644067039806,0.02809465201809536,0.01980309226885172,0.009674998552531539,0.044236420570090196,-0.02097407391392745
1.5059359238589072,0.024683284499830333,0.016271727587049582,0.006168765257997816,0.042142025492323085,-0.022318574937455673
1.5060074410138338,0.020766913938386953,0.014067628344196248,0.003987129865862614,0.03942957691914563,-0.02224947516119822
1.5060789581687604,0.017165658691511196,0.015212146396924895,0.004506773893992003,0.03697775806376944,-0.020275788953128038
1.506150475323687,0.014695536880755058,0.017702663075862893,0.005603202541494299,0.03634014897415462,-0.019025073442324698
1.5062219924786135,0.013907828977730352,0.019808818929037735,0.006474304461408025,0.03551399666745262,-0.01782610182010114
1.5062935096335401,0.014929925183180436,0.02002624091922776,0.007024475314287043,0.03123803131834884,-0.014657957314942814
1.5063650267884667,0.01746107614733839,0.018598055622785485,0.006681651925523114,0.025692610670636773,-0.011360707675329913
1.5064365439433933,0.020900617081537138,0.019653709109252092,0.008103902228742074,0.020626109557579632,-0.007017515580647264
1.50650806109832,0.024545654709518663,0.023274450105491347,0.01119024144466396,0.016208557175119324,-0.0018145391742584133
1.5065795782532465,0.027795889555703463,0.030065996518658277,0.015188716512202768,0.019195458710731764,-0.0006627268504660826
1.506651095408173,0.030315638754338018,0.03926349015801826,0.02020329875354711,0.02684991189805828,-0.0017255576952734373
1.5067226125630997,0.03210575674634778,0.04868547472446436,0.02516307524326057,0.03779225017181719,-0.004941002076590871
1.5067941297180263,0.03344435853615213,0.05435554701547799,0.02809340030703321,0.04895064199292863,-0.009857379769026007
1.5068656468729529,0.03469846610783441,0.055218263217939566,0.028836225363534616,0.05695935196195731,-0.014435484853511465
1.5069371640278795,0.03608805388876267,0.05447151999567474,0.029158238083419115,0.06187459636101799,-0.017350254411921544
1.507008681182806,0.03753193323000867,0.054366637935868,0.029645090979329304,0.06578403419096945,-0.019492314117066502
1.5070801983377327,0.038657419159163646,0.05448913696568661,0.03000532215028713,0.06725624620631505,-0.020163158138892565
1.5071517154926592,0.038950459296790155,0.05324708316971525,0.029635790998015537,0.0664378561121742,-0.019920460017179405
1.5072232326475858,0.03795818995272562,0.04785126805816809,0.026170643808596194,0.06398744348616471,-0.021007900347987964
1.5072947498025124,0.035465807062779846,0.04095372781930292,0.02167628316777021,0.05922453793485134,-0.02139699025582468
1.507366266957439,0.03160750390290827,0.03524483740701504,0.01779655130545853,0.05396225134905194,-0.020992061956833664
1.5074377841123656,0.02689036393457737,0.030332295348107167,0.014369878001425985,0.04907408539264317,-0.020480018525900954
1.5075093012672922,0.022110982309926926,0.026058424248025465,0.012274203971852665,0.04410882704938649,-0.01889715684434299
1.5075808184222188,0.018158898886019043,0.023379299355477917,0.010838451012952628,0.04196867509970059,-0.018623854771546943
1.5076523355771454,0.015750547010193554,0.021781151737972328,0.009985828883372298,0.04032875033483427,-0.018224512215786356
1.507723852732072,0.015198153002695225,0.018676378441138022,0.008495434228764531,0.03576488498027307,-0.016436444801466298
1.5077953698869986,0.01632710132796861,0.014380550594036564,0.006411917338543193,0.028073957641998878,-0.013096409817986675
1.5078668870419252,0.01858159605132472,0.01109575462841085,0.00521914285473996,0.019454189231178986,-0.008478634983544387
1.5079384041968518,0.02125563485920751,0.009051086369607782,0.005152249488431391,0.010609930526595843,-0.0028547419104086574
1.5080099213517784,0.023737553869918368,0.008779696774459162,0.0057615299185219465,0.005789504047668807,0.0007053629093081958
1.508081438506705,0.025680396681245936,0.010704844275344901,0.007453924502377228,0.004689970490007428,0.0027090656557793866
1.5081529556616315,0.027059576075294776,0.012612657164649481,0.008842952470356694,0.006296384903258808,0.0027440912618185505
1.5082244728165581,0.028112039179855254,0.012027204087208162,0.008942296206187028,0.008131296723407488,0.0016431204655460807
1.5082959899714847,0.029172386947160022,0.010057968300104433,0.008780907310022895,0.010288058616050125,0.00013558679169233323
1.5083675071264113,0.03045818310099522,0.01013977574470251,0.010026451111954632,0.013102882240741482,-0.0007147813446035796
1.508439024281338,0.03190386747651281,0.014229420670862802,0.012747040105629182,0.01767882365042524,-0.00156335474022396
1.5085105414362645,0.03314377564440417,0.02028741448105132,0.01600259242207933,0.023553188296052855,-0.0028345573545855342
1.508582058591191,0.03366149064758627,0.025278904521290543,0.0186299276568245,0.028620281890058375,-0.004069940350371672
1.5086535757461177,0.03301661123576188,0.025200917418390784,0.017302793300784304,0.03109666246307255,-0.006678626471673964
1.5087250929010443,0.031031763736761156,0.021227779930863666,0.013978643770450466,0.030386852363253343,-0.008774704380534886
1.5087966100559709,0.02787943173947238,0.015934943355093642,0.009773118861112214,0.02675731056451271,-0.009672118799534288
1.5088681272108975,0.024071143965329337,0.010969713683245686,0.005405399448016361,0.02312116011656419,-0.010689257075087964
1.508939644365824,0.020368522042175177,0.006967719608557313,0.002619426200917792,0.018639656450090046,-0.009950241569607271
1.5090111615207507,0.017622660517009992,0.0049661419024088615,0.001280243020763253,0.016321315914291725,-0.009489770359069104
1.5090826786756772,0.016549556574789192,0.004276500871725972,0.001094148915450876,0.01609488126235288,-0.009487215005081715
1.5091541958306038,0.01749078347259404,0.0042586212185446864,0.001728275756159572,0.014551523304177914,-0.008010432037793641
1.5092257129855304,0.02026609634215111,0.004730131499322067,0.002622344403247119,0.010910827867586528,-0.004988551991871367
1.509297230140457,0.024225306810832306,0.00802517562575255,0.005090188490138515,0.007510158443679058,-0.0009135590883118093
1.5093687472953836,0.028505184243561566,0.015901489484634948,0.010396256019729185,0.0064531298054433745,0.003835211175343355
1.5094402644503102,0.032363241212534366,0.026940567505744847,0.017181792517199104,0.009861452848447892,0.006855271349421424
1.5095117816052368,0.035420479974014,0.03918623694146667,0.023785576506019895,0.017301742990032894,0.0071514915853999024
1.5095832987601634,0.03772295943106026,0.048301762316418924,0.028541189697550762,0.024599033065916757,0.006122437362572116
1.50965481591509,0.039632532833370364,0.051020606490265935,0.030196375009199177,0.030046199431720374,0.0038990895560727396
1.5097263330700166,0.041605230836871475,0.046355611879291034,0.028415936049993602,0.03210418705141712,0.0012101751267403382
1.5097978502249432,0.04392716574129624,0.03902776382533711,0.026087173799228647,0.028943219070554686,0.00144974734004644
1.5098693673798698,0.04649881119729661,0.03474205373940242,0.025125670272120693,0.02453124624796449,0.0035424224649872357
1.5099408845347964,0.048782229516577,0.034842652636034664,0.025898717163670308,0.02316010970819451,0.005015884687099186
1.510012401689723,0.04998265464348263,0.037729700029367305,0.027970420605425636,0.02361980980249035,0.0063122080068792105
1.5100839188446495,0.04939582665258717,0.03828512337487224,0.02744804663090382,0.024013233592395117,0.005658547700039213
1.5101554359995761,0.046726633743720845,0.035934769010399104,0.024915387052692306,0.02352539465765724,0.004026311553439466
1.5102269531545027,0.04221494386441091,0.03318287131096046,0.022036546886626967,0.021843089500356346,0.0028950684656775427
1.5102984703094293,0.0365554045951188,0.031663229756001596,0.019143160662124768,0.022032776784074455,0.0005519589103380928
1.510369987464356,0.030705701566729478,0.031796703575067725,0.01712115674686206,0.023316000529352662,-0.001823726152439407
1.5104415046192825,0.025671938650474672,0.03312177300912564,0.016152578444133103,0.025574860209008617,-0.004016976935539401
1.510513021774209,0.02230380117340663,0.03491255181675628,0.01595046449902194,0.028732315227311525,-0.00619890630494107
1.5105845389291357,0.02110478427342222,0.03347617595926224,0.014310671393420193,0.02881193344269848,-0.007508734492765771
1.5106560560840623,0.022087028251984653,0.028193964046542914,0.011927341615445858,0.023258212105524947,-0.005772965937847136
1.5107275732389889,0.02474352062355467,0.019709074660569054,0.008315005741078718,0.014416184107391152,-0.0028705388694987384
1.5107990903939155,0.028206425428266402,0.013155231463359191,0.006455089330600415,0.005401450156427444,0.0014863729952392655
1.510870607548842,0.03156791810921427,0.010012343464096523,0.006924877381908108,-0.0007357395160547832,0.005783976308138474
1.5109421247037687,0.034217944840168574,0.010292436911336078,0.0085255112555674,-0.001186431029112281,0.007300947404203495
1.5110136418586952,0.036025983655989566,0.013789429939018029,0.01161661354179527,0.002390896831949986,0.007377396835888778
1.5110851590136218,0.03729532439305516,0.015718485423780484,0.013294021431409462,0.007871503503137702,0.005148574968924132
1.5111566761685484,0.03854470610167679,0.014631256478825428,0.013163190298163863,0.013876630130833968,0.0011956094236186085
1.511228193323475,0.04022460916569971,0.013454299228297035,0.013651672900344249,0.01705422825278692,-0.0004683632658918566
1.5112997104784016,0.04246467581659284,0.01440269947138995,0.01442102957265151,0.018934676119835177,-0.001084563243992496
1.5113712276333282,0.04493429586497486,0.019411440905296295,0.016921655013448497,0.021847266231099317,-0.0010343095987967647
1.5114427447882548,0.04689231770787431,0.025226916666942805,0.019784155718843215,0.024587756304144764,-0.000595535127762052
1.5115142619431814,0.047454803887083834,0.027714085395279652,0.02007376929597759,0.02638641148322482,-0.0015275281687419917
