freq,gls,usurper,pdc_unbiased,shape_periodogram,shift_periodogram
1.5,0.031605246424144244,0.03905455346268888,0.022003088454338578,0.049999167468448145,0.00019816993640097495
1.5000715171549266,0.028595336453250155,0.032836658135614635,0.01679692217781675,0.044895498162285954,-0.002540689953698171
1.5001430343098532,0.024797888546036324,0.02763914561961323,0.011419584810450916,0.04126496919943424,-0.00602350858036203
1.5002145514647798,0.020789812632417533,0.026441200619548536,0.008796510756732951,0.03834454941648613,-0.007261736206838694
1.5002860686197064,0.017345459787468324,0.02978232882105597,0.009479677332466734,0.03813667795426888,-0.006551813097686249
1.500357585774633,0.015271945925960987,0.035083330780658006,0.011714688134418397,0.03956549614518737,-0.005072783396809667
1.5004291029295596,0.015165201318802408,0.04133471024300371,0.01415548030345099,0.043119858782879605,-0.004254897201099526
1.5005006200844861,0.01716595655706576,0.046944455001217265,0.016954003693511403,0.04509790685402907,-0.0024774630859651144
1.5005721372394127,0.02086274426290797,0.05117668766325769,0.019187221778694714,0.04615186638865653,-0.0008487521527428906
1.5006436543943393,0.02544081002802935,0.05453095574196531,0.02137618975240262,0.047530063938371704,0.0006100635343507727
1.500715171549266,0.03000884122307953,0.05786279133763677,0.02421994995090846,0.0479179255342109,0.003066848830843931
1.5007866887041925,0.03391266896856934,0.06187933750909565,0.02666061786266369,0.05130829502503966,0.0039534374227423365
1.500858205859119,0.0368882624749449,0.06666731308222978,0.029368029530911475,0.05668162550468175,0.004293020786998006
1.5009297230140457,0.0390355018056212,0.0720938774381092,0.03287087235373193,0.06352100149289779,0.004778814288452447
1.5010012401689723,0.04067274274449097,0.07406010478069298,0.0349635290275476,0.06919124725642296,0.004435906448363309
1.5010727573238989,0.04213722341942038,0.0739552999221612,0.036798409825528795,0.07329626056920632,0.00448246046600221
1.5011442744788255,0.043587855733941964,0.07350370436232795,0.03793328428010061,0.07726234237527148,0.003940062081314736
1.501215791633752,0.044880915226329254,0.07219068128256509,0.03824814004694497,0.08038583928811703,0.00297919578827763
1.5012873087886787,0.045592465454410994,0.07257406808541014,0.03896037083855539,0.0847482560748553,0.001887702650780106
1.5013588259436053,0.04519857422015515,0.07201137710503132,0.038338310339186395,0.08723353547711277,0.00031759169000807047
1.5014303430985318,0.04331902735671992,0.06890034723818572,0.03525172960142179,0.08872993148150664,-0.003129094555137079
1.5015018602534584,0.03989064242203222,0.06163223890578876,0.029380562295107576,0.0881375123016763,-0.008302710057570375
1.501573377408385,0.035207008956161204,0.05257682272883822,0.02275340008029923,0.08595764891857971,-0.013529964847185634
1.5016448945633116,0.029854908046904056,0.04399859286914251,0.01716592382272006,0.0808016219800143,-0.01659817467402402
1.5017164117182382,0.02460404968418353,0.036407439534823755,0.01272729457488559,0.07436999017738948,-0.018093852601865485
1.5017879288731648,0.020274028275387688,0.0313831370357021,0.010756457121333964,0.06790471402464995,-0.01730789148317376
1.5018594460280914,0.01756978332877583,0.028681281337324158,0.009814843547662735,0.06300809301690707,-0.016207463073935034
1.501930963183018,0.016887968997375314,0.027365748805021076,0.009773529530205848,0.05753010843698436,-0.01404839134419322
1.5020024803379446,0.018154766828972088,0.025692598798693646,0.009545857603491862,0.05193684953262597,-0.012015784306825282
1.5020739974928712,0.020807783027131654,0.025441536459429377,0.00997328939183271,0.04751089641469351,-0.009850783772515394
1.5021455146477978,0.023992628107040868,0.027424242456813245,0.01144212206274167,0.045612101625867624,-0.007742566399024559
1.5022170318027244,0.026898257150269028,0.03173804922389315,0.014028974316248104,0.046410612989089425,-0.005687855207328728
1.502288548957651,0.029041972437567,0.036935696193605067,0.016679671046279716,0.04925818518098398,-0.004394090329939612
1.5023600661125776,0.03036170293294545,0.04247791593788761,0.019990738498687276,0.052349867986691744,-0.002590816691043063
1.5024315832675041,0.031115659296329378,0.04381676672750662,0.02077896981185265,0.05472392172349718,-0.0028170174232214915
1.5025031004224307,0.031680428730509906,0.04150018590710272,0.019519808615351825,0.05518719781683157,-0.0041592024834095735
1.5025746175773573,0.032340192227813126,0.037418351470072046,0.018649627815208736,0.05281005915234014,-0.004006801140372261
1.502646134732284,0.033131945974426154,0.03364456675376268,0.017871043624403338,0.048778140632511104,-0.0031080476007917654
1.5027176518872105,0.033797027787609374,0.03243168501426795,0.01799769758677829,0.04683404413933227,-0.0022138530635377636
1.502789169042137,0.033871437590867574,0.030898507014339997,0.017486670760106647,0.04517744989214584,-0.0020202722616389575
1.5028606861970637,0.03289397904446062,0.028072807842314983,0.015274482970942199,0.0438273416583097,-0.003510874545817816
1.5029322033519903,0.030638444170610023,0.025208583172986583,0.012011118949132128,0.04301189308927164,-0.006179703211420407
1.5030037205069169,0.02725242384486997,0.024239363645042436,0.009441040885373031,0.0437369110776292,-0.008828313953310801
1.5030752376618435,0.023245599290448483,0.026928249274195768,0.008606550278537486,0.0454076298193378,-0.01026287780823101
1.50314675481677,0.019358366958489085,0.03154943766377251,0.008953985446160287,0.04705135798651782,-0.01060220432857136
1.5032182719716967,0.01638051368297583,0.03655859098585013,0.010426555451109277,0.04819045769403355,-0.009706901686451492
1.5032897891266233,0.01497089818834955,0.04066864942804569,0.012350463029946239,0.04824557380658229,-0.007963115292793461
1.5033613062815498,0.015499460648454992,0.04366619147952939,0.013981854206916533,0.04690783032158532,-0.005930115389256296
1.5034328234364764,0.01793079665045714,0.0435771546824757,0.01416864675154985,0.04299513049883269,-0.004192909460780675
1.503504340591403,0.021792554285279486,0.04194102027461597,0.013806564009865633,0.03834268011948763,-0.002664132556482242
1.5035758577463296,0.026283745634476982,0.043349878720220204,0.015751292513310384,0.03645109838634572,-0.00012313855523926262
1.5036473749012562,0.03053094650102892,0.04790583535207966,0.019003856556851165,0.03870836782090062,0.0019595166014006065
1.5037188920561828,0.03389868374654469,0.05507796811341152,0.02304438568669538,0.04547837667758558,0.0029625713084451832
1.5037904092111094,0.03619247413189749,0.06449416648080047,0.02836367437687625,0.05339127332378186,0.0046856119468727565
1.503861926366036,0.03764566473947448,0.07209186636616433,0.03246316988130233,0.06097744745458373,0.005421171546072059
1.5039334435209626,0.038716510453014726,0.07642043657351098,0.03408384953452373,0.06797159343176254,0.00411426341227581
1.5040049606758892,0.0398171228344044,0.07846161942058018,0.03557140334761458,0.07352113897266092,0.003262387788896177
1.5040764778308158,0.041095739566223526,0.08195835002958039,0.037525773851031737,0.07855699877989528,0.003046060596408769
1.5041479949857424,0.04234364882306056,0.08553296747770092,0.038887791087543686,0.08326025684038725,0.002417151480231875
1.504219512140669,0.043051695709888996,0.08704537786932913,0.03921573232033744,0.08742312888923606,0.0010508094027242192
1.5042910292955955,0.04260283060723393,0.08280841131448581,0.036347749549566495,0.0886394464506526,-0.0020821387992613592
1.5043625464505221,0.04053910287302065,0.07212568668139778,0.030363706364527798,0.08619239039265326,-0.0066155112424245086
1.5044340636054487,0.03679439695722014,0.05812523633238911,0.02344001313236871,0.08019414117336783,-0.01058184739332165
1.5045055807603753,0.03178229372791513,0.04570431814422138,0.01698689592080203,0.07404355363371351,-0.01404732958115625
1.504577097915302,0.026296542555493532,0.03689317000244307,0.012446934359831944,0.06781245047038609,-0.015717918267487977
1.5046486150702285,0.021278189004975218,0.03335508439712362,0.011187449324425095,0.06327064380111508,-0.01505225488112997
1.504720132225155,0.017555651134353225,0.03171398499811859,0.011283372248322305,0.05904204875140043,-0.013268273941195716
1.5047916493800817,0.01564621916050789,0.029959561938948484,0.010644076718018416,0.055062380429677864,-0.01226003176421398
1.5048631665350083,0.015656872938766518,0.026991541770941815,0.009217644422453899,0.04988793896123605,-0.011496253945654584
1.5049346836899349,0.017286051262519187,0.024729559506400652,0.008230188330603324,0.04420684568735441,-0.010127486104297825
1.5050062008448615,0.019918755698584013,0.023978462262875797,0.007905738300784866,0.03965080167502038,-0.008601617589456914
1.505077717999788,0.022804926807040774,0.025406703569162633,0.009361654152707073,0.03647008504680655,-0.0059933793560529415
1.5051492351547147,0.025289013466251117,0.030072712508945054,0.011726326065843064,0.03883245636265873,-0.004768859061882689
1.5052207523096413,0.027015644551186973,0.035467644690463415,0.014241445734319206,0.042517398717718875,-0.003934961199410098
1.5052922694645678,0.028012475009877,0.03834943041949848,0.015961322224474977,0.043821399710762446,-0.002878038832649998
1.5053637866194944,0.028596359216805502,0.03549614979703538,0.014919408532213189,0.042101877867776215,-0.0031464913010175676
1.505435303774421,0.02915112616185344,0.0285111745488519,0.013309044659559194,0.03769147185408167,-0.0028602167995769637
1.5055068209293476,0.029900153036102176,0.022979778506522813,0.012321918805932341,0.03319204413265354,-0.001966639267544289
1.5055783380842742,0.030782681811496897,0.02159379371913267,0.01250866989698158,0.03045043827280424,-0.0006992260762119529
1.5056498552392008,0.03146961942071043,0.023780524258327284,0.013496870470295333,0.031047768610371444,-3.146064803058026e-05
1.5057213723941274,0.03149161794629547,0.025771439977028094,0.013134126432083434,0.03332002924194965,-0.0012726627416152156
1.505792889549054,0.030427310908792447,0.026723017375701742,0.011855838401314541,0.035734415893640674,-0.0034108884902553155
1.5058644067039806,0.02809465201809536,0.026018935547012716,0.009674998552531539,0.037068933981543054,-0.005945469131749264
1.5059359238589072,0.024683284499830333,0.0236783524601876,0.006168765257997816,0.038200973984241944,-0.00961487819785253
1.5060074410138338,0.020766913938386953,0.021989000335254694,0.003987129865862614,0.038562081298093825,-0.011760525105690752
1.5060789581687604,0.017165658691511196,0.02323549394119749,0.004506773893992003,0.03846250804259064,-0.011244039835379093
1.506150475323687,0.014695536880755058,0.025663833079925553,0.005603202541494299,0.037926873509212755,-0.010023978494833486
1.5062219924786135,0.013907828977730352,0.027344194992777474,0.006474304461408025,0.036089946347487745,-0.00848995087546113
1.5062935096335401,0.014929925183180436,0.02665222803798776,0.007024475314287043,0.031735403042323196,-0.0062434897470819315
1.5063650267884667,0.01746107614733839,0.024111742798658513,0.006681651925523114,0.02624314418682262,-0.004361761324568012
1.5064365439433933,0.020900617081537138,0.024006522895154543,0.008103902228742074,0.02208612733865432,-0.0013957868576895754
1.50650806109832,0.024545654709518663,0.026940120663139753,0.01119024144466396,0.019287008068474693,0.002553094440655628
1.5065795782532465,0.027795889555703463,0.033788848376666895,0.015188716512202768,0.022429536803412618,0.0049646072895414865
1.506651095408173,0.030315638754338018,0.0438910259294374,0.02020329875354711,0.029009783691283847,0.006936092852384109
1.5067226125630997,0.03210575674634778,0.0546453165914146,0.02516307524326057,0.03722370952171013,0.00820703876809237
1.5067941297180263,0.03344435853615213,0.061511589982993636,0.02809340030703321,0.044299647845074536,0.008071183010957625
1.5068656468729529,0.03469846610783441,0.06284678460511116,0.028836225363534616,0.04785047570880108,0.00733476031202694
1.5069371640278795,0.03608805388876267,0.061807608717633286,0.029158238083419115,0.04914977902317134,0.00711139269243831
1.507008681182806,0.03753193323000867,0.06115253537728895,0.029645090979329304,0.050225224528746525,0.007128976752026806
1.5070801983377327,0.038657419159163646,0.06070869761762194,0.03000532215028713,0.04989898722846334,0.007590415586330081
1.5071517154926592,0.038950459296790155,0.05901105811511399,0.029635790998015537,0.048484176374081644,0.007816221354191574
1.5072232326475858,0.03795818995272562,0.053602601105032704,0.026170643808596194,0.04614302045670516,0.005568281015903333
1.5072947498025124,0.035465807062779846,0.04680743290597388,0.02167628316777021,0.043578464094305616,0.0024658790993584414
1.507366266957439,0.03160750390290827,0.04169817225914984,0.01779655130545853,0.04178278080226255,-0.0003779848079213382
1.5074377841123656,0.02689036393457737,0.03718943627619002,0.014369878001425985,0.04052739281217803,-0.003021014235855194
1.5075093012672922,0.022110982309926926,0.03275209963197529,0.012274203971852665,0.03897184529226668,-0.0043218993952436465
1.5075808184222188,0.018158898886019043,0.030049149606003495,0.010838451012952628,0.03887541914422865,-0.005600707141344153
1.5076523355771454,0.015750547010193554,0.02823984795958488,0.009985828883372298,0.037705638580929075,-0.005915006598468522
1.507723852732072,0.015198153002695225,0.024465641957025993,0.008495434228764531,0.03319886476495627,-0.005479573806081137
1.5077953698869986,0.01632710132796861,0.019489206420251627,0.006411917338543193,0.02733365901732583,-0.005045125808197534
1.5078668870419252,0.01858159605132472,0.015086712413351825,0.00521914285473996,0.021214227619329253,-0.0036925467447414535
1.5079384041968518,0.02125563485920751,0.011869102317867787,0.005152249488431391,0.015260538590996657,-0.0013743997837641045
1.5080099213517784,0.023737553869918368,0.01091711874740978,0.0057615299185219465,0.012185718819329878,0.00041290618164181915
1.508081438506705,0.025680396681245936,0.012826689426646628,0.007453924502377228,0.011510730927412765,0.0022342487081204636
1.5081529556616315,0.027059576075294776,0.015089022922546547,0.008842952470356694,0.012402150585396414,0.00315162423399466
1.5082244728165581,0.028112039179855254,0.014706002229513657,0.008942296206187028,0.012206893628347124,0.0033207225664681657
1.5082959899714847,0.029172386947160022,0.012701128133132733,0.008780907310022895,0.011971187139511872,0.0032669236037067796
1.5083675071264113,0.03045818310099522,0.012601477214767662,0.010026451111954632,0.012797907108614408,0.004078640608617947
1.508439024281338,0.03190386747651281,0.016480021116820554,0.012747040105629182,0.015278248867441318,0.005582349897006682
1.5085105414362645,0.03314377564440417,0.022722505554346944,0.01600259242207933,0.019060513369957108,0.007056994825203547
1.508582058591191,0.03366149064758627,0.027856316380344234,0.0186299276568245,0.02228867019099831,0.008177410157743831
1.5086535757461177,0.03301661123576188,0.028558887252689288,0.017302793300784304,0.023664643268174683,0.00641035306605654
1.5087250929010443,0.031031763736761156,0.025052400207803582,0.013978643770450466,0.023473182524963127,0.0034377136714088944
1.5087966100559709,0.02787943173947238,0.020037448906972715,0.009773118861112214,0.02163244390512567,0.0003162680506241077
1.5088681272108975,0.024071143965329337,0.015394054876321414,0.005405399448016361,0.020437115042314203,-0.003211145705235554
1.508939644365824,0.020368522042175177,0.011316759454875118,0.002619426200917792,0.018491516026830034,-0.004987901208424056
1.5090111615207507,0.017622660517009992,0.009072067279856523,0.001280243020763253,0.017666270868653057,-0.005885845527532275
1.5090826786756772,0.016549556574789192,0.007773754513631007,0.001094148915450876,0.017265658114491395,-0.005896333238468815
1.5091541958306038,0.01749078347259404,0.006957533441954436,0.001728275756159572,0.015469321796763693,-0.004597011983977965
1.5092257129855304,0.02026609634215111,0.006906237408141343,0.002622344403247119,0.012382849705343877,-0.0025438760104179187
1.509297230140457,0.024225306810832306,0.00984034204652912,0.005090188490138515,0.009763782311968885,0.0007651556039970701
1.5093687472953836,0.028505184243561566,0.017371012966684127,0.010396256019729185,0.01033265929713779,0.005402607956844899
1.5094402644503102,0.032363241212534366,0.0287357930430804,0.017181792517199104,0.01450173818263166,0.009959352204516969
1.5095117816052368,0.035420479974014,0.04183165313155241,0.023785576506019895,0.020829216519231586,0.013489920644372013
1.5095832987601634,0.03772295943106026,0.05177742254407841,0.028541189697550762,0.025713739931562573,0.015903842625900378
1.50965481591509,0.039632532833370364,0.054786374413167735,0.030196375009199177,0.02789097479418988,0.016554132520449082
1.5097263330700166,0.041605230836871475,0.0500576787851171,0.028415936049993602,0.02695980773837547,0.015291532493743652
1.5097978502249432,0.04392716574129624,0.041989842194695995,0.026087173799228647,0.022326356865271596,0.015003949910250542
1.5098693673798698,0.04649881119729661,0.03649061328577371,0.025125670272120693,0.017294980367189912,0.016130235589360574
1.5099408845347964,0.048782229516577,0.035588321159038844,0.025898717163670308,0.015441665213044147,0.017579153458601057
1.510012401689723,0.04998265464348263,0.03777586002014341,0.027970420605425636,0.015201671206337553,0.019575395007878776
1.5100839188446495,0.04939582665258717,0.03855965597390006,0.02744804663090382,0.014999842666363507,0.01917673942259755
1.5101554359995761,0.046726633743720845,0.036635648372407584,0.024915387052692306,0.014511877027013096,0.01704829109462219
1.5102269531545027,0.04221494386441091,0.0345603183636815,0.022036546886626967,0.014013775705202042,0.01460662270132529
1.5102984703094293,0.0365554045951188,0.034290729883716044,0.019143160662124768,0.015690204945383097,0.01128350760661748
1.510369987464356,0.030705701566729478,0.03584491079792165,0.01712115674686206,0.01888654791873714,0.008152401042878597
1.5104415046192825,0.025671938650474672,0.03859921972980542,0.016152578444133103,0.02247688213840677,0.005829783163627517
1.510513021774209,0.02230380117340663,0.041578951448316345,0.01595046449902194,0.025594825893171743,0.004398667554927657
1.5105845389291357,0.02110478427342222,0.04067713697743963,0.014310671393420193,0.02539584940826859,0.0029739865320333007
1.5106560560840623,0.022087028251984653,0.03494142240303056,0.011927341615445858,0.020944503218798514,0.002566764678144272
1.5107275732389889,0.02474352062355467,0.02552031499714756,0.008315005741078718,0.013752325095520606,0.002128098253777605
1.5107990903939155,0.028206425428266402,0.01771528388398395,0.006455089330600415,0.006990301785432954,0.0031246177192353636
1.510870607548842,0.03156791810921427,0.013338306836755123,0.006924877381908108,0.0024324113007502747,0.005376309204437212
1.5109421247037687,0.034217944840168574,0.013095111655905376,0.0085255112555674,0.0023809206440434352,0.0068642499812540374
1.5110136418586952,0.036025983655989566,0.016727005179289135,0.01161661354179527,0.005206095286086131,0.008569459050730815
1.5110851590136218,0.03729532439305516,0.01884957255393032,0.013294021431409462,0.008490836224494272,0.008795254905422064
1.5111566761685484,0.03854470610167679,0.018137604957793953,0.013163190298163863,0.011594164606745136,0.007435657384112764
1.511228193323475,0.04022460916569971,0.01720902661244881,0.013651672900344249,0.01285579564913363,0.0073795988777838155
1.5112997104784016,0.04246467581659284,0.018228483228857912,0.01442102957265151,0.014643841657364666,0.007370843018427793
1.5113712276333282,0.04493429586497486,0.023463215777410232,0.016921655013448497,0.018402272393961656,0.00816285806385313
1.5114427447882548,0.04689231770787431,0.02917774134319381,0.019784155718843215,0.0220455061873061,0.009333348862337703
1.5115142619431814,0.047454803887083834,0.03143891142130779,0.02007376929597759,0.024005205569761812,0.008816327752725492
1.511585779098108,0.04599085839647899,0.02815605901807625,0.017243949592298295,0.023469703344219765,0.0064342511338111065
