freq,gls,usurper,pdc_unbiased,shape_periodogram,shift_periodogram
1.5,0.031605246424144244,0.0324563647317476,0.022003088454338578,0.04211766552614099,-0.005177242995001093
1.5000715171549266,0.028595336453250155,0.025400022863258796,0.01679692217781675,0.03392717214953805,-0.004941398548931547
1.5001430343098532,0.024797888546036324,0.01950415953817592,0.011419584810450916,0.02748203264699773,-0.005819578936079481
1.5002145514647798,0.020789812632417533,0.01775166999737241,0.008796510756732951,0.022285459171916763,-0.005104067082897276
1.5002860686197064,0.017345459787468324,0.02060909395393253,0.009479677332466734,0.020268360490007672,-0.0034128082328778154
1.500357585774633,0.015271945925960987,0.025504873171481462,0.011714688134418397,0.020337613109398415,-0.0015942742658759334
1.5004291029295596,0.015165201318802408,0.03119317428840361,0.01415548030345099,0.02411695243929685,-0.001671088654861406
1.5005006200844861,0.01716595655706576,0.03638703821421504,0.016954003693511403,0.027130268798048543,-0.0010236079772252167
1.5005721372394127,0.02086274426290797,0.040274311643751,0.019187221778694714,0.030207478936079182,-0.0008813257686231316
1.5006436543943393,0.02544081002802935,0.04364613055922713,0.02137618975240262,0.033730984413334456,-0.001024259110639516
1.500715171549266,0.03000884122307953,0.04730209202213447,0.02421994995090846,0.03648489215317495,-0.00019340749785818438
1.5007866887041925,0.03391266896856934,0.05177022536196754,0.02666061786266369,0.04330222061975515,-0.0019621191431514473
1.500858205859119,0.0368882624749449,0.05682379179654088,0.029368029530911475,0.05224032461104499,-0.00469235305414999
1.5009297230140457,0.0390355018056212,0.062208110551215376,0.03287087235373193,0.06337093949799787,-0.007986128886877756
1.5010012401689723,0.04067274274449097,0.06396234264587868,0.0349635290275476,0.07215840415434044,-0.011150810435022439
1.5010727573238989,0.04213722341942038,0.06386094209462621,0.036798409825528795,0.07810436704000133,-0.012944878244264841
1.5011442744788255,0.043587855733941964,0.0636297356325216,0.03793328428010061,0.0832896958371565,-0.014899365237399027
1.501215791633752,0.044880915226329254,0.06317624467300312,0.03824814004694497,0.08694442464255119,-0.016683147326462915
1.5012873087886787,0.045592465454410994,0.06417837604750955,0.03896037083855539,0.09062238617449045,-0.018149142504988315
1.5013588259436053,0.04519857422015515,0.06342770428532145,0.038338310339186395,0.09085865479166685,-0.018801315857234602
1.5014303430985318,0.04331902735671992,0.059602497827731894,0.03525172960142179,0.08949252444289177,-0.02061345285598528
1.5015018602534584,0.03989064242203222,0.051385396952761675,0.029380562295107576,0.08435446155166017,-0.022633207432975023
1.501573377408385,0.035207008956161204,0.04172100022226577,0.02275340008029923,0.07783992781494234,-0.02450797611023942
1.5016448945633116,0.029854908046904056,0.032836849857785774,0.01716592382272006,0.06882493477809869,-0.024114971804989945
1.5017164117182382,0.02460404968418353,0.0254485295183695,0.01272729457488559,0.05904559494259666,-0.02234060656637314
1.5017879288731648,0.020274028275387688,0.020930816502256155,0.010756457121333964,0.05035656273123612,-0.019126826674572214
1.5018594460280914,0.01756978332877583,0.01874601476478042,0.009814843547662735,0.04487656302325037,-0.016851347666420716
1.501930963183018,0.016887968997375314,0.018259038033789875,0.009773529530205848,0.039471595126867876,-0.0138708043471251
1.5020024803379446,0.018154766828972088,0.017382945215796457,0.009545857603491862,0.03470278536022427,-0.01140107898245897
1.5020739974928712,0.020807783027131654,0.01809293109010592,0.00997328939183271,0.031664728559208474,-0.009352411533458442
1.5021455146477978,0.023992628107040868,0.020985216855226172,0.01144212206274167,0.0309504633120098,-0.0077336239074681165
1.5022170318027244,0.026898257150269028,0.02603426659141486,0.014028974316248104,0.03410954251547537,-0.007344158793200061
1.502288548957651,0.029041972437567,0.031298721236595314,0.016679671046279716,0.03921857353012766,-0.00798845109882996
1.5023600661125776,0.03036170293294545,0.03675657338379147,0.019990738498687276,0.045729084527349716,-0.008865253110326753
1.5024315832675041,0.031115659296329378,0.03746450544253742,0.02077896981185265,0.05057443498437301,-0.010912650422658522
1.5025031004224307,0.031680428730509906,0.03439912568135476,0.019519808615351825,0.052794962126471855,-0.013199607684526377
1.5025746175773573,0.032340192227813126,0.030288256243663415,0.018649627815208736,0.051910383013527135,-0.013429846230876926
1.502646134732284,0.033131945974426154,0.027399604329737343,0.017871043624403338,0.049092024397222524,-0.012504674165238544
1.5027176518872105,0.033797027787609374,0.026901262100194622,0.01799769758677829,0.04759675157359184,-0.011565014912981415
1.502789169042137,0.033871437590867574,0.025564965161800714,0.017486670760106647,0.0450568766014354,-0.010573165498241043
1.5028606861970637,0.03289397904446062,0.022122664634494933,0.015274482970942199,0.04163300951427935,-0.010503180576805504
1.5029322033519903,0.030638444170610023,0.0182065664281689,0.012011118949132128,0.03812911976621725,-0.011262343713635185
1.5030037205069169,0.02725242384486997,0.016115958463596484,0.009441040885373031,0.03553673097986788,-0.01195310511304882
1.5030752376618435,0.023245599290448483,0.017666323285149565,0.008606550278537486,0.034099476259374935,-0.011845355887803641
1.50314675481677,0.019358366958489085,0.021367458036979897,0.008953985446160287,0.03338642137022557,-0.011159142341022239
1.5032182719716967,0.01638051368297583,0.026079861801043845,0.010426555451109277,0.033194300289139285,-0.00982826603029663
1.5032897891266233,0.01497089818834955,0.030586620597334174,0.012350463029946239,0.03330150595471622,-0.008288999555256929
1.5033613062815498,0.015499460648454992,0.03408866315837986,0.013981854206916533,0.03296956344109119,-0.0067479513760968675
1.5034328234364764,0.01793079665045714,0.03440325553225977,0.01416864675154985,0.030195736761266165,-0.005046870888068725
1.503504340591403,0.021792554285279486,0.033716096516871616,0.013806564009865633,0.027120318609262044,-0.003634240371164445
1.5035758577463296,0.026283745634476982,0.03652521250126518,0.015751292513310384,0.027114231298223334,-0.0020144267990818213
1.5036473749012562,0.03053094650102892,0.042322647651917046,0.019003856556851165,0.03238910406399261,-0.0022493243079898515
1.5037188920561828,0.03389868374654469,0.05007816579008691,0.02304438568669538,0.04228850003711754,-0.004406172179710822
1.5037904092111094,0.03619247413189749,0.059375072246914316,0.02836367437687625,0.053996605276410405,-0.006508613854111169
1.503861926366036,0.03764566473947448,0.06627452133087894,0.03246316988130233,0.06510332110280902,-0.009293508529771849
1.5039334435209626,0.038716510453014726,0.0695905861914708,0.03408384953452373,0.07515481098105722,-0.013560069743492758
1.5040049606758892,0.0398171228344044,0.07111685447596615,0.03557140334761458,0.08263146494000763,-0.016502697510544753
1.5040764778308158,0.041095739566223526,0.07471059078356937,0.037525773851031737,0.08866199351060049,-0.018248853855051227
1.5041479949857424,0.04234364882306056,0.07841572980591988,0.038887791087543686,0.09403845485533414,-0.020125226379806228
1.504219512140669,0.043051695709888996,0.08015483770250076,0.03921573232033744,0.09805018182442314,-0.022102138574036072
1.5042910292955955,0.04260283060723393,0.07543306192454488,0.036347749549566495,0.09815304960603485,-0.02455679699777046
1.5043625464505221,0.04053910287302065,0.06393854069606289,0.030363706364527798,0.09275383535521545,-0.026522842142646684
1.5044340636054487,0.03679439695722014,0.04929919160904984,0.02344001313236871,0.08242479917015379,-0.026504177537632418
1.5045055807603753,0.03178229372791513,0.03648024120272431,0.01698689592080203,0.07232433937077694,-0.026221872220688152
1.504577097915302,0.026296542555493532,0.027735489027965597,0.012446934359831944,0.06285684012822657,-0.02470373633975286
1.5046486150702285,0.021278189004975218,0.0244529274741644,0.011187449324425095,0.055035439251846216,-0.021380957040302524
1.504720132225155,0.017555651134353225,0.023423822675060477,0.011283372248322305,0.0488972482719778,-0.01787422290764733
1.5047916493800817,0.01564621916050789,0.022319508231127525,0.010644076718018416,0.04428200529269077,-0.01583034824826661
1.5048631665350083,0.015656872938766518,0.02004474278897328,0.009217644422453899,0.03854455387844749,-0.013815842833644709
1.5049346836899349,0.017286051262519187,0.018415653921783393,0.008230188330603324,0.0333288770081762,-0.011728544039021781
1.5050062008448615,0.019918755698584013,0.018385375094613333,0.007905738300784866,0.029019474709969968,-0.009596264321855086
1.505077717999788,0.022804926807040774,0.02084325232584563,0.009361654152707073,0.02629783887663444,-0.006869897963818247
1.5051492351547147,0.025289013466251117,0.02633700272392879,0.011726326065843064,0.030448573505380813,-0.007217720441206076
1.5052207523096413,0.027015644551186973,0.031871700483584696,0.014241445734319206,0.036126751541877306,-0.008291958596029037
1.5052922694645678,0.028012475009877,0.034572214292684145,0.015961322224474977,0.039710252991678005,-0.008859900951698826
1.5053637866194944,0.028596359216805502,0.03097877589819298,0.014919408532213189,0.0396508083256989,-0.009693063092850234
1.505435303774421,0.02915112616185344,0.023693207898643667,0.013309044659559194,0.036334806187268406,-0.009183047992676286
1.5055068209293476,0.029900153036102176,0.018641069439960026,0.012321918805932341,0.03292557402487498,-0.008103191379300574
1.5055783380842742,0.030782681811496897,0.017850458979310167,0.01250866989698158,0.03133823975443731,-0.00706329668865419
1.5056498552392008,0.03146961942071043,0.020403722109618723,0.013496870470295333,0.03301400311314627,-0.007175857717810364
1.5057213723941274,0.03149161794629547,0.021866767551985546,0.013134126432083434,0.035476056337610924,-0.008849728513432117
1.505792889549054,0.030427310908792447,0.021462294016958643,0.011855838401314541,0.03715100149792067,-0.010846058577450234
1.5058644067039806,0.02809465201809536,0.019211204673747588,0.009674998552531539,0.03659682442533831,-0.012349697894891485
1.5059359238589072,0.024683284499830333,0.01534042547300824,0.006168765257997816,0.03503562234916958,-0.014392960661928795
1.5060074410138338,0.020766913938386953,0.012904582200818753,0.003987129865862614,0.03285606966393023,-0.01499050796969121
1.5060789581687604,0.017165658691511196,0.014041680973345887,0.004506773893992003,0.030432247115243456,-0.013207724462329262
1.506150475323687,0.014695536880755058,0.01678917359146024,0.005603202541494299,0.029193533798650105,-0.011606403803903006
1.5062219924786135,0.013907828977730352,0.019219777775385864,0.006474304461408025,0.02753233567570606,-0.009956893509472375
1.5062935096335401,0.014929925183180436,0.019640125992569857,0.007024475314287043,0.023492033847636155,-0.0072485716476134235
1.5063650267884667,0.01746107614733839,0.01849586442989011,0.006681651925523114,0.02000981504931055,-0.005593495777404534
1.5064365439433933,0.020900617081537138,0.020148636464672603,0.008103902228742074,0.017913207623791463,-0.00324403462092261
1.50650806109832,0.024545654709518663,0.02460951162112942,0.01119024144466396,0.017003196860544516,-0.00017290148836836315
1.5065795782532465,0.027795889555703463,0.03247332479330312,0.015188716512202768,0.02260880308417584,2.771156614663818e-05
1.506651095408173,0.030315638754338018,0.042801309150436805,0.02020329875354711,0.03163811311634307,-0.0008335303794096046
1.5067226125630997,0.03210575674634778,0.05308951406803104,0.02516307524326057,0.04235760294921101,-0.0026818028778482043
1.5067941297180263,0.03344435853615213,0.059070529447765155,0.02809340030703321,0.05117258083414511,-0.00515815086630734
1.5068656468729529,0.03469846610783441,0.05962624633996008,0.028836225363534616,0.05579717619463734,-0.00711982571245769
1.5069371640278795,0.03608805388876267,0.05850834372775746,0.029158238083419115,0.05766611034948771,-0.007894715243444287
1.507008681182806,0.03753193323000867,0.05825583627971147,0.029645090979329304,0.059638500260533134,-0.008590210288136422
1.5070801983377327,0.038657419159163646,0.058521349549652386,0.03000532215028713,0.060576356444199446,-0.008813712816517329
1.5071517154926592,0.038950459296790155,0.05723871490128838,0.029635790998015537,0.0595851505918329,-0.008568173333876257
1.5072232326475858,0.03795818995272562,0.051328088728813163,0.026170643808596194,0.05700674679973399,-0.010014831930985778
1.5072947498025124,0.035465807062779846,0.043779217338271975,0.02167628316777021,0.05276621831670664,-0.011389132000487363
1.507366266957439,0.03160750390290827,0.037476516710752715,0.01779655130545853,0.048603763872575464,-0.012294191464431132
1.5074377841123656,0.02689036393457737,0.0321143302207698,0.014369878001425985,0.04514676608089484,-0.013215233194126692
1.5075093012672922,0.022110982309926926,0.027358262700219443,0.012274203971852665,0.0408427225526011,-0.012556854365488765
1.5075808184222188,0.018158898886019043,0.024412763631171168,0.010838451012952628,0.03859861824836359,-0.012498870898728615
1.5076523355771454,0.015750547010193554,0.022554795086785522,0.009985828883372298,0.0362316641801375,-0.011887775410751984
1.507723852732072,0.015198153002695225,0.019049160170340085,0.008495434228764531,0.03115502056562852,-0.010296436206043579
1.5077953698869986,0.01632710132796861,0.014322207584731655,0.006411917338543193,0.024339596858750666,-0.008229719448225613
1.5078668870419252,0.01858159605132472,0.010791666269871658,0.00521914285473996,0.017623510313213766,-0.005479263774415038
1.5079384041968518,0.02125563485920751,0.008723379279380702,0.005152249488431391,0.01104741305382504,-0.0018722739375036863
1.5080099213517784,0.023737553869918368,0.008643294018238547,0.0057615299185219465,0.008035888018955821,0.0003109125440842067
1.508081438506705,0.025680396681245936,0.010831605245000273,0.007453924502377228,0.008046938850048415,0.0017106198939184623
1.5081529556616315,0.027059576075294776,0.012877518685569167,0.008842952470356694,0.009600362036656745,0.0019994925426576
1.5082244728165581,0.028112039179855254,0.012051032755624377,0.008942296206187028,0.010009417809730163,0.001854237592951006
1.5082959899714847,0.029172386947160022,0.009570626580307192,0.008780907310022895,0.010036578136717449,0.0017050395090076058
1.5083675071264113,0.03045818310099522,0.009370443710853809,0.010026451111954632,0.01068921486024282,0.002376367471742748
1.508439024281338,0.03190386747651281,0.013725940886970506,0.012747040105629182,0.013516930178845017,0.003062091031529567
1.5085105414362645,0.03314377564440417,0.02032225195044224,0.01600259242207933,0.018573305212676784,0.002951628964032758
1.508582058591191,0.03366149064758627,0.02569673565273815,0.0186299276568245,0.02316838368757581,0.0025763318295264465
1.5086535757461177,0.03301661123576188,0.025507981991100156,0.017302793300784304,0.024947988648521456,0.0004819568150464857
1.5087250929010443,0.031031763736761156,0.021037354796634492,0.013978643770450466,0.023907634005867907,-0.0017014563246476426
1.5087966100559709,0.02787943173947238,0.015218063147486948,0.009773118861112214,0.020742813447036018,-0.0034332740630060444
1.5088681272108975,0.024071143965329337,0.009908613030832895,0.005405399448016361,0.01818655872675514,-0.0056381574318517085
1.508939644365824,0.020368522042175177,0.005685363128200372,0.002619426200917792,0.014825581515625873,-0.006080436503245307
1.5090111615207507,0.017622660517009992,0.0037713177201299727,0.001280243020763253,0.013475853585205597,-0.006441086539290811
1.5090826786756772,0.016549556574789192,0.0031612248839928115,0.001094148915450876,0.01339622548830736,-0.006551314269765289
1.5091541958306038,0.01749078347259404,0.0031770426758475903,0.001728275756159572,0.012004285338531852,-0.005249355806957905
1.5092257129855304,0.02026609634215111,0.003714369186347761,0.002622344403247119,0.00926102492084768,-0.002978950355589782
1.509297230140457,0.024225306810832306,0.007383852467197749,0.005090188490138515,0.007805921675148094,-0.00011869426121864262
1.5093687472953836,0.028505184243561566,0.016163567573086908,0.010396256019729185,0.009048099776822737,0.003597429563077188
1.5094402644503102,0.032363241212534366,0.028470596137185826,0.017181792517199104,0.014300248041716482,0.006310966458949297
1.5095117816052368,0.035420479974014,0.04215920651589305,0.023785576506019895,0.02259209774252682,0.007183457433012589
1.5095832987601634,0.03772295943106026,0.052382097569961206,0.028541189697550762,0.02947530542497823,0.0073060240748046845
1.50965481591509,0.039632532833370364,0.055412791885140485,0.030196375009199177,0.03323858680357198,0.0065875603036590295
1.5097263330700166,0.041605230836871475,0.05019655530526658,0.028415936049993602,0.03297557941662994,0.00525253864538246
1.5097978502249432,0.04392716574129624,0.0420380719860505,0.026087173799228647,0.027887957684136825,0.006148610574559587
1.5098693673798698,0.04649881119729661,0.0373870993742001,0.025125670272120693,0.022449462987558892,0.008377152083844767
1.5099408845347964,0.048782229516577,0.03765518430706926,0.025898717163670308,0.02081773243405146,0.009928356055918821
1.510012401689723,0.04998265464348263,0.040923777712668696,0.027970420605425636,0.021278590990436747,0.01139456488879423
1.5100839188446495,0.04939582665258717,0.041615684344602444,0.02744804663090382,0.02143221773557845,0.010874641557796378
1.5101554359995761,0.046726633743720845,0.03892543311839464,0.024915387052692306,0.020338654470696393,0.009377436827211186
1.5102269531545027,0.04221494386441091,0.035784621612075004,0.022036546886626967,0.018658604554224058,0.007919391001238306
1.5102984703094293,0.0365554045951188,0.03404502261932605,0.019143160662124768,0.019122083311861104,0.005256244282995905
1.510369987464356,0.030705701566729478,0.034194611823194186,0.01712115674686206,0.021031107115139815,0.0025125315821708676
1.5104415046192825,0.025671938650474672,0.03565883045461774,0.016152578444133103,0.023775105545967123,0.00017919181496612118
1.510513021774209,0.02230380117340663,0.037574095614126744,0.01595046449902194,0.027064143480796096,-0.0018209656055454093
1.5105845389291357,0.02110478427342222,0.03598620832741181,0.014310671393420193,0.027401354170913095,-0.003371826537732067
1.5106560560840623,0.022087028251984653,0.03003451718794613,0.011927341615445858,0.02246888121146926,-0.0026047211391227666
1.5107275732389889,0.02474352062355467,0.020582103853154763,0.008315005741078718,0.014759166115115569,-0.0013119831956295886
1.5107990903939155,0.028206425428266402,0.013224299972106108,0.006455089330600415,0.007113641648126167,0.0014006010668623553
1.510870607548842,0.03156791810921427,0.009599028446394655,0.006924877381908108,0.0018804684503719853,0.004704851874424266
1.5109421247037687,0.034217944840168574,0.009771153627307743,0.0085255112555674,0.0012036952520480873,0.006411256706170159
1.5110136418586952,0.036025983655989566,0.013345125535600688,0.01161661354179527,0.0036712468059576296,0.007605064778029429
1.5110851590136218,0.03729532439305516,0.015164242170470658,0.013294021431409462,0.006966879924783276,0.007163653848958188
1.5111566761685484,0.03854470610167679,0.013522430649920036,0.013163190298163863,0.010038767833579354,0.005344578745804107
1.511228193323475,0.04022460916569971,0.011702221616791329,0.013651672900344249,0.01071730672892272,0.005372622323391093
1.5112997104784016,0.04246467581659284,0.012589566558634736,0.01442102957265151,0.011570810985816445,0.005536630506276065
1.5113712276333282,0.04493429586497486,0.018089079250011946,0.016921655013448497,0.014666308728274211,0.005890969511579786
1.5114427447882548,0.04689231770787431,0.0246890063631055,0.019784155718843215,0.018445674143310872,0.006165667561517859
1.5115142619431814,0.047454803887083834,0.02778750263304262,0.02007376929597759,0.020916937362746645,0.005030351124225499
