freq,gls,usurper,pdc_unbiased,shape_periodogram,shift_periodogram
1.5,0.031605246424144244,0.032026355306103364,0.022003088454338578,0.029029523145956814,0.002828748613722068
1.5000715171549266,0.028595336453250155,0.02465729067438149,0.01679692217781675,0.02285092510420403,0.0017845939971956881
1.5001430343098532,0.024797888546036324,0.01851901025615226,0.011419584810450916,0.018256968131855768,-0.00025869306775784783
1.5002145514647798,0.020789812632417533,0.016593495556469818,0.008796510756732951,0.01456647196882882,-0.0004714058571985816
1.5002860686197064,0.017345459787468324,0.0193687298092915,0.009479677332466734,0.013351818937517976,0.0007600570284417075
1.500357585774633,0.015271945925960987,0.024225279901442773,0.011714688134418397,0.014200542535004003,0.002182272974168354
1.5004291029295596,0.015165201318802408,0.02988761790836793,0.01415548030345099,0.017900065655001535,0.0022370494559301336
1.5005006200844861,0.01716595655706576,0.035037264791349054,0.016954003693511403,0.020569052126187717,0.0031502806358325378
1.5005721372394127,0.02086274426290797,0.03905883898483761,0.019187221778694714,0.023058989340298843,0.003684725061158481
1.5006436543943393,0.02544081002802935,0.042686392520105025,0.02137618975240262,0.025910237473188845,0.0039869263734520115
1.500715171549266,0.03000884122307953,0.046758648117828226,0.02421994995090846,0.027610437251891967,0.005463224865808352
1.5007866887041925,0.03391266896856934,0.05162205271192089,0.02666061786266369,0.032557822030483755,0.00484531960574446
1.500858205859119,0.0368882624749449,0.056969969534622536,0.029368029530911475,0.03889044317300798,0.003703610567418106
1.5009297230140457,0.0390355018056212,0.06267664475048608,0.03287087235373193,0.04694682571161585,0.002300605044420537
1.5010012401689723,0.04067274274449097,0.06477213237497005,0.0349635290275476,0.05292367833577526,0.000832673228869074
1.5010727573238989,0.04213722341942038,0.06495252029880934,0.036798409825528795,0.056604922924065625,0.00038932569798670526
1.5011442744788255,0.043587855733941964,0.06504125887794869,0.03793328428010061,0.06013177775290505,-0.000561620903760148
1.501215791633752,0.044880915226329254,0.0649906825739001,0.03824814004694497,0.0633168339609464,-0.0020205903075767957
1.5012873087886787,0.045592465454410994,0.06626290172702111,0.03896037083855539,0.06656919972274619,-0.003180791867645533
1.5013588259436053,0.04519857422015515,0.06557211251073423,0.038338310339186395,0.0668319779372984,-0.003848906890768931
1.5014303430985318,0.04331902735671992,0.06150347885186505,0.03525172960142179,0.06660601363338568,-0.006334368561969476
1.5015018602534584,0.03989064242203222,0.05290842792910685,0.029380562295107576,0.06328668861631644,-0.009492603079928056
1.501573377408385,0.035207008956161204,0.042827801235146006,0.02275340008029923,0.05922557767715046,-0.012882223450702014
1.5016448945633116,0.029854908046904056,0.033645205743310036,0.01716592382272006,0.05253203998407224,-0.013964888951515205
1.5017164117182382,0.02460404968418353,0.025999829715563066,0.01272729457488559,0.04486208388060665,-0.01354976519218555
1.5017879288731648,0.020274028275387688,0.021253088833064312,0.010756457121333964,0.03833467287816943,-0.011675831567650286
1.5018594460280914,0.01756978332877583,0.01880777934591699,0.009814843547662735,0.03482415572250735,-0.010568908589109548
1.501930963183018,0.016887968997375314,0.017933417809989187,0.009773529530205848,0.031393654972334976,-0.008747754075137833
1.5020024803379446,0.018154766828972088,0.016846979101746224,0.009545857603491862,0.028321500271988806,-0.007277683670814857
1.5020739974928712,0.020807783027131654,0.01743998892420029,0.00997328939183271,0.0266043657150051,-0.005989235725103066
1.5021455146477978,0.023992628107040868,0.020279489995762172,0.01144212206274167,0.026326468887880497,-0.00460253875714088
1.5022170318027244,0.026898257150269028,0.0253559577298308,0.014028974316248104,0.028681816291550175,-0.003698461700904494
1.502288548957651,0.029041972437567,0.030629429221838117,0.016679671046279716,0.031900931838702476,-0.003207417814496481
1.5023600661125776,0.03036170293294545,0.03607639548968973,0.019990738498687276,0.0359587868935495,-0.0026134006700809288
1.5024315832675041,0.031115659296329378,0.03681788563084847,0.02077896981185265,0.038219425962233045,-0.0031722211162307323
1.5025031004224307,0.031680428730509906,0.033733826097651055,0.019519808615351825,0.038574567554532986,-0.004425171541115133
1.5025746175773573,0.032340192227813126,0.02970802071833749,0.018649627815208736,0.03646882618183486,-0.004019015686379062
1.502646134732284,0.033131945974426154,0.027030879987909023,0.017871043624403338,0.03346596979042978,-0.003050521891236008
1.5027176518872105,0.033797027787609374,0.026719385360449426,0.01799769758677829,0.03205761452687281,-0.0021821590129367475
1.502789169042137,0.033871437590867574,0.02553771120697794,0.017486670760106647,0.029678014484728035,-0.0013256903436260402
1.5028606861970637,0.03289397904446062,0.022066832116425104,0.015274482970942199,0.02724475503136632,-0.001872706984903537
1.5029322033519903,0.030638444170610023,0.017979698233855607,0.012011118949132128,0.02525234010029327,-0.0035427348229206076
1.5030037205069169,0.02725242384486997,0.015695428831911936,0.009441040885373031,0.024364885796422483,-0.005226214077261857
1.5030752376618435,0.023245599290448483,0.01710302580971304,0.008606550278537486,0.024022876330879406,-0.005743648151496378
1.50314675481677,0.019358366958489085,0.020713390907936526,0.008953985446160287,0.024185936848034856,-0.005539396327643228
1.5032182719716967,0.01638051368297583,0.02544760358673687,0.010426555451109277,0.02453655577884835,-0.004489522700271649
1.5032897891266233,0.01497089818834955,0.029967769307909963,0.012350463029946239,0.02543896510364265,-0.0033579843477625874
1.5033613062815498,0.015499460648454992,0.03334479697268851,0.013981854206916533,0.025733833501803485,-0.002144036609686439
1.5034328234364764,0.01793079665045714,0.03364106433863504,0.01416864675154985,0.023604794649107166,-0.0008356790592940907
1.503504340591403,0.021792554285279486,0.03308092981016764,0.013806564009865633,0.02098379263099051,0.0002764494419719159
1.5035758577463296,0.026283745634476982,0.03610499447222913,0.015751292513310384,0.021354428598470514,0.001713222287811427
1.5036473749012562,0.03053094650102892,0.042206113996186956,0.019003856556851165,0.02607004702234191,0.001902671418472069
1.5037188920561828,0.03389868374654469,0.050272185208614976,0.02304438568669538,0.033943382584357286,0.0010491650517218197
1.5037904092111094,0.03619247413189749,0.05984341037468738,0.02836367437687625,0.042441187355551815,0.000936527305509638
1.503861926366036,0.03764566473947448,0.06709530654894362,0.03246316988130233,0.05002137052447594,0.0002931717392106605
1.5039334435209626,0.038716510453014726,0.0706340772406963,0.03408384953452373,0.05709736479813991,-0.002169228078920871
1.5040049606758892,0.0398171228344044,0.0724490778849344,0.03557140334761458,0.061979297363310044,-0.003557183859072686
1.5040764778308158,0.041095739566223526,0.07630920662638967,0.037525773851031737,0.06647793993740816,-0.004343669154956928
1.5041479949857424,0.04234364882306056,0.08014245714532152,0.038887791087543686,0.07118182855662579,-0.005742408309672612
1.504219512140669,0.043051695709888996,0.0818804908420708,0.03921573232033744,0.0749842175857044,-0.007527435092536952
1.5042910292955955,0.04260283060723393,0.0770229000860091,0.036347749549566495,0.07589655905439972,-0.010447309403231889
1.5043625464505221,0.04053910287302065,0.06523718881760628,0.030363706364527798,0.07241177996024815,-0.013612007067085714
1.5044340636054487,0.03679439695722014,0.050377256097609895,0.02344001313236871,0.0646799069274937,-0.015260595372585188
1.5045055807603753,0.03178229372791513,0.037297054417627394,0.01698689592080203,0.057225675698232156,-0.01665941280387539
1.504577097915302,0.026296542555493532,0.028322785098431374,0.012446934359831944,0.05038324290957323,-0.016776265931261896
1.5046486150702285,0.021278189004975218,0.024871974644306856,0.011187449324425095,0.04448025037960997,-0.01463976845672557
1.504720132225155,0.017555651134353225,0.023677230105448505,0.011283372248322305,0.04027723196038127,-0.012283569028952066
1.5047916493800817,0.01564621916050789,0.022245555982979455,0.010644076718018416,0.03738646886949521,-0.011257297052452073
1.5048631665350083,0.015656872938766518,0.019601785292898705,0.009217644422453899,0.03357797658425987,-0.010397399692432755
1.5049346836899349,0.017286051262519187,0.017786778129707713,0.008230188330603324,0.029609358371455397,-0.009081699615258051
1.5050062008448615,0.019918755698584013,0.017656547862467464,0.007905738300784866,0.026210197630701326,-0.0075163313599742815
1.505077717999788,0.022804926807040774,0.020095392262946127,0.009361654152707073,0.02384602036799874,-0.005012468114119273
1.5051492351547147,0.025289013466251117,0.025527962376500755,0.011726326065843064,0.027272400665147148,-0.00487482627502779
1.5052207523096413,0.027015644551186973,0.031003796594152776,0.014241445734319206,0.030909794205223277,-0.004724501753046776
1.5052922694645678,0.028012475009877,0.033629055822168796,0.015961322224474977,0.032088317837513626,-0.003913698237815848
1.5053637866194944,0.028596359216805502,0.02999413324643631,0.014919408532213189,0.029757643761994593,-0.0035305421171608143
1.505435303774421,0.02915112616185344,0.02293360352316556,0.013309044659559194,0.024765543341822627,-0.002186903269931974
1.5055068209293476,0.029900153036102176,0.018165571060378187,0.012321918805932341,0.020719303786406518,-0.000830289522031676
1.5055783380842742,0.030782681811496897,0.01763142741146216,0.01250866989698158,0.019173499854150188,0.00016253814910501015
1.5056498552392008,0.03146961942071043,0.020356614234529773,0.013496870470295333,0.02081435715800147,0.00010734830604693408
1.5057213723941274,0.03149161794629547,0.021873546721915004,0.013134126432083434,0.023289929872846896,-0.0015363391809854366
1.505792889549054,0.030427310908792447,0.021257261451028815,0.011855838401314541,0.02580530058106496,-0.003972451815294099
1.5058644067039806,0.02809465201809536,0.018838150549945733,0.009674998552531539,0.02654153015492786,-0.0062063371370225775
1.5059359238589072,0.024683284499830333,0.014848649941883738,0.006168765257997816,0.026269570041498908,-0.0090103307027517
1.5060074410138338,0.020766913938386953,0.012392814288120101,0.003987129865862614,0.02518708990577161,-0.010260878628708583
1.5060789581687604,0.017165658691511196,0.013589811596373815,0.004506773893992003,0.023611314207843535,-0.008971425166225722
1.506150475323687,0.014695536880755058,0.016370655968612455,0.005603202541494299,0.023276589877622707,-0.007867733763837306
1.5062219924786135,0.013907828977730352,0.01874555038794357,0.006474304461408025,0.022417568571240356,-0.00667014543561824
1.5062935096335401,0.014929925183180436,0.019119809612245412,0.007024475314287043,0.01940062858371361,-0.004575945078424374
1.5063650267884667,0.01746107614733839,0.018093064009321147,0.006681651925523114,0.017269519163960263,-0.0037123227888697916
1.5064365439433933,0.020900617081537138,0.01995617037112116,0.008103902228742074,0.01612923967941096,-0.0018990243314626469
1.50650806109832,0.024545654709518663,0.024717138078470494,0.01119024144466396,0.015475767188250986,0.0010516275321850376
1.5065795782532465,0.027795889555703463,0.03289788413255956,0.015188716512202768,0.019918802171226175,0.0020156388276543397
1.506651095408173,0.030315638754338018,0.043415489125288496,0.02020329875354711,0.026384901246730482,0.0027425542503191043
1.5067226125630997,0.03210575674634778,0.053802217924421726,0.02516307524326057,0.03380403545692898,0.0029096701375100607
1.5067941297180263,0.03344435853615213,0.0598027663873476,0.02809340030703321,0.03956832522450924,0.0022624692663887804
1.5068656468729529,0.03469846610783441,0.06043673805453428,0.028836225363534616,0.04185527551178738,0.0016518718077894693
1.5069371640278795,0.03608805388876267,0.059476372894283265,0.029158238083419115,0.042522101217511814,0.00156271211755608
1.507008681182806,0.03753193323000867,0.059419855653724846,0.029645090979329304,0.044229859328862135,0.001049490692020169
1.5070801983377327,0.038657419159163646,0.05975644618199299,0.03000532215028713,0.04560601896319877,0.0006088177224189471
1.5071517154926592,0.038950459296790155,0.05845756988639015,0.029635790998015537,0.04519905887626633,0.0005173363951637562
1.5072232326475858,0.03795818995272562,0.05226878082586141,0.026170643808596194,0.04403385627849248,-0.001774019716406842
1.5072947498025124,0.035465807062779846,0.044338802921315285,0.02167628316777021,0.04202946410849555,-0.0044775569724840895
1.507366266957439,0.03160750390290827,0.03765829628324995,0.01779655130545853,0.0398484061999553,-0.006566109754468023
1.5074377841123656,0.02689036393457737,0.03203284758078374,0.014369878001425985,0.037999552775743094,-0.008451796659436914
1.5075093012672922,0.022110982309926926,0.027195246091531906,0.012274203971852665,0.03499871795708186,-0.008592781883393075
1.5075808184222188,0.018158898886019043,0.02416725563854143,0.010838451012952628,0.03384898826476505,-0.009179549952987675
1.5076523355771454,0.015750547010193554,0.022097084563858185,0.009985828883372298,0.032664993472608754,-0.00925679091580892
1.507723852732072,0.015198153002695225,0.018309287902021888,0.008495434228764531,0.028821141802835428,-0.00843209742642914
1.5077953698869986,0.01632710132796861,0.013404901657996342,0.006411917338543193,0.023344748964800238,-0.00722400285368788
1.5078668870419252,0.01858159605132472,0.009807910291378263,0.00521914285473996,0.017705828453742245,-0.005178917298092567
1.5079384041968518,0.02125563485920751,0.007794872024163039,0.005152249488431391,0.011895373080948457,-0.0020942364513844665
1.5080099213517784,0.023737553869918368,0.007767234442936782,0.0057615299185219465,0.008681187836332892,0.00015572754333279212
1.508081438506705,0.025680396681245936,0.009980209859424879,0.007453924502377228,0.007130193624741381,0.002418053493323382
1.5081529556616315,0.027059576075294776,0.012025177896842678,0.008842952470356694,0.006456993895399343,0.003950689110888653
1.5082244728165581,0.028112039179855254,0.011243590296617643,0.008942296206187028,0.004900255776408279,0.004875599729107502
1.5082959899714847,0.029172386947160022,0.008959564221779818,0.008780907310022895,0.003195120717846198,0.005661305601419106
1.5083675071264113,0.03045818310099522,0.009059358351015245,0.010026451111954632,0.0026332881273782326,0.0070129674367586875
1.508439024281338,0.03190386747651281,0.013690273391272312,0.012747040105629182,0.004606265670112878,0.00823604643811816
1.5085105414362645,0.03314377564440417,0.02044679355520984,0.01600259242207933,0.0090988612302274,0.008548134134252849
1.508582058591191,0.03366149064758627,0.02597770276670236,0.0186299276568245,0.013397949537191834,0.008436572444311745
1.5086535757461177,0.03301661123576188,0.025700331872861908,0.017302793300784304,0.015555943896821639,0.006153271497959021
1.5087250929010443,0.031031763736761156,0.020994648064899105,0.013978643770450466,0.01575089226036864,0.003249814214350769
1.5087966100559709,0.02787943173947238,0.014925604081834024,0.009773118861112214,0.01414683089620646,0.0005772941434695087
1.5088681272108975,0.024071143965329337,0.00942258029772576,0.005405399448016361,0.012988320898440566,-0.0024719970179662375
1.508939644365824,0.020368522042175177,0.00521582708888894,0.002619426200917792,0.010507706309971691,-0.0034753516060582303
1.5090111615207507,0.017622660517009992,0.003466308689460376,0.001280243020763253,0.009407847895984303,-0.004007635314977125
1.5090826786756772,0.016549556574789192,0.0030254584918283033,0.001094148915450876,0.010051788661970441,-0.004512274936907011
1.5091541958306038,0.01749078347259404,0.0030876166844807057,0.001728275756159572,0.009433688379388875,-0.0036446339530708683
1.5092257129855304,0.02026609634215111,0.003739914073796891,0.002622344403247119,0.007481906049852448,-0.0018374251271164829
1.509297230140457,0.024225306810832306,0.007654126004378421,0.005090188490138515,0.0063696614516659976,0.0008401769749693765
1.5093687472953836,0.028505184243561566,0.01679308255448138,0.010396256019729185,0.007387869072808036,0.004754681480472439
1.5094402644503102,0.032363241212534366,0.02941282749470897,0.017181792517199104,0.011410967272927541,0.008291274874976965
1.5095117816052368,0.035420479974014,0.04326370739256544,0.023785576506019895,0.01737188098791549,0.0106300580898328
1.5095832987601634,0.03772295943106026,0.053471633135573314,0.028541189697550762,0.021684471129897572,0.01230552616055178
1.50965481591509,0.039632532833370364,0.056421253570726596,0.030196375009199177,0.0235394886040956,0.012697899696589557
1.5097263330700166,0.041605230836871475,0.051192516684325645,0.028415936049993602,0.021911552417019826,0.012077340673497479
1.5097978502249432,0.04392716574129624,0.04319585384517444,0.026087173799228647,0.016492329490747748,0.01304337970352936
1.5098693673798698,0.04649881119729661,0.03870664318940644,0.025125670272120693,0.011335571406761367,0.015019278137487007
1.5099408845347964,0.048782229516577,0.0389996089052955,0.025898717163670308,0.01025773064282107,0.016252304036808416
1.510012401689723,0.04998265464348263,0.04218049388398996,0.027970420605425636,0.011374026920192716,0.0173937238443939
1.5100839188446495,0.04939582665258717,0.042580279601135564,0.02744804663090382,0.012549410080015783,0.016319071390478137
1.5101554359995761,0.046726633743720845,0.03951393504981788,0.024915387052692306,0.013076103373440872,0.013902059256368993
1.5102269531545027,0.04221494386441091,0.03598896850036968,0.022036546886626967,0.013332370705692455,0.011339828504087261
1.5102984703094293,0.0365554045951188,0.033877732300221876,0.019143160662124768,0.01512366943007808,0.007936123750934243
1.510369987464356,0.030705701566729478,0.03370900051627583,0.01712115674686206,0.017921505776968397,0.004721947844372197
1.5104415046192825,0.025671938650474672,0.03497560837872387,0.016152578444133103,0.020531837640094353,0.0024956933066512055
1.510513021774209,0.02230380117340663,0.03668646951461304,0.01595046449902194,0.023713285182005783,0.0006057569462565568
1.5105845389291357,0.02110478427342222,0.034784066956933604,0.014310671393420193,0.024090527048456403,-0.0009787221209883782
1.5106560560840623,0.022087028251984653,0.02864472685575711,0.011927341615445858,0.019726641620586297,-0.0006257874079662515
1.5107275732389889,0.02474352062355467,0.01918318355126969,0.008315005741078718,0.012840849690598772,5.612687406994416e-05
1.5107990903939155,0.028206425428266402,0.011966352026605377,0.006455089330600415,0.0059521526311565615,0.002214280998758729
1.510870607548842,0.03156791810921427,0.008655711554043542,0.006924877381908108,0.0008403891737777698,0.00537220637918034
1.5109421247037687,0.034217944840168574,0.009169241109969348,0.0085255112555674,-0.0011041109000652566,0.007769830018192974
1.5110136418586952,0.036025983655989566,0.012949302073811331,0.01161661354179527,-0.0008666662946387548,0.010242337658053087
1.5110851590136218,0.03729532439305516,0.01491553092768111,0.013294021431409462,0.00021257922949966337,0.011070535474446216
1.5111566761685484,0.03854470610167679,0.01348869205133941,0.013163190298163863,0.001368047631568537,0.010336071750838883
1.511228193323475,0.04022460916569971,0.011964879651619414,0.013651672900344249,0.0005254167434309259,0.011202430719987722
1.5112997104784016,0.04246467581659284,0.013090926582311958,0.01442102957265151,0.0006478015206408376,0.01178367213766534
1.5113712276333282,0.04493429586497486,0.01873604013163403,0.016921655013448497,0.0032967196351962893,0.01245664754617263
1.5114427447882548,0.04689231770787431,0.025437892684088005,0.019784155718843215,0.0067619664030315095,0.012993517265551157
1.5115142619431814,0.047454803887083834,0.028391808738572475,0.02007376929597759,0.00954609883740502,0.011733125067070017
