freq,gls,usurper,pdc_unbiased,shape_periodogram,shift_periodogram
1.5,0.031605246424144244,0.02728106902384701,0.022003088454338578,0.03559921204646142,0.004037631404813917
1.5000715171549266,0.028595336453250155,0.02153319472158739,0.01679692217781675,0.029165454199930333,0.002201653545935294
1.5001430343098532,0.024797888546036324,0.01636318313219798,0.011419584810450916,0.023946436352859514,-0.0003223315173247703
1.5002145514647798,0.020789812632417533,0.014671579735800674,0.008796510756732951,0.0197038110494015,-0.0008038002666718747
1.5002860686197064,0.017345459787468324,0.016752747376749002,0.009479677332466734,0.0179939959685421,0.0005642421342059756
1.500357585774633,0.015271945925960987,0.020357047317930616,0.011714688134418397,0.018429303055969872,0.0023782482862511035
1.5004291029295596,0.015165201318802408,0.024354898493793783,0.01415548030345099,0.02166614162444818,0.003140552573399782
1.5005006200844861,0.01716595655706576,0.02827228658668637,0.016954003693511403,0.024562355701514625,0.004374798147196828
1.5005721372394127,0.02086274426290797,0.031329113725125035,0.019187221778694714,0.027536203680199687,0.005067612167545321
1.5006436543943393,0.02544081002802935,0.03400293371257882,0.02137618975240262,0.030591604635252997,0.005685087327720164
1.500715171549266,0.03000884122307953,0.03696657205159934,0.02421994995090846,0.03281350423144283,0.0072592356557241436
1.5007866887041925,0.03391266896856934,0.04003664244650332,0.02666061786266369,0.03859104421637332,0.0069024875707728
1.500858205859119,0.0368882624749449,0.043595181807324544,0.029368029530911475,0.04579275439727195,0.006157311167345953
1.5009297230140457,0.0390355018056212,0.0477377078186606,0.03287087235373193,0.0543969987135615,0.005508889649974156
1.5010012401689723,0.04067274274449097,0.04943955233866612,0.0349635290275476,0.06094769950801337,0.004498698794103194
1.5010727573238989,0.04213722341942038,0.05007685361332306,0.036798409825528795,0.06471236621429555,0.00448768311357381
1.5011442744788255,0.043587855733941964,0.0502756690057448,0.03793328428010061,0.06793956664660933,0.004083726141239502
1.501215791633752,0.044880915226329254,0.050033148352554326,0.03824814004694497,0.07046990262432352,0.003248645250050258
1.5012873087886787,0.045592465454410994,0.050786534256242556,0.03896037083855539,0.07365585992434577,0.0024815772729711414
1.5013588259436053,0.04519857422015515,0.0501285511231614,0.038338310339186395,0.07393436846652919,0.001797392354531101
1.5014303430985318,0.04331902735671992,0.0469140891111691,0.03525172960142179,0.07367330607675879,-0.000869921664454406
1.5015018602534584,0.03989064242203222,0.04019331042976266,0.029380562295107576,0.07043390160422801,-0.004725943825781852
1.501573377408385,0.035207008956161204,0.032493323780038025,0.02275340008029923,0.06597504644571033,-0.008717539887678365
1.5016448945633116,0.029854908046904056,0.02574019720068577,0.01716592382272006,0.05891238011848646,-0.010616021002890559
1.5017164117182382,0.02460404968418353,0.020192497213112667,0.01272729457488559,0.050901739888108505,-0.01106016574466473
1.5017879288731648,0.020274028275387688,0.017198235255327755,0.010756457121333964,0.04389650672260069,-0.009732170970623396
1.5018594460280914,0.01756978332877583,0.015734531071991673,0.009814843547662735,0.0394748976497828,-0.008623029481750153
1.501930963183018,0.016887968997375314,0.01560254854737852,0.009773529530205848,0.0354267902173297,-0.006871040815611103
1.5020024803379446,0.018154766828972088,0.015138630878488612,0.009545857603491862,0.03193066879516349,-0.005530775167449322
1.5020739974928712,0.020807783027131654,0.015639197343925448,0.00997328939183271,0.02964994297129835,-0.004139527405754726
1.5021455146477978,0.023992628107040868,0.017720686094938997,0.01144212206274167,0.02937140213046704,-0.0026977210140444836
1.5022170318027244,0.026898257150269028,0.021316919440771163,0.014028974316248104,0.032372656271085896,-0.0017004131622169207
1.502288548957651,0.029041972437567,0.02503188223682679,0.016679671046279716,0.03659999985326446,-0.0011869012807688912
1.5023600661125776,0.03036170293294545,0.02926351823177021,0.019990738498687276,0.04146339180572656,-0.00036052969949559405
1.5024315832675041,0.031115659296329378,0.02990374873867947,0.02077896981185265,0.04457393655200439,-0.0010264882812100551
1.5025031004224307,0.031680428730509906,0.027610737393623807,0.019519808615351825,0.045509506231126345,-0.00257163068494925
1.5025746175773573,0.032340192227813126,0.024844052367741582,0.018649627815208736,0.04346039486547416,-0.0024480633547167173
1.502646134732284,0.033131945974426154,0.02278414143204313,0.017871043624403338,0.03996017696180922,-0.0016010375343239805
1.5027176518872105,0.033797027787609374,0.02257840397442854,0.01799769758677829,0.038207063088594805,-0.0007127616307723552
1.502789169042137,0.033871437590867574,0.02164068711617683,0.017486670760106647,0.03573414079477864,-7.952321989950628e-05
1.5028606861970637,0.03289397904446062,0.0190275301576904,0.015274482970942199,0.033577316392827704,-0.001113912233236906
1.5029322033519903,0.030638444170610023,0.015820423351011977,0.012011118949132128,0.03163738621489221,-0.0031876678378391877
1.5030037205069169,0.02725242384486997,0.013930815220243127,0.009441040885373031,0.030275134966132176,-0.004893545247021729
1.5030752376618435,0.023245599290448483,0.014759753012906334,0.008606550278537486,0.0296643537301676,-0.005372942218601174
1.50314675481677,0.019358366958489085,0.01708631631880197,0.008953985446160287,0.02928532454258931,-0.0048935997402598545
1.5032182719716967,0.01638051368297583,0.020128710685737405,0.010426555451109277,0.029213325410319603,-0.0035397256146897935
1.5032897891266233,0.01497089818834955,0.023068428661124067,0.012350463029946239,0.029248578075472913,-0.0018278929006667925
1.5033613062815498,0.015499460648454992,0.025453622726517345,0.013981854206916533,0.02881915367388158,-0.00017339072591318898
1.5034328234364764,0.01793079665045714,0.02557429158335482,0.01416864675154985,0.026616297867469437,0.000967014928099916
1.503504340591403,0.021792554285279486,0.024746410448092716,0.013806564009865633,0.02396627191709224,0.0018119025999243598
1.5035758577463296,0.026283745634476982,0.02672830854535221,0.015751292513310384,0.024170559364072926,0.0034678082139676897
1.5036473749012562,0.03053094650102892,0.030732043347042767,0.019003856556851165,0.029287899591812175,0.004129675524482461
1.5037188920561828,0.03389868374654469,0.03606141671891135,0.02304438568669538,0.03804022799505069,0.003895522780019805
1.5037904092111094,0.03619247413189749,0.04302998125025725,0.02836367437687625,0.047483366139423645,0.004507430487301735
1.503861926366036,0.03764566473947448,0.04829960063270007,0.03246316988130233,0.055906317141954445,0.004475141716844642
1.5039334435209626,0.038716510453014726,0.05055496180177867,0.03408384953452373,0.06368372080761803,0.0024970136839750695
1.5040049606758892,0.0398171228344044,0.051723516545478514,0.03557140334761458,0.06922371144477511,0.0013871865678981837
1.5040764778308158,0.041095739566223526,0.05424977344152272,0.037525773851031737,0.07392423369441928,0.001069198478540961
1.5041479949857424,0.04234364882306056,0.05669107403683053,0.038887791087543686,0.07845107296070493,0.0002938901501988393
1.504219512140669,0.043051695709888996,0.05771312111491185,0.03921573232033744,0.08208983242255527,-0.0010216545263805916
1.5042910292955955,0.04260283060723393,0.05419942731600359,0.036347749549566495,0.0829986725732312,-0.004012176204754984
1.5043625464505221,0.04053910287302065,0.045924091321384745,0.030363706364527798,0.07946648478912469,-0.007842390638285155
1.5044340636054487,0.03679439695722014,0.03576498774687254,0.02344001313236871,0.07135790513845984,-0.010484398463555242
1.5045055807603753,0.03178229372791513,0.026888490417911137,0.01698689592080203,0.06294721521868529,-0.012563777723377908
1.504577097915302,0.026296542555493532,0.020895696412432316,0.012446934359831944,0.05505469598604502,-0.013150038655946548
1.5046486150702285,0.021278189004975218,0.018991742279166505,0.011187449324425095,0.0486010366499349,-0.01142576068062077
1.504720132225155,0.017555651134353225,0.01859785396050906,0.011283372248322305,0.04350121461756983,-0.00908410130817566
1.5047916493800817,0.01564621916050789,0.017706474616045874,0.010644076718018416,0.03995454639101727,-0.00809034068805865
1.5048631665350083,0.015656872938766518,0.015934281866659225,0.009217644422453899,0.035760435355408085,-0.007517625514104744
1.5049346836899349,0.017286051262519187,0.01474634328482656,0.008230188330603324,0.03159797812901479,-0.006565035104295589
1.5050062008448615,0.019918755698584013,0.014519107916172109,0.007905738300784866,0.028080087811991925,-0.005302295717467019
1.505077717999788,0.022804926807040774,0.016225770023434297,0.009361654152707073,0.0259250949054491,-0.0030435261380982255
1.5051492351547147,0.025289013466251117,0.019872306007497016,0.011726326065843064,0.02937731149473881,-0.00244515213085977
1.5052207523096413,0.027015644551186973,0.02350915895624756,0.014241445734319206,0.033711138671017174,-0.0021008032727982467
1.5052922694645678,0.028012475009877,0.025460706281712275,0.015961322224474977,0.0352664714281451,-0.0012431071417239798
1.5053637866194944,0.028596359216805502,0.022930160707554187,0.014919408532213189,0.033556401999670145,-0.0014235753530307791
1.505435303774421,0.02915112616185344,0.01821304947137163,0.013309044659559194,0.02877791576225025,-0.0007593200152677995
1.5055068209293476,0.029900153036102176,0.014922176427024111,0.012321918805932341,0.024539086065937705,0.00022608316614188394
1.5055783380842742,0.030782681811496897,0.01444947327718833,0.01250866989698158,0.02257340031352944,0.0012615930262930457
1.5056498552392008,0.03146961942071043,0.01615371955789814,0.013496870470295333,0.023970271527245183,0.001532088479907756
1.5057213723941274,0.03149161794629547,0.016851224387574106,0.013134126432083434,0.02663986621495288,2.7731744708705445e-05
1.505792889549054,0.030427310908792447,0.016480443891669715,0.011855838401314541,0.029544380964901414,-0.0024026523765010546
1.5058644067039806,0.02809465201809536,0.01482334160614109,0.009674998552531539,0.03030868964249906,-0.004698316180003199
1.5059359238589072,0.024683284499830333,0.0117103435561635,0.006168765257997816,0.029499543964413656,-0.007488594357598222
1.5060074410138338,0.020766913938386953,0.009848011419543468,0.003987129865862614,0.02773687596264156,-0.008668207231542935
1.5060789581687604,0.017165658691511196,0.010900090601989217,0.004506773893992003,0.025384746060050645,-0.007162807169909011
1.506150475323687,0.014695536880755058,0.012633260007210717,0.005603202541494299,0.024206065209443732,-0.005658108518125274
1.5062219924786135,0.013907828977730352,0.013868349382682079,0.006474304461408025,0.023015373332025288,-0.0043503928453814955
1.5062935096335401,0.014929925183180436,0.01395051496808621,0.007024475314287043,0.019722531629700866,-0.002402587884871816
1.5063650267884667,0.01746107614733839,0.012808638092739752,0.006681651925523114,0.017114837496059843,-0.001558971297468993
1.5064365439433933,0.020900617081537138,0.013820833369486798,0.008103902228742074,0.01556476789206973,0.00040180558517843856
1.50650806109832,0.024545654709518663,0.017078834979044735,0.01119024144466396,0.014618681868249614,0.003589516789052917
1.5065795782532465,0.027795889555703463,0.022461865782874284,0.015188716512202768,0.018994410237990842,0.005247430745006867
1.506651095408173,0.030315638754338018,0.02945478278519126,0.02020329875354711,0.026004658487210914,0.006656145801196126
1.5067226125630997,0.03210575674634778,0.03666753274934327,0.02516307524326057,0.034238558310739395,0.0074777336704095546
1.5067941297180263,0.03344435853615213,0.040817814858728235,0.02809340030703321,0.041325554329766416,0.006983406590584624
1.5068656468729529,0.03469846610783441,0.04115380802993227,0.028836225363534616,0.04484608423103203,0.006097043773587355
1.5069371640278795,0.03608805388876267,0.04050918786656788,0.029158238083419115,0.046158436851810536,0.005807159223024244
1.507008681182806,0.03753193323000867,0.0404761199800371,0.029645090979329304,0.047760293939059534,0.005537676104073231
1.5070801983377327,0.038657419159163646,0.04072427605042979,0.03000532215028713,0.04894140672952612,0.005340098803626818
1.5071517154926592,0.038950459296790155,0.04010349875014173,0.029635790998015537,0.048494252499880305,0.005205173209593041
1.5072232326475858,0.03795818995272562,0.03603580956216438,0.026170643808596194,0.04729247973430082,0.0026195383215178478
1.5072947498025124,0.035465807062779846,0.030779496756716453,0.02167628316777021,0.0451049486358248,-0.00045460216796441773
1.507366266957439,0.03160750390290827,0.02662776902201201,0.01779655130545853,0.042212589555924336,-0.0026632044932968567
1.5074377841123656,0.02689036393457737,0.023163657308197062,0.014369878001425985,0.039411706412694265,-0.004503992445878826
1.5075093012672922,0.022110982309926926,0.0204241808647142,0.012274203971852665,0.0356192611631289,-0.004710484607285072
1.5075808184222188,0.018158898886019043,0.0186062141363073,0.010838451012952628,0.03349387047250506,-0.005060762673792474
1.5076523355771454,0.015750547010193554,0.01743923868777761,0.009985828883372298,0.031201233918349773,-0.0048135098498337135
1.507723852732072,0.015198153002695225,0.014985329917888299,0.008495434228764531,0.02681906185619276,-0.004215952329808801
1.5077953698869986,0.01632710132796861,0.011644263318268334,0.006411917338543193,0.021093353473788833,-0.003557664248436213
1.5078668870419252,0.01858159605132472,0.009283391962516116,0.00521914285473996,0.015104817692697161,-0.0019841519290406165
1.5079384041968518,0.02125563485920751,0.008021714648847917,0.005152249488431391,0.009293556386700262,0.0005211300934512981
1.5080099213517784,0.023737553869918368,0.007898045315533734,0.0057615299185219465,0.006254013504864131,0.002409527465029398
1.508081438506705,0.025680396681245936,0.009359247507998455,0.007453924502377228,0.004992761489308111,0.00448491613462857
1.5081529556616315,0.027059576075294776,0.01078751593640171,0.008842952470356694,0.004715725298620261,0.005853669548427355
1.5082244728165581,0.028112039179855254,0.010222233536584892,0.008942296206187028,0.003808063764710681,0.006343413687263716
1.5082959899714847,0.029172386947160022,0.008598793203756236,0.008780907310022895,0.0027421026517006684,0.0066690490102756135
1.5083675071264113,0.03045818310099522,0.008837734784078463,0.010026451111954632,0.002510315607324322,0.007889052113591394
1.508439024281338,0.03190386747651281,0.012101349782951598,0.012747040105629182,0.004575064714799205,0.009419279024731088
1.5085105414362645,0.03314377564440417,0.016788845790198213,0.01600259242207933,0.009132308308137639,0.010330089775783594
1.508582058591191,0.03366149064758627,0.02071705105074553,0.0186299276568245,0.013363183593721389,0.01082165822105187
1.5086535757461177,0.03301661123576188,0.020305659547865854,0.017302793300784304,0.01567745916872607,0.008609122468875248
1.5087250929010443,0.031031763736761156,0.016888287133124937,0.013978643770450466,0.01590923429375495,0.005522793042702163
1.5087966100559709,0.02787943173947238,0.012450290858163628,0.009773118861112214,0.013853342098812577,0.002655407191933542
1.5088681272108975,0.024071143965329337,0.008192687932821333,0.005405399448016361,0.012159458151051813,-0.0005167620624801124
1.508939644365824,0.020368522042175177,0.005033000524500626,0.002619426200917792,0.009409347287100994,-0.001802866659540355
1.5090111615207507,0.017622660517009992,0.003476816917197656,0.001280243020763253,0.00796107102317142,-0.0023652689158171454
1.5090826786756772,0.016549556574789192,0.002885364505238549,0.001094148915450876,0.007798817614652487,-0.0024606350186514524
1.5091541958306038,0.01749078347259404,0.0030111445189606382,0.001728275756159572,0.006979015158191342,-0.0015297342817622815
1.5092257129855304,0.02026609634215111,0.003471010041441043,0.002622344403247119,0.004774757370583953,0.00024551810160551205
1.509297230140457,0.024225306810832306,0.006152803342419099,0.005090188490138515,0.003407851060568097,0.0030633438272194935
1.5093687472953836,0.028505184243561566,0.0125169807117054,0.010396256019729185,0.00467014135373072,0.007267705557929947
1.5094402644503102,0.032363241212534366,0.021322368689205905,0.017181792517199104,0.009493077524729863,0.01122931483494967
1.5095117816052368,0.035420479974014,0.030660503154194354,0.023785576506019895,0.016613899074195606,0.014016400149816075
1.5095832987601634,0.03772295943106026,0.03740348742079287,0.028541189697550762,0.022351158359031405,0.015757092854214044
1.50965481591509,0.039632532833370364,0.03926847234258119,0.030196375009199177,0.02528697746261541,0.015949470200940147
1.5097263330700166,0.041605230836871475,0.03545146655242863,0.028415936049993602,0.024479992391615975,0.014705743520796576
1.5097978502249432,0.04392716574129624,0.03001961953360621,0.026087173799228647,0.019284660271183095,0.014905278745975229
1.5098693673798698,0.04649881119729661,0.02711779630133239,0.025125670272120693,0.014011912739354314,0.01636732446038454
1.5099408845347964,0.048782229516577,0.027601749017368813,0.025898717163670308,0.012694981489735746,0.017642215914804055
1.510012401689723,0.04998265464348263,0.03035650627045562,0.027970420605425636,0.013796318568673227,0.019016777450474007
1.5100839188446495,0.04939582665258717,0.03085262953416671,0.02744804663090382,0.015193415395228591,0.017931648012410366
1.5101554359995761,0.046726633743720845,0.029006389893417497,0.024915387052692306,0.015772738999952757,0.015401911550045843
1.5102269531545027,0.04221494386441091,0.026854870632807514,0.022036546886626967,0.015663167716391927,0.012865340718431201
1.5102984703094293,0.0365554045951188,0.025499718160682677,0.019143160662124768,0.016650588318205102,0.009831945242490632
1.510369987464356,0.030705701566729478,0.025431579296525703,0.01712115674686206,0.01862453412167322,0.007145557968706076
1.5104415046192825,0.025671938650474672,0.026274856601562115,0.016152578444133103,0.02084432322210839,0.005296294066911449
1.510513021774209,0.02230380117340663,0.02746799628291482,0.01595046449902194,0.02332708034566847,0.004018971770261507
1.5105845389291357,0.02110478427342222,0.02613234351621953,0.014310671393420193,0.02356627574147086,0.0024410883940788287
1.5106560560840623,0.022087028251984653,0.0222336404899384,0.011927341615445858,0.019040331670667834,0.0022994133501935627
1.5107275732389889,0.02474352062355467,0.015896046713889334,0.008315005741078718,0.011700531915680382,0.002297009003873868
1.5107990903939155,0.028206425428266402,0.011263116927403975,0.006455089330600415,0.004162382817882758,0.003955101318512592
1.510870607548842,0.03156791810921427,0.009381752336906546,0.006924877381908108,-0.0011811799064858017,0.00673514886920091
1.5109421247037687,0.034217944840168574,0.009688409959899339,0.0085255112555674,-0.002714209033057129,0.008848053303043134
1.5110136418586952,0.036025983655989566,0.012476238747612223,0.01161661354179527,-0.0016454007014248873,0.011150032733953957
1.5110851590136218,0.03729532439305516,0.01385291410379445,0.013294021431409462,0.00028080160944805925,0.011805182110020821
1.5111566761685484,0.03854470610167679,0.0126773130830041,0.013163190298163863,0.002069682344558625,0.010898349460626098
1.511228193323475,0.04022460916569971,0.011799065911812382,0.013651672900344249,0.0017309895578478517,0.011486170143304159
1.5112997104784016,0.04246467581659284,0.012483242736431532,0.01442102957265151,0.0018177691030517441,0.012138290011635345
1.5113712276333282,0.04493429586497486,0.01640917480497859,0.016921655013448497,0.0041301082457704434,0.013362101070429955
1.5114427447882548,0.04689231770787431,0.020944779238444972,0.019784155718843215,0.007403000553335792,0.014487276356544272
1.5115142619431814,0.047454803887083834,0.02249749431472783,0.02007376929597759,0.010458535622291893,0.013399259572638818
