freq,gls,usurper,pdc_unbiased,shape_periodogram,shift_periodogram
1.5,0.031605246424144244,0.04577519510478067,0.022003088454338578,-0.006364983513292184,0.022658118372182925
1.5000715171549266,0.028595336453250155,0.037237204361885816,0.01679692217781675,-0.00870505190467034,0.01781332532134211
1.5001430343098532,0.024797888546036324,0.030218509073305883,0.011419584810450916,-0.008539254011787218,0.012462401333659298
1.5002145514647798,0.020789812632417533,0.026751190929396394,0.008796510756732951,-0.007409627901345805,0.009711389084852971
1.5002860686197064,0.017345459787468324,0.028688185393062282,0.009479677332466734,-0.005411195440556241,0.010120115515905343
1.500357585774633,0.015271945925960987,0.03233597625176529,0.011714688134418397,-0.00347384968903033,0.012074879087785638
1.5004291029295596,0.015165201318802408,0.03786315581910817,0.01415548030345099,-0.00037564777457123815,0.014077873954087118
1.5005006200844861,0.01716595655706576,0.04289168486737314,0.016954003693511403,0.0026642774275564295,0.01644340110671289
1.5005721372394127,0.02086274426290797,0.04722557759785039,0.019187221778694714,0.0043989764859523744,0.018423945493669887
1.5006436543943393,0.02544081002802935,0.05174730135581204,0.02137618975240262,0.004151130676955709,0.020626452528600677
1.500715171549266,0.03000884122307953,0.05641620033089159,0.02421994995090846,0.002147474320039275,0.023713159106331226
1.5007866887041925,0.03391266896856934,0.061869566310251596,0.02666061786266369,-0.00020633553618380114,0.026447321526683734
1.500858205859119,0.0368882624749449,0.06844056170565942,0.029368029530911475,-0.0022752153598411618,0.029407637070913876
1.5009297230140457,0.0390355018056212,0.07501778239034437,0.03287087235373193,-0.004091201168490021,0.033122279870172466
1.5010012401689723,0.04067274274449097,0.07796372025338065,0.0349635290275476,-0.005315559568528083,0.03536016964686888
1.5010727573238989,0.04213722341942038,0.07923325125666085,0.036798409825528795,-0.006179912511970788,0.037294336665243406
1.5011442744788255,0.043587855733941964,0.08006333113080205,0.03793328428010061,-0.007414653291549488,0.03858455296654299
1.501215791633752,0.044880915226329254,0.08005568990866371,0.03824814004694497,-0.007352906925961049,0.03888826146117428
1.5012873087886787,0.045592465454410994,0.08140189273320758,0.03896037083855539,-0.007787519197653298,0.03965233189157215
1.5013588259436053,0.04519857422015515,0.0807011445815771,0.038338310339186395,-0.007826916333176946,0.03904121567222613
1.5014303430985318,0.04331902735671992,0.07686658747045003,0.03525172960142179,-0.007656061863778888,0.03595977119248726
1.5015018602534584,0.03989064242203222,0.06846775889459225,0.029380562295107576,-0.008491937863104442,0.030254171923699176
1.501573377408385,0.035207008956161204,0.058795293579643,0.02275340008029923,-0.007985641351341454,0.023619199049971732
1.5016448945633116,0.029854908046904056,0.04954339357097726,0.01716592382272006,-0.006685967987933286,0.017907889136838603
1.5017164117182382,0.02460404968418353,0.04214724310782151,0.01272729457488559,-0.004314551891753373,0.013191147666659395
1.5017879288731648,0.020274028275387688,0.03733130175710819,0.010756457121333964,-0.0015286286228201893,0.010864286411898995
1.5018594460280914,0.01756978332877583,0.03499925110394946,0.009814843547662735,0.0033536220379658706,0.00927617833337751
1.501930963183018,0.016887968997375314,0.03315660251643327,0.009773529530205848,0.0075901066959927046,0.008667013758488766
1.5020024803379446,0.018154766828972088,0.0310050677760631,0.009545857603491862,0.011541979195996874,0.007911427045677457
1.5020739974928712,0.020807783027131654,0.0302069998369066,0.00997328939183271,0.013748242525009113,0.008039218054481644
1.5021455146477978,0.023992628107040868,0.03257187984369839,0.01144212206274167,0.014481607023113371,0.009396678116664484
1.5022170318027244,0.026898257150269028,0.03786107864737126,0.014028974316248104,0.013910860285414564,0.012037070247057541
1.502288548957651,0.029041972437567,0.044663603877183516,0.016679671046279716,0.013088420604785026,0.01477444746604064
1.5023600661125776,0.03036170293294545,0.05184258442034731,0.019990738498687276,0.011543321297690578,0.018263081475334172
1.5024315832675041,0.031115659296329378,0.05438477633357474,0.02077896981185265,0.009275190429736156,0.019348068554505164
1.5025031004224307,0.031680428730509906,0.053003764761074226,0.019519808615351825,0.006582862166850814,0.01846085921698953
1.5025746175773573,0.032340192227813126,0.049353290860232345,0.018649627815208736,0.0027563573229323437,0.018111395876818665
1.502646134732284,0.033131945974426154,0.0457081108582572,0.017871043624403338,0.00031059872708054023,0.017667806117908334
1.5027176518872105,0.033797027787609374,0.04477197009104941,0.01799769758677829,-0.003717153586072834,0.018333657029881188
1.502789169042137,0.033871437590867574,0.04299573062071648,0.017486670760106647,-0.00823963461102789,0.018434327923502428
1.5028606861970637,0.03289397904446062,0.03913781473353918,0.015274482970942199,-0.011471465933036122,0.01667622504019604
1.5029322033519903,0.030638444170610023,0.033956454655729454,0.012011118949132128,-0.012269893986209125,0.013549606447285862
1.5030037205069169,0.02725242384486997,0.030492156300113923,0.009441040885373031,-0.011612113946095294,0.010914373956471792
1.5030752376618435,0.023245599290448483,0.029626897693258252,0.008606550278537486,-0.010732920024734926,0.009969344507519691
1.50314675481677,0.019358366958489085,0.03049448314299022,0.008953985446160287,-0.009708280723551867,0.010176055811991436
1.5032182719716967,0.01638051368297583,0.03331627614681135,0.010426555451109277,-0.007160966318564036,0.0112933087497527
1.5032897891266233,0.01497089818834955,0.035830006285702105,0.012350463029946239,-0.003955113118013673,0.012769487168881342
1.5033613062815498,0.015499460648454992,0.037853982291311955,0.013981854206916533,-0.0011201551122420994,0.014005700876320082
1.5034328234364764,0.01793079665045714,0.03683033057453704,0.01416864675154985,0.0006674730041833082,0.013950989477550867
1.503504340591403,0.021792554285279486,0.03397326939213373,0.013806564009865633,0.0008592527547966679,0.013566452564962986
1.5035758577463296,0.026283745634476982,0.03459120428142959,0.015751292513310384,0.0001430478191213787,0.015589680712045466
1.5036473749012562,0.03053094650102892,0.038674651159032104,0.019003856556851165,7.29916943606499e-05,0.018822253016491937
1.5037188920561828,0.03389868374654469,0.04592860399208948,0.02304438568669538,0.0017627435992929768,0.022599753510209476
1.5037904092111094,0.03619247413189749,0.05559686987084945,0.02836367437687625,0.0032774563085704107,0.027668213277991835
1.503861926366036,0.03764566473947448,0.0633338929797836,0.03246316988130233,0.003971201917307998,0.031638041821826356
1.5039334435209626,0.038716510453014726,0.06775694704402412,0.03408384953452373,0.0045729016650831195,0.03316368481783142
1.5040049606758892,0.0398171228344044,0.07050855220078454,0.03557140334761458,0.003773758493338015,0.03474486931427261
1.5040764778308158,0.041095739566223526,0.07472847763955223,0.037525773851031737,0.0022555612046387293,0.03688489824322295
1.5041479949857424,0.04234364882306056,0.07931400318547636,0.038887791087543686,6.93650936842299e-05,0.03852731823070513
1.504219512140669,0.043051695709888996,0.08186926422341448,0.03921573232033744,-0.003329933658221399,0.03930762845260508
1.5042910292955955,0.04260283060723393,0.07889441680487551,0.036347749549566495,-0.007172212088079218,0.036980899092206816
1.5043625464505221,0.04053910287302065,0.06994545308715022,0.030363706364527798,-0.009740044226175302,0.03139598102597452
1.5044340636054487,0.03679439695722014,0.05774202510386804,0.02344001313236871,-0.011222981962515552,0.024734388635611764
1.5045055807603753,0.03178229372791513,0.04577907771976608,0.01698689592080203,-0.010284356528797061,0.018213680117856436
1.504577097915302,0.026296542555493532,0.03680674249697001,0.012446934359831944,-0.008279797301323081,0.013445619564533988
1.5046486150702285,0.021278189004975218,0.032701949071851685,0.011187449324425095,-0.005105120696490122,0.011771349765556017
1.504720132225155,0.017555651134353225,0.030353764062417188,0.011283372248322305,-0.0012381503548793199,0.011347458753174671
1.5047916493800817,0.01564621916050789,0.028412553480681925,0.010644076718018416,0.0034939217750915488,0.010079110598926399
1.5048631665350083,0.015656872938766518,0.02576727025928832,0.009217644422453899,0.0070721407457570796,0.008185593315420278
1.5049346836899349,0.017286051262519187,0.023580289164880877,0.008230188330603324,0.009178775175798999,0.0069244643494569425
1.5050062008448615,0.019918755698584013,0.0225406430855944,0.007905738300784866,0.00909749908525165,0.006613827032336614
1.505077717999788,0.022804926807040774,0.024312574866321067,0.009361654152707073,0.007933849180044196,0.008212738361735555
1.5051492351547147,0.025289013466251117,0.029697367278836873,0.011726326065843064,0.007692264001695031,0.010588572302231394
1.5052207523096413,0.027015644551186973,0.03568415307774566,0.014241445734319206,0.007904090783791314,0.013052728235743959
1.5052922694645678,0.028012475009877,0.03868415265715121,0.015961322224474977,0.006595323151308312,0.014932619673505905
1.5053637866194944,0.028596359216805502,0.036275421889467106,0.014919408532213189,0.0053599191377471204,0.014065688161824073
1.505435303774421,0.02915112616185344,0.031111737773214417,0.013309044659559194,0.003696473379428494,0.012692881013674717
1.5055068209293476,0.029900153036102176,0.026956573885995566,0.012321918805932341,0.0017526380852188812,0.011975378489066602
1.5055783380842742,0.030782681811496897,0.02618803756321053,0.01250866989698158,0.0003874430421779243,0.012343578289336812
1.5056498552392008,0.03146961942071043,0.028271324793158976,0.013496870470295333,-0.0015270379049296687,0.013579695138375503
1.5057213723941274,0.03149161794629547,0.02951106822606276,0.013134126432083434,-0.004016312048309125,0.013554269800788755
1.505792889549054,0.030427310908792447,0.028423079210193953,0.011855838401314541,-0.005548934126102403,0.012493260058458956
1.5058644067039806,0.02809465201809536,0.025221851636748383,0.009674998552531539,-0.007397555156077508,0.010580311725883865
1.5059359238589072,0.024683284499830333,0.02112938473242228,0.006168765257997816,-0.007421955545364652,0.007109050344390408
1.5060074410138338,0.020766913938386953,0.018120298603933844,0.003987129865862614,-0.0076221946913205925,0.004973997947225423
1.5060789581687604,0.017165658691511196,0.01774585224153713,0.004506773893992003,-0.006723836883640691,0.005368367491399707
1.506150475323687,0.014695536880755058,0.018696380545166116,0.005603202541494299,-0.004549166754533445,0.006163007631554018
1.5062219924786135,0.013907828977730352,0.018614269758455728,0.006474304461408025,-0.0024476705457775346,0.006744200940761346
1.5062935096335401,0.014929925183180436,0.016694750875354557,0.007024475314287043,-0.0019473449422038613,0.007222253538141601
1.5063650267884667,0.01746107614733839,0.01274323310318923,0.006681651925523114,-0.0004068573858246682,0.0066758168494487485
1.5064365439433933,0.020900617081537138,0.01106490252158715,0.008103902228742074,0.00038927213206292393,0.007978382986060394
1.50650806109832,0.024545654709518663,0.012619969873926268,0.01119024144466396,0.00017876904739635744,0.011065062530897053
1.5065795782532465,0.027795889555703463,0.01871590497530114,0.015188716512202768,0.0012895983699513865,0.014878398101520132
1.506651095408173,0.030315638754338018,0.027631467321233356,0.02020329875354711,0.0036187508641174855,0.01953546535736024
1.5067226125630997,0.03210575674634778,0.03715654685822624,0.02516307524326057,0.005500958889021793,0.024198502885891333
1.5067941297180263,0.03344435853615213,0.04250671235580474,0.02809340030703321,0.007061711806772154,0.026893645655660593
1.5068656468729529,0.03469846610783441,0.04392377984547076,0.028836225363534616,0.008360667957635971,0.027456008104557377
1.5069371640278795,0.03608805388876267,0.04350770169727835,0.029158238083419115,0.008855015400519925,0.027709013207632405
1.507008681182806,0.03753193323000867,0.044247418303983925,0.029645090979329304,0.008336071961658432,0.02826097212574107
1.5070801983377327,0.038657419159163646,0.04461463247713372,0.03000532215028713,0.005915211756110486,0.028941962504559295
1.5071517154926592,0.038950459296790155,0.0438986182986899,0.029635790998015537,0.0017535444499164334,0.029133030555898796
1.5072232326475858,0.03795818995272562,0.03932504350444398,0.026170643808596194,-0.0009121135191518822,0.026056392604234112
1.5072947498025124,0.035465807062779846,0.032800678625223775,0.02167628316777021,-0.00363282446473211,0.021967613334686834
1.507366266957439,0.03160750390290827,0.027272251830500478,0.01779655130545853,-0.003926870376198956,0.018162474746198313
1.5074377841123656,0.02689036393457737,0.022926532722820088,0.014369878001425985,-0.003849702155057325,0.014756473819460535
1.5075093012672922,0.022110982309926926,0.02031858285326579,0.012274203971852665,-0.0029748040649701787,0.01256235955120866
1.5075808184222188,0.018158898886019043,0.020410828538523048,0.010838451012952628,-0.001176101275799311,0.0108982364836178
1.5076523355771454,0.015750547010193554,0.020480682390314173,0.009985828883372298,0.0008311346028054721,0.0097840140821281
1.507723852732072,0.015198153002695225,0.018749215054392247,0.008495434228764531,0.002602879733748173,0.008069390254983794
1.5077953698869986,0.01632710132796861,0.015121674898173135,0.006411917338543193,0.0029422796331288123,0.005959155652640408
1.5078668870419252,0.01858159605132472,0.011949315177514205,0.00521914285473996,0.001753960645325998,0.0049365954536954
1.5079384041968518,0.02125563485920751,0.009472120938545355,0.005152249488431391,-0.0006288682278893565,0.005190037386435749
1.5080099213517784,0.023737553869918368,0.009155520156984195,0.0057615299185219465,-0.0024453004924252183,0.006037556348301013
1.508081438506705,0.025680396681245936,0.011479505904125829,0.007453924502377228,-0.003307854415384617,0.007830394923365519
1.5081529556616315,0.027059576075294776,0.013782818174484499,0.008842952470356694,-0.003930356878637207,0.009290398608303205
1.5082244728165581,0.028112039179855254,0.013232074122707417,0.008942296206187028,-0.0039726869343298535,0.009394524501940463
1.5082959899714847,0.029172386947160022,0.011658931313692144,0.008780907310022895,-0.0028311806156642813,0.009081401229079581
1.5083675071264113,0.03045818310099522,0.011638555636861536,0.010026451111954632,-0.0015766913229984438,0.010147333674718435
1.508439024281338,0.03190386747651281,0.01518340033390529,0.012747040105629182,7.829841942549285e-05,0.01262126712253343
1.5085105414362645,0.03314377564440417,0.020586366484903917,0.01600259242207933,0.0010829222872570743,0.01571264509491336
1.508582058591191,0.03366149064758627,0.024896834102997072,0.0186299276568245,-0.0007685077739440189,0.018564569609108683
1.5086535757461177,0.03301661123576188,0.024665763899180123,0.017302793300784304,-0.002465223534709917,0.017477059111385668
1.5087250929010443,0.031031763736761156,0.020002576743945368,0.013978643770450466,-0.0031952743316821975,0.014280958107327426
1.5087966100559709,0.02787943173947238,0.013184418497553013,0.009773118861112214,-0.00408234796893639,0.010232546510270375
1.5088681272108975,0.024071143965329337,0.006910447019633273,0.005405399448016361,-0.005353500696324832,0.006074945557751283
1.508939644365824,0.020368522042175177,0.0023757443287489217,0.002619426200917792,-0.006921082215704032,0.003524539635870178
1.5090111615207507,0.017622660517009992,0.0005593825901877489,0.001280243020763253,-0.007228988212338376,0.002238768421190145
1.5090826786756772,0.016549556574789192,0.00013074195846867208,0.001094148915450876,-0.006751241590642698,0.001990237217698808
1.5091541958306038,0.01749078347259404,-2.0990258883840476e-05,0.001728275756159572,-0.0057280891143739925,0.0024813266781204798
1.5092257129855304,0.02026609634215111,-0.00024953108311731245,0.002622344403247119,-0.00432820763287125,0.0031794475594146324
1.509297230140457,0.024225306810832306,0.0014097364917500738,0.005090188490138515,-0.002692481050267095,0.0054054587845212936
1.5093687472953836,0.028505184243561566,0.007008913131191168,0.010396256019729185,-0.0016769878621743848,0.01052725127575427
1.5094402644503102,0.032363241212534366,0.01643435440523135,0.017181792517199104,-0.0007555737167562197,0.01712779177341043
1.5095117816052368,0.035420479974014,0.027365809364226102,0.023785576506019895,0.0007659169823015727,0.02346788876879161
1.5095832987601634,0.03772295943106026,0.03542979436273807,0.028541189697550762,0.002352713546331241,0.027968007632395122
1.50965481591509,0.039632532833370364,0.03775593384274029,0.030196375009199177,0.0018565534692229146,0.029674771451951718
1.5097263330700166,0.041605230836871475,0.03373061376505838,0.028415936049993602,0.0011534596780133995,0.028004560481676398
1.5097978502249432,0.04392716574129624,0.026347705434422115,0.026087173799228647,0.0012435491750140382,0.025684709124055863
1.5098693673798698,0.04649881119729661,0.020923117603720932,0.025125670272120693,0.0026750245277064287,0.024540027310533327
1.5099408845347964,0.048782229516577,0.019827003325194284,0.025898717163670308,0.0032621343316259353,0.025227454937738394
1.510012401689723,0.04998265464348263,0.021411843295176654,0.027970420605425636,0.0022006333061468917,0.027422747097707728
1.5100839188446495,0.04939582665258717,0.02094537026443601,0.02744804663090382,0.0015221923330456244,0.02699597935082221
1.5101554359995761,0.046726633743720845,0.01806537573717308,0.024915387052692306,0.0018224696676289592,0.024445891099727432
1.5102269531545027,0.04221494386441091,0.01491688300211176,0.022036546886626967,0.0019487992296691517,0.021576057092049235
1.5102984703094293,0.0365554045951188,0.014098176934261165,0.019143160662124768,0.0026214899673299664,0.01861856335641469
1.510369987464356,0.030705701566729478,0.016755971980536438,0.01712115674686206,0.002465115138631771,0.016635753143200663
1.5104415046192825,0.025671938650474672,0.021979709812523843,0.016152578444133103,0.002693587829245516,0.015645271148481812
1.510513021774209,0.02230380117340663,0.027500885813431294,0.01595046449902194,0.0018712764605539418,0.015555256176360895
1.5105845389291357,0.02110478427342222,0.029859458229754027,0.014310671393420193,0.0003143336902362542,0.01413910173875822
1.5106560560840623,0.022087028251984653,0.027827360729538682,0.011927341615445858,-0.001704082870480034,0.012048120791224028
1.5107275732389889,0.02474352062355467,0.022008690919364922,0.008315005741078718,-0.004117793752481363,0.008792384801995729
1.5107990903939155,0.028206425428266402,0.01725632368547801,0.006455089330600415,-0.0063007446962916715,0.007242285355798062
1.510870607548842,0.03156791810921427,0.015497497151707508,0.006924877381908108,-0.007880368928516712,0.00791986761370939
1.5109421247037687,0.034217944840168574,0.017817574876390598,0.0085255112555674,-0.008546996725387048,0.009595532761238092
1.5110136418586952,0.036025983655989566,0.022940402021308023,0.01161661354179527,-0.00833632019334353,0.012630400298506624
1.5110851590136218,0.03729532439305516,0.026004267788502313,0.013294021431409462,-0.007667715098178807,0.01420285886763772
1.5111566761685484,0.03854470610167679,0.025708181656798237,0.013163190298163863,-0.006780518074515903,0.013954102147079863
1.511228193323475,0.04022460916569971,0.024182504593869662,0.013651672900344249,-0.005752418376889154,0.014300149943016269
1.5112997104784016,0.04246467581659284,0.023607728587577193,0.01442102957265151,-0.00481262770417741,0.014936396617319452
1.5113712276333282,0.04493429586497486,0.026646736291383803,0.016921655013448497,-0.0028678802262635007,0.017153397093459536
1.5114427447882548,0.04689231770787431,0.030422759575744186,0.019784155718843215,-0.0022845030423804063,0.01991171973204938
