freq,gls,usurper,pdc_unbiased,shape_periodogram,shift_periodogram
1.5,0.031605246424144244,0.032322809957918926,0.022003088454338578,0.03474309880786786,-0.00022499993169762745
1.5000715171549266,0.028595336453250155,0.02519586737964059,0.01679692217781675,0.027882441771096535,-0.0009074502251963648
1.5001430343098532,0.024797888546036324,0.019328119020493445,0.011419584810450916,0.022606113393101007,-0.002588085259396234
1.5002145514647798,0.020789812632417533,0.0176631062769951,0.008796510756732951,0.018312657874617805,-0.0024790173774816254
1.5002860686197064,0.017345459787468324,0.020603881542387164,0.009479677332466734,0.0168053560639932,-0.0010900279032152792
1.500357585774633,0.015271945925960987,0.025569181151264712,0.011714688134418397,0.017168284368716605,0.0005961471758416567
1.5004291029295596,0.015165201318802408,0.031325248395925806,0.01415548030345099,0.020632064028640273,0.0007819380584268865
1.5005006200844861,0.01716595655706576,0.036537072749480204,0.016954003693511403,0.023370243912299842,0.0016610607326364973
1.5005721372394127,0.02086274426290797,0.04050218426837153,0.019187221778694714,0.026181985355979057,0.0020246055518269193
1.5006436543943393,0.02544081002802935,0.04404080811887312,0.02137618975240262,0.029261007354189524,0.0022068646425974863
1.500715171549266,0.03000884122307953,0.04791852398445571,0.02421994995090846,0.03137666838658187,0.0034615388487930963
1.5007866887041925,0.03391266896856934,0.0526255146695372,0.02666061786266369,0.037068026120654414,0.002446304091297516
1.500858205859119,0.0368882624749449,0.05785789306426656,0.029368029530911475,0.04447219311447736,0.0007308994224022138
1.5009297230140457,0.0390355018056212,0.06335581432514602,0.03287087235373193,0.05368215396031575,-0.0012895704815667577
1.5010012401689723,0.04067274274449097,0.06517609510872831,0.0349635290275476,0.060755090715445985,-0.0033467139779003686
1.5010727573238989,0.04213722341942038,0.06503981728262473,0.036798409825528795,0.06535559879846553,-0.004285102244772695
1.5011442744788255,0.043587855733941964,0.06478367196529329,0.03793328428010061,0.0696375653472152,-0.00564336213443721
1.501215791633752,0.044880915226329254,0.06441720974317691,0.03824814004694497,0.073111772046128,-0.007258522063572473
1.5012873087886787,0.045592465454410994,0.0654912306164514,0.03896037083855539,0.07652015214106347,-0.008502628486147731
1.5013588259436053,0.04519857422015515,0.06474936486648214,0.038338310339186395,0.07667041913049469,-0.009110396021519104
1.5014303430985318,0.04331902735671992,0.06079977646048052,0.03525172960142179,0.07588936899946488,-0.011297924052245695
1.5015018602534584,0.03989064242203222,0.052414919916432864,0.029380562295107576,0.07195430831589944,-0.014127674404940298
1.501573377408385,0.035207008956161204,0.042572840436663,0.02275340008029923,0.06704295667743936,-0.017062193879489686
1.5016448945633116,0.029854908046904056,0.03362300893024889,0.01716592382272006,0.05976032189086022,-0.017831136851367092
1.5017164117182382,0.02460404968418353,0.02613558810416272,0.01272729457488559,0.05157212414114693,-0.01714073406672233
1.5017879288731648,0.020274028275387688,0.02151728603500741,0.010756457121333964,0.04432979246703671,-0.014883903987502507
1.5018594460280914,0.01756978332877583,0.01918882088988294,0.009814843547662735,0.03978121125210465,-0.01321798291767629
1.501930963183018,0.016887968997375314,0.018493246287309223,0.009773529530205848,0.03554708087691813,-0.010964398649255708
1.5020024803379446,0.018154766828972088,0.017497031589018178,0.009545857603491862,0.03205931624493113,-0.009271697082805317
1.5020739974928712,0.020807783027131654,0.018152834875540615,0.00997328939183271,0.029834322806661977,-0.007709736987667153
1.5021455146477978,0.023992628107040868,0.021050040472676033,0.01144212206274167,0.02942711307545403,-0.006252609427863928
1.5022170318027244,0.026898257150269028,0.026204068769409988,0.014028974316248104,0.031979641521585944,-0.005452207729967092
1.502288548957651,0.029041972437567,0.03150297377924291,0.016679671046279716,0.03585667575226421,-0.0053132011526433095
1.5023600661125776,0.03036170293294545,0.03694739060950714,0.019990738498687276,0.04072929369557693,-0.005155244906950934
1.5024315832675041,0.031115659296329378,0.03760508115427676,0.02077896981185265,0.0437675753704617,-0.00613270785366913
1.5025031004224307,0.031680428730509906,0.03438998303861242,0.019519808615351825,0.04474150450410861,-0.007720764558531343
1.5025746175773573,0.032340192227813126,0.03011319884763594,0.018649627815208736,0.04308541579132335,-0.007559155192844986
1.502646134732284,0.033131945974426154,0.027196278039497854,0.017871043624403338,0.04036362152921722,-0.006744397643914648
1.5027176518872105,0.033797027787609374,0.02670790449429718,0.01799769758677829,0.03910774190836533,-0.005958986061387892
1.502789169042137,0.033871437590867574,0.02540366990310848,0.017486670760106647,0.03673452296802607,-0.00510739396509415
1.5028606861970637,0.03289397904446062,0.021877951091724118,0.015274482970942199,0.033994871057597055,-0.005491445083333281
1.5029322033519903,0.030638444170610023,0.017926894926382064,0.012011118949132128,0.03147249986323531,-0.006878147439907833
1.5030037205069169,0.02725242384486997,0.01585012515540643,0.009441040885373031,0.0297443800600604,-0.008109436955946885
1.5030752376618435,0.023245599290448483,0.01753721880288818,0.008606550278537486,0.028949701500177418,-0.008383001056061393
1.50314675481677,0.019358366958489085,0.02141718675496131,0.008953985446160287,0.028619921882535038,-0.007912264423438278
1.5032182719716967,0.01638051368297583,0.026360947465999904,0.010426555451109277,0.028490527148214793,-0.006602136535552132
1.5032897891266233,0.01497089818834955,0.031064316371935657,0.012350463029946239,0.02849644060036519,-0.004984832296833305
1.5033613062815498,0.015499460648454992,0.03468634686978221,0.013981854206916533,0.028086511810176136,-0.003389218017358704
1.5034328234364764,0.01793079665045714,0.03511599707432886,0.01416864675154985,0.02568837205129951,-0.0019368689701520906
1.503504340591403,0.021792554285279486,0.03459746307521089,0.013806564009865633,0.02306741036907499,-0.0008267170259803493
1.5035758577463296,0.026283745634476982,0.037628939025898686,0.015751292513310384,0.023411706322010232,0.0006255149585502766
1.5036473749012562,0.03053094650102892,0.04370549012979701,0.019003856556851165,0.02826093053567985,0.000747676734810031
1.5037188920561828,0.03389868374654469,0.05171092367291377,0.02304438568669538,0.0369314459124811,-0.0005290992210668923
1.5037904092111094,0.03619247413189749,0.0612353027217467,0.02836367437687625,0.046499912911045944,-0.0012121315559937718
1.503861926366036,0.03764566473947448,0.06834668895088504,0.03246316988130233,0.055361645888286626,-0.002541858401019194
1.5039334435209626,0.038716510453014726,0.07174191272595189,0.03408384953452373,0.06355614694481583,-0.005605505897389321
1.5040049606758892,0.0398171228344044,0.07328188092939268,0.03557140334761458,0.0693330014544264,-0.007475490075388577
1.5040764778308158,0.041095739566223526,0.07691478714862103,0.037525773851031737,0.0744456271185575,-0.008592171150872466
1.5041479949857424,0.04234364882306056,0.08062515949864688,0.038887791087543686,0.0794202678953408,-0.01013605202438118
1.504219512140669,0.043051695709888996,0.08229827330722785,0.03921573232033744,0.08344681111220384,-0.012042267048239531
1.5042910292955955,0.04260283060723393,0.07733752523079457,0.036347749549566495,0.08440374780583597,-0.014988981929915652
1.5043625464505221,0.04053910287302065,0.06550709649633867,0.030363706364527798,0.08074965192645256,-0.018066969681252393
1.5044340636054487,0.03679439695722014,0.05054553455899965,0.02344001313236871,0.07241765925619924,-0.0193960378501325
1.5045055807603753,0.03178229372791513,0.03751620693563735,0.01698689592080203,0.06417707450096787,-0.020374554691920174
1.504577097915302,0.026296542555493532,0.028638854529112325,0.012446934359831944,0.05636811266381831,-0.01997287670319883
1.5046486150702285,0.021278189004975218,0.0252814925843613,0.011187449324425095,0.0496931014943099,-0.01742170727015958
1.504720132225155,0.017555651134353225,0.024190649227165146,0.011283372248322305,0.04442645522267321,-0.014492225958474448
1.5047916493800817,0.01564621916050789,0.022936815978542004,0.010644076718018416,0.040377921097921765,-0.012841972271321339
1.5048631665350083,0.015656872938766518,0.02045284471440078,0.009217644422453899,0.03554592250714125,-0.011432005559395535
1.5049346836899349,0.017286051262519187,0.01874996602108392,0.008230188330603324,0.030972675345430783,-0.009792758168890508
1.5050062008448615,0.019918755698584013,0.018734175199035606,0.007905738300784866,0.02711509853591768,-0.007982279811074447
1.505077717999788,0.022804926807040774,0.02123780534446797,0.009361654152707073,0.024520701218671816,-0.005355058587862879
1.5051492351547147,0.025289013466251117,0.02680428666082133,0.011726326065843064,0.028003765827778165,-0.005244470684486654
1.5052207523096413,0.027015644551186973,0.032382470239666165,0.014241445734319206,0.03212717639079186,-0.005352898315250953
1.5052922694645678,0.028012475009877,0.0350601642708431,0.015961322224474977,0.0341209851887096,-0.004980846552564282
1.5053637866194944,0.028596359216805502,0.03138747768424287,0.014919408532213189,0.0326289509982991,-0.005052752980178072
1.505435303774421,0.02915112616185344,0.024019851957948014,0.013309044659559194,0.028139280854221814,-0.003984478818361986
1.5055068209293476,0.029900153036102176,0.018893056269359186,0.012321918805932341,0.024275725915627166,-0.002729609737292039
1.5055783380842742,0.030782681811496897,0.018137109421863088,0.01250866989698158,0.02263587767059952,-0.001686904007172159
1.5056498552392008,0.03146961942071043,0.020798535447299267,0.013496870470295333,0.0243680115569782,-0.0017897953688348902
1.5057213723941274,0.03149161794629547,0.022285840418265767,0.013134126432083434,0.026956260785717688,-0.0034929474868402185
1.505792889549054,0.030427310908792447,0.02174050481185116,0.011855838401314541,0.029352075828227055,-0.005863598395002294
1.5058644067039806,0.02809465201809536,0.019410179326621643,0.009674998552531539,0.029778302110886595,-0.00793071225360744
1.5059359238589072,0.024683284499830333,0.015572267098736322,0.006168765257997816,0.02897846626155446,-0.010451500208436285
1.5060074410138338,0.020766913938386953,0.013244042925940676,0.003987129865862614,0.027163624088787655,-0.01130823014873109
1.5060789581687604,0.017165658691511196,0.014545951548472675,0.004506773893992003,0.02479175020890773,-0.009589626652458924
1.506150475323687,0.014695536880755058,0.017434967697142843,0.005603202541494299,0.023610600440841064,-0.008028541561913462
1.5062219924786135,0.013907828977730352,0.019950599878378376,0.006474304461408025,0.02207550094831391,-0.006466086517600091
1.5062935096335401,0.014929925183180436,0.020385674241113285,0.007024475314287043,0.018416904395028886,-0.004027421897439623
1.5063650267884667,0.01746107614733839,0.019328706465217213,0.006681651925523114,0.01564334206916305,-0.0028187221146661495
1.5064365439433933,0.020900617081537138,0.021192659105127198,0.008103902228742074,0.014151989330434976,-0.0008161330762568975
1.50650806109832,0.024545654709518663,0.02600657422652413,0.01119024144466396,0.01350666203999898,0.002130990908979687
1.5065795782532465,0.027795889555703463,0.034350658594205837,0.015188716512202768,0.018292460882272325,0.002915117042698669
1.506651095408173,0.030315638754338018,0.045046673273466356,0.02020329875354711,0.02553974186537057,0.0032274600511773
1.5067226125630997,0.03210575674634778,0.0556172166454678,0.02516307524326057,0.03403173737511036,0.0028231113215086696
1.5067941297180263,0.03344435853615213,0.06176795636104956,0.02809340030703321,0.04093188031513318,0.0015679842278841008
1.5068656468729529,0.03469846610783441,0.06235305724855597,0.028836225363534616,0.044273946923833185,0.00038930067228079763
1.5069371640278795,0.03608805388876267,0.06117592859677063,0.029158238083419115,0.04547985738384428,9.473219137988902e-06
1.507008681182806,0.03753193323000867,0.060867045989717546,0.029645090979329304,0.047440582866625024,-0.00063915819686373
1.5070801983377327,0.038657419159163646,0.061065166288499104,0.03000532215028713,0.04917397017537701,-0.0012718960146043705
1.5071517154926592,0.038950459296790155,0.059663967992393964,0.029635790998015537,0.04920111723068881,-0.001598442987637716
1.5072232326475858,0.03795818995272562,0.05341530543057264,0.026170643808596194,0.04812034225776911,-0.003938188323851965
1.5072947498025124,0.035465807062779846,0.04549814353966015,0.02167628316777021,0.04584009846763342,-0.006496364678281111
1.507366266957439,0.03160750390290827,0.038853362640319286,0.01779655130545853,0.04326633215113638,-0.008376054053476082
1.5074377841123656,0.02689036393457737,0.033288730094234525,0.014369878001425985,0.041085207468340636,-0.01008507230559242
1.5075093012672922,0.022110982309926926,0.028361399928753684,0.012274203971852665,0.03759430505350042,-0.009964114100973724
1.5075808184222188,0.018158898886019043,0.025211524751300066,0.010838451012952628,0.03572097886212893,-0.010161320649837623
1.5076523355771454,0.015750547010193554,0.023105455896718724,0.009985828883372298,0.03339453899481215,-0.009622489778992266
1.507723852732072,0.015198153002695225,0.019288819119930578,0.008495434228764531,0.02866613994577074,-0.008323416001316487
1.5077953698869986,0.01632710132796861,0.014303190632653312,0.006411917338543193,0.0224999599807614,-0.006747820897520915
1.5078668870419252,0.01858159605132472,0.010642474904186886,0.00521914285473996,0.01628111911344861,-0.00439441449225516
1.5079384041968518,0.02125563485920751,0.008578763589177247,0.005152249488431391,0.010116930928558305,-0.0011231864721727414
1.5080099213517784,0.023737553869918368,0.008559046262746015,0.0057615299185219465,0.006880862903429195,0.00113646687067552
1.508081438506705,0.025680396681245936,0.01084173473795867,0.007453924502377228,0.005814159988738119,0.0031370258718397713
1.5081529556616315,0.027059576075294776,0.012993829295223922,0.008842952470356694,0.00578556834194141,0.004321896789935764
1.5082244728165581,0.028112039179855254,0.012251701124536569,0.008942296206187028,0.004827496045880082,0.004922613265250806
1.5082959899714847,0.029172386947160022,0.009845272289082347,0.008780907310022895,0.0038459752477185737,0.005316467646319286
1.5083675071264113,0.03045818310099522,0.009691593000904327,0.010026451111954632,0.0037722084854006723,0.006404910050728432
1.508439024281338,0.03190386747651281,0.014129732971638994,0.012747040105629182,0.006157643474004571,0.007408143510696387
1.5085105414362645,0.03314377564440417,0.02085542535828123,0.01600259242207933,0.010804319590911465,0.007641911842331807
1.508582058591191,0.03366149064758627,0.026387204085328856,0.0186299276568245,0.015230743922498166,0.0074659989437782
1.5086535757461177,0.03301661123576188,0.026175101614378953,0.017302793300784304,0.017228529149477423,0.005269999938946034
1.5087250929010443,0.031031763736761156,0.02156988767107729,0.013978643770450466,0.016967610956621564,0.002611080577543613
1.5087966100559709,0.02787943173947238,0.01557993999065494,0.009773118861112214,0.014735976953154515,0.00027414488716048584
1.5088681272108975,0.024071143965329337,0.010169379439065745,0.005405399448016361,0.01311737973235036,-0.0025296834377661667
1.508939644365824,0.020368522042175177,0.005897265290841413,0.002619426200917792,0.010345090048351201,-0.0033786987018065246
1.5090111615207507,0.017622660517009992,0.0040031699838830506,0.001280243020763253,0.009196941487058151,-0.003886343786690665
1.5090826786756772,0.016549556574789192,0.0034098973103642636,0.001094148915450876,0.009155058185300985,-0.004020398909642614
1.5091541958306038,0.01749078347259404,0.0033859528210300987,0.001728275756159572,0.008069225944098835,-0.0029004481883474695
1.5092257129855304,0.02026609634215111,0.003954360715424967,0.002622344403247119,0.005576909670849175,-0.0008025142573428812
1.509297230140457,0.024225306810832306,0.007809413454942443,0.005090188490138515,0.004231713070626637,0.0020011257323310334
1.5093687472953836,0.028505184243561566,0.01696802435993746,0.010396256019729185,0.005297324433451379,0.005893172052393248
1.5094402644503102,0.032363241212534366,0.029717836337218383,0.017181792517199104,0.009778310562109333,0.009188616833458101
1.5095117816052368,0.035420479974014,0.043847533102720035,0.023785576506019895,0.016625585000862187,0.011056474310440899
1.5095832987601634,0.03772295943106026,0.05438510105004974,0.028541189697550762,0.02191821185795221,0.012208553081915733
1.50965481591509,0.039632532833370364,0.05762696758350744,0.030196375009199177,0.024627762760336826,0.012142056938668079
1.5097263330700166,0.041605230836871475,0.05249624815840659,0.028415936049993602,0.023869977454904354,0.011049986689220165
1.5097978502249432,0.04392716574129624,0.044347495645617796,0.026087173799228647,0.0190439244511001,0.011691035654440912
1.5098693673798698,0.04649881119729661,0.03966764688164444,0.025125670272120693,0.014294858134432264,0.013442914137997133
1.5099408845347964,0.048782229516577,0.03987859447386468,0.025898717163670308,0.013486395393054329,0.0145303138361506
1.510012401689723,0.04998265464348263,0.04311166984523385,0.027970420605425636,0.014879071781539514,0.01552461666360254
1.5100839188446495,0.04939582665258717,0.0436543970613799,0.02744804663090382,0.01608358684520657,0.01443474922588289
1.5101554359995761,0.046726633743720845,0.04070853126067457,0.024915387052692306,0.016314869335562494,0.01217600267264604
1.5102269531545027,0.04221494386441091,0.03728853633803154,0.022036546886626967,0.015990611498938014,0.009925573632000419
1.5102984703094293,0.0365554045951188,0.03531258372261877,0.019143160662124768,0.017255625400406663,0.006805573898222904
1.510369987464356,0.030705701566729478,0.035230987351391234,0.01712115674686206,0.0194483958164773,0.00391887545805253
1.5104415046192825,0.025671938650474672,0.03648411272778104,0.016152578444133103,0.021976663931060805,0.0017382550411497418
1.510513021774209,0.02230380117340663,0.038137518781337996,0.01595046449902194,0.024843494558581876,2.0288762943238483e-05
1.5105845389291357,0.02110478427342222,0.036195787498614185,0.014310671393420193,0.025195632623228017,-0.0015511755276209794
1.5106560560840623,0.022087028251984653,0.02986550446057258,0.011927341615445858,0.020669669743551177,-0.001114960464114243
1.5107275732389889,0.02474352062355467,0.020052248721599854,0.008315005741078718,0.013640345684487264,-0.0003621990723904154
1.5107990903939155,0.028206425428266402,0.012494486508869048,0.006455089330600415,0.006363274171015643,0.0019997336058303946
1.510870607548842,0.03156791810921427,0.008872354275307753,0.006924877381908108,0.0011732195469460439,0.00519642051979836
1.5109421247037687,0.034217944840168574,0.009196472169808501,0.0085255112555674,-0.000351091628537413,0.007366604980280526
1.5110136418586952,0.036025983655989566,0.012947591329694778,0.01161661354179527,0.00040258237212273737,0.009562166702102302
1.5110851590136218,0.03729532439305516,0.014978308496065719,0.013294021431409462,0.0020671621934974993,0.0100760967401169
1.5111566761685484,0.03854470610167679,0.01355619539942134,0.013163190298163863,0.0037644919116927304,0.009049996509682273
1.511228193323475,0.04022460916569971,0.011914530606428783,0.013651672900344249,0.0033614465694066006,0.009678775118677128
1.5112997104784016,0.04246467581659284,0.012993545772265842,0.01442102957265151,0.0035175048410143917,0.010242329289258107
1.5113712276333282,0.04493429586497486,0.018717484732215926,0.016921655013448497,0.006171904336460429,0.010915557783212841
1.5114427447882548,0.04689231770787431,0.025553679114540956,0.019784155718843215,0.009715157051481108,0.0114143236915992
1.5115142619431814,0.047454803887083834,0.028683236897848935,0.02007376929597759,0.012579342695310886,0.010112846812635997
