freq,gls,usurper,pdc_unbiased,shape_periodogram,shift_periodogram
1.5,0.031605246424144244,0.03183409627441087,0.022003088454338578,0.040031801267984446,-0.0033927651169552223
1.5000715171549266,0.028595336453250155,0.02518752174370131,0.01679692217781675,0.03305822827798796,-0.0039542762854142335
1.5001430343098532,0.024797888546036324,0.019510871623649013,0.011419584810450916,0.027567873605119336,-0.005467616791601314
1.5002145514647798,0.020789812632417533,0.017732988869884708,0.008796510756732951,0.022953106635376776,-0.005148527111881873
1.5002860686197064,0.017345459787468324,0.020361574536600174,0.009479677332466734,0.021173341406649348,-0.003604564560143253
1.500357585774633,0.015271945925960987,0.02493167810433473,0.011714688134418397,0.021676803865561502,-0.0020053178278589706
1.5004291029295596,0.015165201318802408,0.03025320718865174,0.01415548030345099,0.025858085703552625,-0.0022401239005680695
1.5005006200844861,0.01716595655706576,0.035229054695036253,0.016954003693511403,0.02911688613197897,-0.0016712684849328459
1.5005721372394127,0.02086274426290797,0.0390819805419829,0.019187221778694714,0.03259134656160061,-0.001694012960190396
1.5006436543943393,0.02544081002802935,0.04245370596459021,0.02137618975240262,0.03623141837282459,-0.0018440840044636063
1.500715171549266,0.03000884122307953,0.046001590007952176,0.02421994995090846,0.03866241716842116,-0.0007841832083237218
1.5007866887041925,0.03391266896856934,0.050042716144333796,0.02666061786266369,0.04462167162368425,-0.0019885593668908822
1.500858205859119,0.0368882624749449,0.05456056191787622,0.029368029530911475,0.0522368933296167,-0.003873850014695685
1.5009297230140457,0.0390355018056212,0.05951213583488739,0.03287087235373193,0.06176351417780821,-0.0061365285229983595
1.5010012401689723,0.04067274274449097,0.06116433711847786,0.0349635290275476,0.06935260307306215,-0.008527794960446977
1.5010727573238989,0.04213722341942038,0.06126505612894718,0.036798409825528795,0.07434104399156768,-0.009714176485752476
1.5011442744788255,0.043587855733941964,0.06116675363926818,0.03793328428010061,0.0786448338928342,-0.01111590291353959
1.501215791633752,0.044880915226329254,0.06069467737893768,0.03824814004694497,0.08180003765820389,-0.01257991799782267
1.5012873087886787,0.045592465454410994,0.06160361136978487,0.03896037083855539,0.08531538777417691,-0.013907345035469164
1.5013588259436053,0.04519857422015515,0.060887040497758727,0.038338310339186395,0.08577294363567325,-0.01468263276046203
1.5014303430985318,0.04331902735671992,0.05726088197646177,0.03525172960142179,0.08521953436380997,-0.01697979181226705
1.5015018602534584,0.03989064242203222,0.04953165334023599,0.029380562295107576,0.08127845455392282,-0.019760820914713356
1.501573377408385,0.035207008956161204,0.04047113203938669,0.02275340008029923,0.0760864716176355,-0.02248688039827121
1.5016448945633116,0.029854908046904056,0.03219767839340109,0.01716592382272006,0.06823898641331422,-0.02288004071145103
1.5017164117182382,0.02460404968418353,0.025282616556799253,0.01272729457488559,0.05942277359347254,-0.02177847256010468
1.5017879288731648,0.020274028275387688,0.021158416011200314,0.010756457121333964,0.051664621975941856,-0.019187591041728305
1.5018594460280914,0.01756978332877583,0.01919343441478329,0.009814843547662735,0.04692174287190145,-0.017384254925103135
1.501930963183018,0.016887968997375314,0.018803443783613556,0.009773529530205848,0.04194312898147399,-0.0146980414284923
1.5020024803379446,0.018154766828972088,0.01805617916272264,0.009545857603491862,0.03730804954031711,-0.012356916245335572
1.5020739974928712,0.020807783027131654,0.018664052171307358,0.00997328939183271,0.03395624293714633,-0.010167999021920728
1.5021455146477978,0.023992628107040868,0.021185311797198986,0.01144212206274167,0.03265913864584442,-0.008227955751037797
1.5022170318027244,0.026898257150269028,0.025636731003198233,0.014028974316248104,0.03474983780584398,-0.007199760555598099
1.502288548957651,0.029041972437567,0.030328587588305252,0.016679671046279716,0.0387016305408487,-0.0071339124447449345
1.5023600661125776,0.03036170293294545,0.035337263088891555,0.019990738498687276,0.04395957632960641,-0.007227066951321736
1.5024315832675041,0.031115659296329378,0.03596970288033698,0.02077896981185265,0.04791186797397339,-0.008724748028088442
1.5025031004224307,0.031680428730509906,0.03318206178652195,0.019519808615351825,0.049712831540535435,-0.010766101596274441
1.5025746175773573,0.032340192227813126,0.02953444345459102,0.018649627815208736,0.04854777544628243,-0.010859804228051774
1.502646134732284,0.033131945974426154,0.026886260925225412,0.017871043624403338,0.045473192095822845,-0.00983313471220179
1.5027176518872105,0.033797027787609374,0.02640277294419705,0.01799769758677829,0.04386674196173113,-0.008849140303609693
1.502789169042137,0.033871437590867574,0.02514218711136517,0.017486670760106647,0.04143325524839556,-0.007948666587915158
1.5028606861970637,0.03289397904446062,0.021967523023173147,0.015274482970942199,0.03860143282654695,-0.0082581530091439
1.5029322033519903,0.030638444170610023,0.018319320609875744,0.012011118949132128,0.03623577638959634,-0.009703706073434838
1.5030037205069169,0.02725242384486997,0.016362739053527163,0.009441040885373031,0.03464555982134706,-0.01099075276056511
1.5030752376618435,0.023245599290448483,0.017780566284360685,0.008606550278537486,0.034037034314258495,-0.011358235429674816
1.50314675481677,0.019358366958489085,0.021128829288523335,0.008953985446160287,0.03400577984627674,-0.011049824435679754
1.5032182719716967,0.01638051368297583,0.025383464884613124,0.010426555451109277,0.034347949720689115,-0.010001769331933105
1.5032897891266233,0.01497089818834955,0.02952014015817332,0.012350463029946239,0.03515191382162673,-0.008827211746310133
1.5033613062815498,0.015499460648454992,0.032785317539963534,0.013981854206916533,0.03519749013598405,-0.007483710448673378
1.5034328234364764,0.01793079665045714,0.0331470983751197,0.01416864675154985,0.03258054340419263,-0.005898249930641513
1.503504340591403,0.021792554285279486,0.03247428842042183,0.013806564009865633,0.02941224310410153,-0.004472470265830565
1.5035758577463296,0.026283745634476982,0.03499090947650282,0.015751292513310384,0.029032501233923248,-0.00263406994341018
1.5036473749012562,0.03053094650102892,0.04011228231240815,0.019003856556851165,0.03348415422526859,-0.0023351841364708742
1.5037188920561828,0.03389868374654469,0.04706868658979908,0.02304438568669538,0.0424496122257851,-0.003838923872124335
1.5037904092111094,0.03619247413189749,0.05560037543577719,0.02836367437687625,0.05276455931172739,-0.0050061613721623455
1.503861926366036,0.03764566473947448,0.062023893542656,0.03246316988130233,0.06276580863107499,-0.007027586186644587
1.5039334435209626,0.038716510453014726,0.06507896290806399,0.03408384953452373,0.07230909122625709,-0.010886700931475575
1.5040049606758892,0.0398171228344044,0.06657464074847542,0.03557140334761458,0.07938221707392372,-0.013509367255634777
1.5040764778308158,0.041095739566223526,0.06987838590674561,0.037525773851031737,0.08498320883853137,-0.014934177792402758
1.5041479949857424,0.04234364882306056,0.07312395269462894,0.038887791087543686,0.08989413975132297,-0.01648100385559675
1.504219512140669,0.043051695709888996,0.07451172095713345,0.03921573232033744,0.09352818001714155,-0.018200044163622392
1.5042910292955955,0.04260283060723393,0.06997333258875187,0.036347749549566495,0.0936709076046411,-0.02069661312665422
1.5043625464505221,0.04053910287302065,0.05935964684681162,0.030363706364527798,0.08915850736496622,-0.023258848514079576
1.5044340636054487,0.03679439695722014,0.04602857009208182,0.02344001313236871,0.07990319473484024,-0.02400318181452328
1.5045055807603753,0.03178229372791513,0.034382053982123614,0.01698689592080203,0.07099586487825486,-0.02454113774256127
1.504577097915302,0.026296542555493532,0.02642992765517145,0.012446934359831944,0.06269869886442597,-0.02380719385419842
1.5046486150702285,0.021278189004975218,0.023542556319633878,0.011187449324425095,0.05585071100481348,-0.021115831438747994
1.504720132225155,0.017555651134353225,0.022737008780786192,0.011283372248322305,0.05063647481151661,-0.0181832922882545
1.5047916493800817,0.01564621916050789,0.02172193664791148,0.010644076718018416,0.04661759426123276,-0.01652242243194564
1.5048631665350083,0.015656872938766518,0.019598132398576308,0.009217644422453899,0.04103393779935074,-0.014667505053892901
1.5049346836899349,0.017286051262519187,0.01811445714478887,0.008230188330603324,0.035469443587553,-0.012456065199471322
1.5050062008448615,0.019918755698584013,0.01801785464985075,0.007905738300784866,0.03055734348131051,-0.01004594753053327
1.505077717999788,0.022804926807040774,0.020170582946409752,0.009361654152707073,0.0268527007020734,-0.006802911281685021
1.5051492351547147,0.025289013466251117,0.024965852363895962,0.011726326065843064,0.029597246718146356,-0.0063180770817404764
1.5052207523096413,0.027015644551186973,0.029815962753787926,0.014241445734319206,0.03382148536281257,-0.006514669426885124
1.5052922694645678,0.028012475009877,0.03225303359993812,0.015961322224474977,0.036445890831526155,-0.006504813568663317
1.5053637866194944,0.028596359216805502,0.02901169105218719,0.014919408532213189,0.03624667150750762,-0.007270121255441539
1.505435303774421,0.02915112616185344,0.022620412340401446,0.013309044659559194,0.033331771787744664,-0.007029388213810238
1.5055068209293476,0.029900153036102176,0.01815578873366031,0.012321918805932341,0.030369479647705772,-0.006240125930052759
1.5055783380842742,0.030782681811496897,0.017479975208104584,0.01250866989698158,0.029050496656629683,-0.005363535557929949
1.5056498552392008,0.03146961942071043,0.019762544033909115,0.013496870470295333,0.030841005791185785,-0.005512098138396207
1.5057213723941274,0.03149161794629547,0.020921882113409524,0.013134126432083434,0.03322546153481679,-0.0071180599545769135
1.505792889549054,0.030427310908792447,0.020518868258732392,0.011855838401314541,0.035111693615325214,-0.00922010673628276
1.5058644067039806,0.02809465201809536,0.018473671027532276,0.009674998552531539,0.03479819556880251,-0.01087790636163017
1.5059359238589072,0.024683284499830333,0.01489187829324836,0.006168765257997816,0.033495989880292565,-0.013106849170143233
1.5060074410138338,0.020766913938386953,0.012694959043494766,0.003987129865862614,0.03166844773850678,-0.01393796390332045
1.5060789581687604,0.017165658691511196,0.01387245803467474,0.004506773893992003,0.02977926161320584,-0.012470856759658998
1.506150475323687,0.014695536880755058,0.016416706940633397,0.005603202541494299,0.029435978809917676,-0.011364249233202428
1.5062219924786135,0.013907828977730352,0.01859883466931102,0.006474304461408025,0.028822770816791212,-0.010299167793428576
1.5062935096335401,0.014929925183180436,0.01900364944803633,0.007024475314287043,0.025542766218280884,-0.00804751813253957
1.5063650267884667,0.01746107614733839,0.017893442865236885,0.006681651925523114,0.02250519417155963,-0.006677151412852521
1.5064365439433933,0.020900617081537138,0.01933182268795866,0.008103902228742074,0.020458485825362686,-0.004367937737221499
1.50650806109832,0.024545654709518663,0.023285215690142434,0.01119024144466396,0.01868935036655036,-0.0008150774784359288
1.5065795782532465,0.027795889555703463,0.030220305728172286,0.015188716512202768,0.022611766188260947,0.00039774997690231195
1.506651095408173,0.030315638754338018,0.039409232873322396,0.02020329875354711,0.029553467396759438,0.0008164066431708684
1.5067226125630997,0.03210575674634778,0.04863795993747249,0.02516307524326057,0.03825323217379716,0.00023095609025792298
1.5067941297180263,0.03344435853615213,0.05396277033214573,0.02809340030703321,0.0459823565733217,-0.0015281932519959228
1.5068656468729529,0.03469846610783441,0.05449151603003285,0.028836225363534616,0.05062938147691707,-0.0034424289910103406
1.5069371640278795,0.03608805388876267,0.05353803077451754,0.029158238083419115,0.052962674131215574,-0.004446735882487339
1.507008681182806,0.03753193323000867,0.05335254675836118,0.029645090979329304,0.05554676397589803,-0.005449831097861518
1.5070801983377327,0.038657419159163646,0.05352166390186007,0.03000532215028713,0.057197677380812356,-0.006049485306686857
1.5071517154926592,0.038950459296790155,0.05231665113638421,0.029635790998015537,0.05688532736626281,-0.006189348910122814
1.5072232326475858,0.03795818995272562,0.046841534801356215,0.026170643808596194,0.055240690296385835,-0.008202249570363982
1.5072947498025124,0.035465807062779846,0.03988329603781652,0.02167628316777021,0.05182168686193014,-0.010108227521096493
1.507366266957439,0.03160750390290827,0.03414649397549135,0.01779655130545853,0.04792836118349643,-0.01123732136636377
1.5074377841123656,0.02689036393457737,0.029250065948565353,0.014369878001425985,0.04440819723787998,-0.012189227137972896
1.5075093012672922,0.022110982309926926,0.02497277349721635,0.012274203971852665,0.03994183406311309,-0.011507194833840622
1.5075808184222188,0.018158898886019043,0.022290516423322655,0.010838451012952628,0.037737263027703014,-0.011507280168127715
1.5076523355771454,0.015750547010193554,0.020681785523883882,0.009985828883372298,0.035723395971308886,-0.011122484860085245
1.507723852732072,0.015198153002695225,0.017631287364816235,0.008495434228764531,0.031297153769261565,-0.009955395807373995
1.5077953698869986,0.01632710132796861,0.013498812896721028,0.006411917338543193,0.025106906771744923,-0.008323180881999636
1.5078668870419252,0.01858159605132472,0.010477081867228823,0.00521914285473996,0.018786049905812386,-0.005873715100236651
1.5079384041968518,0.02125563485920751,0.008701543917103975,0.005152249488431391,0.012112365172060059,-0.0022887343076349732
1.5080099213517784,0.023737553869918368,0.00859651652304509,0.0057615299185219465,0.008333864332662899,0.0002831655813506634
1.508081438506705,0.025680396681245936,0.010566264599986917,0.007453924502377228,0.007005284196862279,0.002426448765986964
1.5081529556616315,0.027059576075294776,0.012381540569289268,0.008842952470356694,0.007093136653126992,0.0035428480299296602
1.5082244728165581,0.028112039179855254,0.01159390545706783,0.008942296206187028,0.00648703320948745,0.003956715950760914
1.5082959899714847,0.029172386947160022,0.009417267814085759,0.008780907310022895,0.006095868151491907,0.004034792272830903
1.5083675071264113,0.03045818310099522,0.009383171667130574,0.010026451111954632,0.006673908111879807,0.004763569562975857
1.508439024281338,0.03190386747651281,0.013450862143510565,0.012747040105629182,0.009650405898519926,0.005420767861634011
1.5085105414362645,0.03314377564440417,0.019522403750345356,0.01600259242207933,0.014854162690223245,0.005312061282384528
1.508582058591191,0.03366149064758627,0.024513489455287495,0.0186299276568245,0.01977289004638151,0.004832481873458227
1.5086535757461177,0.03301661123576188,0.02429131041426339,0.017302793300784304,0.02219284729831766,0.0023993174375995406
1.5087250929010443,0.031031763736761156,0.020184950872342865,0.013978643770450466,0.022022330925018218,-0.0002954306323844924
1.5087966100559709,0.02787943173947238,0.014832985547812526,0.009773118861112214,0.019599741052781287,-0.002499928144092203
1.5088681272108975,0.024071143965329337,0.009874856184261472,0.005405399448016361,0.01750785381548998,-0.00502015793074477
1.508939644365824,0.020368522042175177,0.005931292596227584,0.002619426200917792,0.01424277705366328,-0.0055740114122224006
1.5090111615207507,0.017622660517009992,0.004028865188091431,0.001280243020763253,0.012844255062981546,-0.005933489219594577
1.5090826786756772,0.016549556574789192,0.003410913970726788,0.001094148915450876,0.012961686749086026,-0.006153531560013815
1.5091541958306038,0.01749078347259404,0.0035118192073431234,0.001728275756159572,0.011979901821938014,-0.005086415224000894
1.5092257129855304,0.02026609634215111,0.004163287364061015,0.002622344403247119,0.00954467854714511,-0.003008552184874723
1.509297230140457,0.024225306810832306,0.007725474817121534,0.005090188490138515,0.008237064101240024,-0.00022674837866827074
1.5093687472953836,0.028505184243561566,0.015886462491431115,0.010396256019729185,0.009146462775818667,0.0037249442800371974
1.5094402644503102,0.032363241212534366,0.027108002041148917,0.017181792517199104,0.013413169649761636,0.0070867580529994645
1.5095117816052368,0.035420479974014,0.039374548196009676,0.023785576506019895,0.020151908911028117,0.00895035724406103
1.5095832987601634,0.03772295943106026,0.04839184878773191,0.028541189697550762,0.02559447675392451,0.009972868128005625
1.50965481591509,0.039632532833370364,0.05089750695359088,0.030196375009199177,0.02854159074640235,0.009755114922356823
1.5097263330700166,0.041605230836871475,0.04597313473741139,0.028415936049993602,0.02803578285045968,0.008536382446305288
1.5097978502249432,0.04392716574129624,0.038528273299626326,0.026087173799228647,0.023092613912822555,0.009277760216985667
1.5098693673798698,0.04649881119729661,0.03428930032225656,0.025125670272120693,0.01804192962475397,0.011225126732501586
1.5099408845347964,0.048782229516577,0.034537277351417726,0.025898717163670308,0.016927365378831518,0.012481329670169669
1.510012401689723,0.04998265464348263,0.03755877799045711,0.027970420605425636,0.018102191165238674,0.013578911586978883
1.5100839188446495,0.04939582665258717,0.03810264757966122,0.02744804663090382,0.019216896759070727,0.012532910143859953
1.5101554359995761,0.046726633743720845,0.03560356859105085,0.024915387052692306,0.01934280840241943,0.010339391276118838
1.5102269531545027,0.04221494386441091,0.032727342115886855,0.022036546886626967,0.018678770661204304,0.008286534065998963
1.5102984703094293,0.0365554045951188,0.03109499595685709,0.019143160662124768,0.01960850547423801,0.00535259976295174
1.510369987464356,0.030705701566729478,0.031147653990338066,0.01712115674686206,0.0216197776097891,0.002559610804863915
1.5104415046192825,0.025671938650474672,0.032392711989753964,0.016152578444133103,0.024115572991254518,0.0003856248920597309
1.510513021774209,0.02230380117340663,0.03412389030697056,0.01595046449902194,0.027192678951629357,-0.0014629502986104178
1.5105845389291357,0.02110478427342222,0.03267309936478773,0.014310671393420193,0.027540792382281624,-0.0030282661482154962
1.5106560560840623,0.022087028251984653,0.027445510050140776,0.011927341615445858,0.02269569507764609,-0.0023829601967018024
1.5107275732389889,0.02474352062355467,0.019112484662609147,0.008315005741078718,0.0153534787210046,-0.0014056657269553843
1.5107990903939155,0.028206425428266402,0.012763826790508073,0.006455089330600415,0.008004052132236197,0.0010444174243686123
1.510870607548842,0.03156791810921427,0.009790851670083442,0.006924877381908108,0.002736175627068758,0.004311584683625706
1.5109421247037687,0.034217944840168574,0.010113937456143834,0.0085255112555674,0.0015006736019601249,0.006327078173651694
1.5110136418586952,0.036025983655989566,0.013515578528000047,0.01161661354179527,0.002934952390085932,0.008135761480894845
1.5110851590136218,0.03729532439305516,0.015224378036792286,0.013294021431409462,0.0054092290694137185,0.008192421582736772
1.5111566761685484,0.03854470610167679,0.013819048689753002,0.013163190298163863,0.008091074052156753,0.006620107605814473
1.511228193323475,0.04022460916569971,0.012412886596583735,0.013651672900344249,0.008509117438229035,0.006801619447042799
1.5112997104784016,0.04246467581659284,0.013315903139077974,0.01442102957265151,0.009064819586914134,0.007143537856295202
1.5113712276333282,0.04493429586497486,0.018414445306347695,0.016921655013448497,0.01182259931849632,0.0077360866173564954
1.5114427447882548,0.04689231770787431,0.024404209808356506,0.019784155718843215,0.015316984191225066,0.008230761689805086
1.5115142619431814,0.047454803887083834,0.027007621631259755,0.02007376929597759,0.018064634442298312,0.006975169900781027
