freq,gls,usurper,pdc_unbiased,shape_periodogram,shift_periodogram
1.5,0.031605246424144244,0.0275566968587582,0.022003088454338578,0.0068511421915470536,0.021054487288760883
1.5000715171549266,0.028595336453250155,0.0211362458555423,0.01679692217781675,0.004962069759863476,0.01610365398566802
1.5001430343098532,0.024797888546036324,0.017266118324945647,0.011419584810450916,0.005282880613157427,0.010725423869789584
1.5002145514647798,0.020789812632417533,0.01680284205653597,0.008796510756732951,0.0071705349061426445,0.007900031157737124
1.5002860686197064,0.017345459787468324,0.01952604711234115,0.009479677332466734,0.009163213733987517,0.008346205681640642
1.500357585774633,0.015271945925960987,0.02418371077240798,0.011714688134418397,0.011262091618256706,0.01032146449173785
1.5004291029295596,0.015165201318802408,0.029762127572382054,0.01415548030345099,0.014418655612333041,0.012378107612774029
1.5005006200844861,0.01716595655706576,0.03421364178120657,0.016954003693511403,0.01627906398865278,0.01494142016723305
1.5005721372394127,0.02086274426290797,0.037612453264447405,0.019187221778694714,0.017335404340922237,0.017036989003967155
1.5006436543943393,0.02544081002802935,0.0395411370645087,0.02137618975240262,0.018266542196071954,0.019103312764950794
1.500715171549266,0.03000884122307953,0.040802021961971566,0.02421994995090846,0.019375745024921506,0.02179963806221984
1.5007866887041925,0.03391266896856934,0.04282266192981386,0.02666061786266369,0.022120272181078936,0.023905854264648474
1.500858205859119,0.0368882624749449,0.044239516477482886,0.029368029530911475,0.025176887140754594,0.026241549167373878
1.5009297230140457,0.0390355018056212,0.04681501747808599,0.03287087235373193,0.028050862982854922,0.029389770389196834
1.5010012401689723,0.04067274274449097,0.046148713663931945,0.0349635290275476,0.03038796217086264,0.03119937389919091
1.5010727573238989,0.04213722341942038,0.044938909235953596,0.036798409825528795,0.03149240565796455,0.03289566833163136
1.5011442744788255,0.043587855733941964,0.04544854629818358,0.03793328428010061,0.032375266386564905,0.03392188639509265
1.501215791633752,0.044880915226329254,0.046236985246561696,0.03824814004694497,0.03263452228033306,0.03420496602851021
1.5012873087886787,0.045592465454410994,0.04706289728742685,0.03896037083855539,0.032423356015988086,0.0349373911125334
1.5013588259436053,0.04519857422015515,0.04577751132526159,0.038338310339186395,0.03059158882059341,0.034530458805668615
1.5014303430985318,0.04331902735671992,0.043239474542896034,0.03525172960142179,0.029040602518540713,0.03164163182527225
1.5015018602534584,0.03989064242203222,0.03787133507576002,0.029380562295107576,0.029112334601413888,0.025797877018847865
1.501573377408385,0.035207008956161204,0.03273023665242951,0.02275340008029923,0.02954406467787551,0.019161355871123616
1.5016448945633116,0.029854908046904056,0.029815814613129665,0.01716592382272006,0.028424785802266758,0.013738717199004052
1.5017164117182382,0.02460404968418353,0.027300915178172964,0.01272729457488559,0.026194357656124437,0.0095877685825294
1.5017879288731648,0.020274028275387688,0.026148706745483252,0.010756457121333964,0.024426750381800255,0.007835487407423517
1.5018594460280914,0.01756978332877583,0.025920391040050623,0.009814843547662735,0.02454051368292505,0.006886696319441301
1.501930963183018,0.016887968997375314,0.026405011244657238,0.009773529530205848,0.024642996614514766,0.006833705508142336
1.5020024803379446,0.018154766828972088,0.026714757994919784,0.009545857603491862,0.022536896016322264,0.006852969124249353
1.5020739974928712,0.020807783027131654,0.027904617761281673,0.00997328939183271,0.020659215040653576,0.007496446647124024
1.5021455146477978,0.023992628107040868,0.0303860460695384,0.01144212206274167,0.020009377128916917,0.009031373375727715
1.5022170318027244,0.026898257150269028,0.03373774310057241,0.014028974316248104,0.0196568177796666,0.0116423410803346
1.502288548957651,0.029041972437567,0.03731280213418808,0.016679671046279716,0.02030321168945318,0.014200475900544953
1.5023600661125776,0.03036170293294545,0.041177251188796726,0.019990738498687276,0.019960826819467262,0.017529843710385306
1.5024315832675041,0.031115659296329378,0.04154172024157749,0.02077896981185265,0.0197119195902736,0.01834190163738124
1.5025031004224307,0.031680428730509906,0.03919501636634281,0.019519808615351825,0.02005510405223441,0.01705100766782514
1.5025746175773573,0.032340192227813126,0.03616909369691861,0.018649627815208736,0.01848540089416809,0.01636911087865077
1.502646134732284,0.033131945974426154,0.0346974140347057,0.017871043624403338,0.015973406139926684,0.01588798527717988
1.5027176518872105,0.033797027787609374,0.03418582712555977,0.01799769758677829,0.01434587504402425,0.016203260060686817
1.502789169042137,0.033871437590867574,0.03167698794538888,0.017486670760106647,0.011111398000258196,0.016072271566178003
1.5028606861970637,0.03289397904446062,0.02654816945909539,0.015274482970942199,0.005788386116164442,0.014495222735476918
1.5029322033519903,0.030638444170610023,0.0207999826613482,0.012011118949132128,0.0035568756578022633,0.011514212096752232
1.5030037205069169,0.02725242384486997,0.018582948160672474,0.009441040885373031,0.0036648709266543884,0.008949038228539494
1.5030752376618435,0.023245599290448483,0.020948884007085673,0.008606550278537486,0.004502488110553934,0.00802253157601676
1.50314675481677,0.019358366958489085,0.02534665344308598,0.008953985446160287,0.004528326862204128,0.00836458838403362
1.5032182719716967,0.01638051368297583,0.030036551649900673,0.010426555451109277,0.004562869473385506,0.009823110429234653
1.5032897891266233,0.01497089818834955,0.033177876518895956,0.012350463029946239,0.005542561466724628,0.011619700053004516
1.5033613062815498,0.015499460648454992,0.03446816245709385,0.013981854206916533,0.007584330621794473,0.01300200852199726
1.5034328234364764,0.01793079665045714,0.03324347720485209,0.01416864675154985,0.008428611256104179,0.013089135025399446
1.503504340591403,0.021792554285279486,0.030219687750103454,0.013806564009865633,0.00809046206330074,0.012768909906998572
1.5035758577463296,0.026283745634476982,0.028915192607422372,0.015751292513310384,0.008092703182234356,0.014700242518003271
1.5036473749012562,0.03053094650102892,0.03040804493003956,0.019003856556851165,0.009210867472132624,0.017800626476452683
1.5037188920561828,0.03389868374654469,0.03389983333428092,0.02304438568669538,0.014152533223455556,0.021239013753617725
1.5037904092111094,0.03619247413189749,0.03955816764919641,0.02836367437687625,0.0182747836504607,0.026044402994807047
1.503861926366036,0.03764566473947448,0.04456717674443719,0.03246316988130233,0.021730990852995093,0.029716653206652524
1.5039334435209626,0.038716510453014726,0.047288694872754014,0.03408384953452373,0.026051559871581285,0.030826717737360957
1.5040049606758892,0.0398171228344044,0.049554511277635084,0.03557140334761458,0.029249911135370833,0.03193517058565536
1.5040764778308158,0.041095739566223526,0.05518087289879801,0.037525773851031737,0.03223554679323777,0.03353290579848604
1.5041479949857424,0.04234364882306056,0.06045251262843694,0.038887791087543686,0.0354944719914624,0.034510944447568435
1.504219512140669,0.043051695709888996,0.06313852243649207,0.03921573232033744,0.03790779903218917,0.034558804872982914
1.5042910292955955,0.04260283060723393,0.05992242780510201,0.036347749549566495,0.03736419789512457,0.031769681486586925
1.5043625464505221,0.04053910287302065,0.051300787348664265,0.030363706364527798,0.034523683342035434,0.026148496197499718
1.5044340636054487,0.03679439695722014,0.040245050934711174,0.02344001313236871,0.02965044896833968,0.01983138435913432
1.5045055807603753,0.03178229372791513,0.03153535541425844,0.01698689592080203,0.02487536054584628,0.013973700145412922
1.504577097915302,0.026296542555493532,0.027081632848951993,0.012446934359831944,0.021933914291479523,0.009805420881893857
1.5046486150702285,0.021278189004975218,0.027049892462588696,0.011187449324425095,0.0196655175588724,0.008818437223039688
1.504720132225155,0.017555651134353225,0.028076172436834478,0.011283372248322305,0.017415663734678514,0.009175887591176969
1.5047916493800817,0.01564621916050789,0.027996258557770923,0.010644076718018416,0.016165993710790437,0.00868646293221893
1.5048631665350083,0.015656872938766518,0.027019367032912016,0.009217644422453899,0.01414913255964422,0.007504632243196436
1.5049346836899349,0.017286051262519187,0.026563479719133486,0.008230188330603324,0.011603800013489938,0.006820569289066834
1.5050062008448615,0.019918755698584013,0.026579048119517897,0.007905738300784866,0.009498952195725776,0.006743756313180621
1.505077717999788,0.022804926807040774,0.028128990979076767,0.009361654152707073,0.00798556951829956,0.008366299496390343
1.5051492351547147,0.025289013466251117,0.03229017956378373,0.011726326065843064,0.009485511518313748,0.010540107542194938
1.5052207523096413,0.027015644551186973,0.036142675296069036,0.014241445734319206,0.012105173276538478,0.012733020060516789
1.5052922694645678,0.028012475009877,0.03772158687847597,0.015961322224474977,0.012397539097452831,0.014407330115977897
1.5053637866194944,0.028596359216805502,0.0340954682252263,0.014919408532213189,0.011075880539845928,0.013526359980400698
1.505435303774421,0.02915112616185344,0.028044230108500438,0.013309044659559194,0.00690050366847179,0.012413463967417987
1.5055068209293476,0.029900153036102176,0.024770751691989883,0.012321918805932341,0.003093121693196551,0.011876979623499853
1.5055783380842742,0.030782681811496897,0.024756570792334103,0.01250866989698158,0.0001155082103475994,0.012409762916100273
1.5056498552392008,0.03146961942071043,0.02574971463557058,0.013496870470295333,-0.00021228119802759935,0.013429454749269458
1.5057213723941274,0.03149161794629547,0.025760860111928803,0.013134126432083434,-0.0006983971788071359,0.013125897849788458
1.505792889549054,0.030427310908792447,0.024795098460502374,0.011855838401314541,-0.0017071036191241827,0.011974030489232963
1.5058644067039806,0.02809465201809536,0.02299035477752152,0.009674998552531539,-0.002101694119449137,0.009854136567919341
1.5059359238589072,0.024683284499830333,0.020638334530177962,0.006168765257997816,-0.0030386160257756217,0.006481195039587701
1.5060074410138338,0.020766913938386953,0.019609726517187776,0.003987129865862614,-0.004592848164827201,0.0044958391677533465
1.5060789581687604,0.017165658691511196,0.020417458816381098,0.004506773893992003,-0.006061612573687164,0.005183352342868213
1.506150475323687,0.014695536880755058,0.021531111028259057,0.005603202541494299,-0.006163922123496605,0.006284240877041106
1.5062219924786135,0.013907828977730352,0.020892425475549346,0.006474304461408025,-0.0055328991984476186,0.007075745447472981
1.5062935096335401,0.014929925183180436,0.01760031087246386,0.007024475314287043,-0.006515133186717379,0.007736807879006731
1.5063650267884667,0.01746107614733839,0.012822165616886849,0.006681651925523114,-0.008546836617469846,0.007633493175268049
1.5064365439433933,0.020900617081537138,0.009874774665672603,0.008103902228742074,-0.009068980569007975,0.009107010641491609
1.50650806109832,0.024545654709518663,0.009804070689171345,0.01119024144466396,-0.008520236546675965,0.012108224388314319
1.5065795782532465,0.027795889555703463,0.013405326883190297,0.015188716512202768,-0.004668263560684142,0.015629676457949767
1.506651095408173,0.030315638754338018,0.019622766064475418,0.02020329875354711,0.0021959684641757447,0.01980931411438247
1.5067226125630997,0.03210575674634778,0.026960784708294182,0.02516307524326057,0.006901957007398189,0.024187255261990993
1.5067941297180263,0.03344435853615213,0.03189557383846237,0.02809340030703321,0.010571910304535297,0.026670942098375283
1.5068656468729529,0.03469846610783441,0.03405865744279885,0.028836225363534616,0.013162362929759374,0.027107710413391592
1.5069371640278795,0.03608805388876267,0.03573423541336979,0.029158238083419115,0.015318962116454591,0.02717705120229763
1.507008681182806,0.03753193323000867,0.038006629195005505,0.029645090979329304,0.017058190858894588,0.02745875707032962
1.5070801983377327,0.038657419159163646,0.03878903513844764,0.03000532215028713,0.017949889652883952,0.02771313773895625
1.5071517154926592,0.038950459296790155,0.03791177503166165,0.029635790998015537,0.016577296733491766,0.02750535242534674
1.5072232326475858,0.03795818995272562,0.03286906277404192,0.026170643808596194,0.013495058331314022,0.024421063033590592
1.5072947498025124,0.035465807062779846,0.02752993430678166,0.02167628316777021,0.012394056638773942,0.020084577781274114
1.507366266957439,0.03160750390290827,0.025088605460272934,0.01779655130545853,0.012515736482893468,0.016216536945119
1.5074377841123656,0.02689036393457737,0.024723547312249097,0.014369878001425985,0.012041815749653685,0.012867973860938223
1.5075093012672922,0.022110982309926926,0.02463227366223389,0.012274203971852665,0.00990773138653162,0.011035075287351485
1.5075808184222188,0.018158898886019043,0.025242150503930492,0.010838451012952628,0.0087547809476541,0.00974341570422637
1.5076523355771454,0.015750547010193554,0.025130940527469444,0.009985828883372298,0.0065133602803409095,0.009157917017428139
1.507723852732072,0.015198153002695225,0.023092225098052824,0.008495434228764531,0.004344446632950968,0.007930605640431314
1.5077953698869986,0.01632710132796861,0.020299396307504394,0.006411917338543193,0.0014747943955489074,0.0061960520950355945
1.5078668870419252,0.01858159605132472,0.017459673389174656,0.00521914285473996,-0.001301540895741058,0.005335359487882297
1.5079384041968518,0.02125563485920751,0.014996912247240446,0.005152249488431391,-0.0037369861114416583,0.005553122250231672
1.5080099213517784,0.023737553869918368,0.013611237693094103,0.0057615299185219465,-0.004189729715343689,0.00621107725876809
1.508081438506705,0.025680396681245936,0.014268077138314256,0.007453924502377228,-0.003659236033642459,0.00782999955507795
1.5081529556616315,0.027059576075294776,0.01488193742070431,0.008842952470356694,-0.0037151717733722596,0.009216063559830972
1.5082244728165581,0.028112039179855254,0.013636557054483894,0.008942296206187028,-0.004723528640607253,0.00943241283273784
1.5082959899714847,0.029172386947160022,0.011120225385998382,0.008780907310022895,-0.006037612489709434,0.009425507430293734
1.5083675071264113,0.03045818310099522,0.011288465981135195,0.010026451111954632,-0.007313278853420046,0.010811461272849356
1.508439024281338,0.03190386747651281,0.015171304852851192,0.012747040105629182,-0.007669761648678791,0.01355508613053083
1.5085105414362645,0.03314377564440417,0.02116047566974876,0.01600259242207933,-0.006417421889696667,0.01664216329877375
1.508582058591191,0.03366149064758627,0.025078614232952462,0.0186299276568245,-0.006092398065156087,0.019213574331155524
1.5086535757461177,0.03301661123576188,0.024054455347365535,0.017302793300784304,-0.008127859649711962,0.018133180309582532
1.5087250929010443,0.031031763736761156,0.01939399511214336,0.013978643770450466,-0.010349098855434953,0.015091176605848139
1.5087966100559709,0.02787943173947238,0.01469432632043335,0.009773118861112214,-0.010349745809076915,0.010914406626138243
1.5088681272108975,0.024071143965329337,0.011303671624498902,0.005405399448016361,-0.009699659194440977,0.0065005168529402345
1.508939644365824,0.020368522042175177,0.008684127810412376,0.002619426200917792,-0.009097885180917782,0.0036632460234274087
1.5090111615207507,0.017622660517009992,0.006702482853065122,0.001280243020763253,-0.0084486313150412,0.002257393084268329
1.5090826786756772,0.016549556574789192,0.004947976318991671,0.001094148915450876,-0.00866641117984095,0.002097980540732714
1.5091541958306038,0.01749078347259404,0.0022809141603212903,0.001728275756159572,-0.008526656424919617,0.002711484936945788
1.5092257129855304,0.02026609634215111,-0.0004829270023888076,0.002622344403247119,-0.010509208338028554,0.0038308794531069566
1.509297230140457,0.024225306810832306,-0.000326727731535097,0.005090188490138515,-0.012016910283655972,0.00645799525501006
1.5093687472953836,0.028505184243561566,0.004307219316841697,0.010396256019729185,-0.01072012134455087,0.011576553507609832
1.5094402644503102,0.032363241212534366,0.012077886047924957,0.017181792517199104,-0.006696475576415621,0.017845873614010372
1.5095117816052368,0.035420479974014,0.021679654545605914,0.023785576506019895,-0.001131706878289874,0.023755146671480067
1.5095832987601634,0.03772295943106026,0.02873377267853792,0.028541189697550762,0.003824236595345469,0.027900891162137415
1.50965481591509,0.039632532833370364,0.030382246328578125,0.030196375009199177,0.007057378103946514,0.02916861658154519
1.5097263330700166,0.041605230836871475,0.02621013594579809,0.028415936049993602,0.0094952790804811,0.02711653217210423
1.5097978502249432,0.04392716574129624,0.019963495334014758,0.026087173799228647,0.009270951595309778,0.024829434713019224
1.5098693673798698,0.04649881119729661,0.016607447663505564,0.025125670272120693,0.006980192256318919,0.0241409943043844
1.5099408845347964,0.048782229516577,0.016967191748612807,0.025898717163670308,0.0050638775565383775,0.025131944984249848
1.510012401689723,0.04998265464348263,0.01965117256339104,0.027970420605425636,0.004324673876749446,0.027275713892885765
1.5100839188446495,0.04939582665258717,0.02071999726057251,0.02744804663090382,0.004111576607754433,0.026781688294332466
1.5101554359995761,0.046726633743720845,0.018693521790306387,0.024915387052692306,0.0029605965105896927,0.02440026284278587
1.5102269531545027,0.04221494386441091,0.017981602116842816,0.022036546886626967,0.0032082575879091775,0.021512112769223386
1.5102984703094293,0.0365554045951188,0.02018288765623738,0.019143160662124768,0.0037780002552676994,0.018571977217704146
1.510369987464356,0.030705701566729478,0.025400346356497308,0.01712115674686206,0.004942885530736824,0.016427924904445997
1.5104415046192825,0.025671938650474672,0.03208387807261063,0.016152578444133103,0.0071954662702515436,0.01520337601605297
1.510513021774209,0.02230380117340663,0.03762734395586059,0.01595046449902194,0.009802776551915691,0.014698815851202526
1.5105845389291357,0.02110478427342222,0.038816200270647215,0.014310671393420193,0.011316474254570113,0.012893675455432322
1.5106560560840623,0.022087028251984653,0.035162936600219165,0.011927341615445858,0.009637248612119424,0.010722079482059896
1.5107275732389889,0.02474352062355467,0.028056962645558025,0.008315005741078718,0.005289899217296719,0.00764112993326659
1.5107990903939155,0.028206425428266402,0.02136940387649767,0.006455089330600415,0.0004114573422886079,0.006362990105951073
1.510870607548842,0.03156791810921427,0.01737972201594461,0.006924877381908108,-0.0026603646657804253,0.0071880006666529385
1.5109421247037687,0.034217944840168574,0.016458415293171616,0.0085255112555674,-0.003055669210708839,0.008823827209336737
1.5110136418586952,0.036025983655989566,0.01806183949059269,0.01161661354179527,-0.001276882210124344,0.01168624323891494
1.5110851590136218,0.03729532439305516,0.018131517016216014,0.013294021431409462,-0.000580571208908371,0.013270954952977556
1.5111566761685484,0.03854470610167679,0.016007757183031695,0.013163190298163863,-0.00140554067554982,0.013237263788955799
1.511228193323475,0.04022460916569971,0.014930464627424913,0.013651672900344249,-0.0023867511555065893,0.013836893407096344
1.5112997104784016,0.04246467581659284,0.017175213033911348,0.01442102957265151,-0.002957070642811654,0.014667539216786244
1.5113712276333282,0.04493429586497486,0.022480055823150817,0.016921655013448497,-0.003042160543576559,0.017160994682108466
1.5114427447882548,0.04689231770787431,0.02667310754631159,0.019784155718843215,-0.002677635359880522,0.019961389208678695
1.5115142619431814,0.047454803887083834,0.02789184748064855,0.02007376929597759,-0.0019960431926843436,0.02016950792480015
