freq,gls,usurper,pdc_unbiased,shape_periodogram,shift_periodogram
1.5,0.031605246424144244,0.02795695240624723,0.022003088454338578,0.016952475304063873,0.017979419832046248
1.5000715171549266,0.028595336453250155,0.022228630906784123,0.01679692217781675,0.013682373150274235,0.013569042437072843
1.5001430343098532,0.024797888546036324,0.01787051558046242,0.011419584810450916,0.011830592795668282,0.008696091314860637
1.5002145514647798,0.020789812632417533,0.01756258326351293,0.008796510756732951,0.011065938528444405,0.006290317832799175
1.5002860686197064,0.017345459787468324,0.020447075112057286,0.009479677332466734,0.011376492342540503,0.006893605877621327
1.500357585774633,0.015271945925960987,0.025153877742850248,0.011714688134418397,0.013083353979342896,0.008723069703821388
1.5004291029295596,0.015165201318802408,0.029457880151869717,0.01415548030345099,0.0166516910045898,0.010365324801040177
1.5005006200844861,0.01716595655706576,0.033294178855577145,0.016954003693511403,0.02025969987216896,0.012349764162296844
1.5005721372394127,0.02086274426290797,0.036390237555301144,0.019187221778694714,0.022615676714200807,0.014043006439949011
1.5006436543943393,0.02544081002802935,0.03916627465592754,0.02137618975240262,0.023767815874999564,0.01594446114472331
1.500715171549266,0.03000884122307953,0.04206305127967131,0.02421994995090846,0.021600843815300738,0.019178926737454072
1.5007866887041925,0.03391266896856934,0.04473298186140386,0.02666061786266369,0.02014535771019166,0.021870452235795108
1.500858205859119,0.0368882624749449,0.04699423562665934,0.029368029530911475,0.01962603229653657,0.024627800765808665
1.5009297230140457,0.0390355018056212,0.04901342941068679,0.03287087235373193,0.020544743130946685,0.02786408312135046
1.5010012401689723,0.04067274274449097,0.047743713664717594,0.0349635290275476,0.022570185847278643,0.02949041782655649
1.5010727573238989,0.04213722341942038,0.044946624605711874,0.036798409825528795,0.02475458991465394,0.03083186350784309
1.5011442744788255,0.043587855733941964,0.042558976794967826,0.03793328428010061,0.028001849606791394,0.03126757971393626
1.501215791633752,0.044880915226329254,0.041303558062450216,0.03824814004694497,0.03142018664880556,0.03086535367708139
1.5012873087886787,0.045592465454410994,0.042151825953219375,0.03896037083855539,0.036609587780883024,0.030484674106655573
1.5013588259436053,0.04519857422015515,0.04215458609542023,0.038338310339186395,0.03878633662629334,0.029423221339325754
1.5014303430985318,0.04331902735671992,0.04014480345110209,0.03525172960142179,0.03835601669536293,0.026489372455066915
1.5015018602534584,0.03989064242203222,0.035345182677876334,0.029380562295107576,0.03662088335354693,0.021100675130403007
1.501573377408385,0.035207008956161204,0.029472456360439096,0.02275340008029923,0.03450390269190968,0.015053401337062124
1.5016448945633116,0.029854908046904056,0.02457247291750499,0.01716592382272006,0.031808602119978664,0.010146626185678808
1.5017164117182382,0.02460404968418353,0.02009890249020519,0.01272729457488559,0.028580241130929107,0.006477096870497049
1.5017879288731648,0.020274028275387688,0.017726314897120826,0.010756457121333964,0.02529059685843589,0.005235938576938628
1.5018594460280914,0.01756978332877583,0.017217935924498752,0.009814843547662735,0.02442154907073985,0.004496275752415157
1.501930963183018,0.016887968997375314,0.01877975602318235,0.009773529530205848,0.025028250818125257,0.0043290996377695935
1.5020024803379446,0.018154766828972088,0.02064888520685017,0.009545857603491862,0.02486529113340398,0.00414040798542284
1.5020739974928712,0.020807783027131654,0.024165237699858094,0.00997328939183271,0.024942898594197235,0.004542365081422006
1.5021455146477978,0.023992628107040868,0.029157664349749958,0.01144212206274167,0.02436781171176692,0.006099526266209888
1.5022170318027244,0.026898257150269028,0.03504281231466715,0.014028974316248104,0.0216750899308766,0.009192676681308864
1.502288548957651,0.029041972437567,0.03976139555104921,0.016679671046279716,0.0187312657496265,0.01240041614701214
1.5023600661125776,0.03036170293294545,0.043408957601255106,0.019990738498687276,0.016343794658810678,0.016137778217954934
1.5024315832675041,0.031115659296329378,0.04275837390902722,0.02077896981185265,0.013900193202015885,0.017418735716941223
1.5025031004224307,0.031680428730509906,0.03805891585233083,0.019519808615351825,0.011914269493254954,0.016601494803312716
1.5025746175773573,0.032340192227813126,0.03200532429053063,0.018649627815208736,0.009867414157106742,0.016177594171294173
1.502646134732284,0.033131945974426154,0.027235307863360425,0.017871043624403338,0.00687304398266205,0.016041227710748198
1.5027176518872105,0.033797027787609374,0.02513498159527004,0.01799769758677829,0.00733694509379936,0.016068242069871102
1.502789169042137,0.033871437590867574,0.022516763986075817,0.017486670760106647,0.008407933367267204,0.015344825375181935
1.5028606861970637,0.03289397904446062,0.01852952518018409,0.015274482970942199,0.006614025699943435,0.013555816469166551
1.5029322033519903,0.030638444170610023,0.0158627497099852,0.012011118949132128,0.005300959027907477,0.01063851342631309
1.5030037205069169,0.02725242384486997,0.01598396735176789,0.009441040885373031,0.005999835067006741,0.007979038138202887
1.5030752376618435,0.023245599290448483,0.02006358069230876,0.008606550278537486,0.008035170567935854,0.006737704097508022
1.50314675481677,0.019358366958489085,0.024982221365545842,0.008953985446160287,0.00957090742396903,0.006756659678871473
1.5032182719716967,0.01638051368297583,0.029393272237651234,0.010426555451109277,0.010401950596020221,0.008023267746216962
1.5032897891266233,0.01497089818834955,0.032637581161858324,0.012350463029946239,0.012106335701611877,0.009548968622164278
1.5033613062815498,0.015499460648454992,0.034390428227102546,0.013981854206916533,0.01360437372606989,0.010831796702897328
1.5034328234364764,0.01793079665045714,0.03353565247509294,0.01416864675154985,0.0128729139346615,0.011167241562138904
1.503504340591403,0.021792554285279486,0.032783731195755006,0.013806564009865633,0.01100672854276043,0.011202791572125689
1.5035758577463296,0.026283745634476982,0.03538618391636806,0.015751292513310384,0.011109535192266227,0.013083431906659936
1.5036473749012562,0.03053094650102892,0.04071275499874295,0.019003856556851165,0.012468657585295848,0.01598110915273626
1.5037188920561828,0.03389868374654469,0.04694919545912079,0.02304438568669538,0.015953021774426295,0.019206590060306186
1.5037904092111094,0.03619247413189749,0.05364041493138824,0.02836367437687625,0.01888301748758027,0.023799896493756162
1.503861926366036,0.03764566473947448,0.05861213110514714,0.03246316988130233,0.02001010367843966,0.027576444538946445
1.5039334435209626,0.038716510453014726,0.060281340489272854,0.03408384953452373,0.021425092053266863,0.02886783251394207
1.5040049606758892,0.0398171228344044,0.0605037476637056,0.03557140334761458,0.023911105008500654,0.029806348984969065
1.5040764778308158,0.041095739566223526,0.06301142175333735,0.037525773851031737,0.02633355238260629,0.03121549517479655
1.5041479949857424,0.04234364882306056,0.06548054875840732,0.038887791087543686,0.02998217427425346,0.03179048406811387
1.504219512140669,0.043051695709888996,0.06592815887576653,0.03921573232033744,0.034097429266052394,0.031256595547210095
1.5042910292955955,0.04260283060723393,0.06039993838209912,0.036347749549566495,0.03398310251947063,0.028471811050027496
1.5043625464505221,0.04053910287302065,0.04951850324770999,0.030363706364527798,0.0315707015334855,0.023114676317174426
1.5044340636054487,0.03679439695722014,0.03688439413608069,0.02344001313236871,0.027866705725473676,0.01710931466126794
1.5045055807603753,0.03178229372791513,0.027109049116042838,0.01698689592080203,0.024771362131096736,0.01144026617151309
1.504577097915302,0.026296542555493532,0.021718913371661628,0.012446934359831944,0.0231348456545302,0.0073400969442861475
1.5046486150702285,0.021278189004975218,0.02094686851302994,0.011187449324425095,0.021950180482325596,0.006355370406032609
1.504720132225155,0.017555651134353225,0.02176045959954497,0.011283372248322305,0.02122397806609481,0.006600895025887203
1.5047916493800817,0.01564621916050789,0.022192523039852037,0.010644076718018416,0.021328622884274468,0.005953639492557115
1.5048631665350083,0.015656872938766518,0.021974609645001045,0.009217644422453899,0.02010224971508724,0.004814451771757273
1.5049346836899349,0.017286051262519187,0.023340871989575553,0.008230188330603324,0.016943029625164408,0.004508586249561065
1.5050062008448615,0.019918755698584013,0.026379335314761266,0.007905738300784866,0.014687552417728601,0.004662469449850108
1.505077717999788,0.022804926807040774,0.031050592249727657,0.009361654152707073,0.012851977484152797,0.006469943150118754
1.5051492351547147,0.025289013466251117,0.037581798739031315,0.011726326065843064,0.013589377714685078,0.008628765031198951
1.5052207523096413,0.027015644551186973,0.042018147997837235,0.014241445734319206,0.014071156500821542,0.01098824158774744
1.5052922694645678,0.028012475009877,0.04261887854021541,0.015961322224474977,0.011527861209717574,0.013201519102119195
1.5053637866194944,0.028596359216805502,0.03751397393288195,0.014919408532213189,0.006683079972994587,0.0131941276174024
1.505435303774421,0.02915112616185344,0.02854238009978777,0.013309044659559194,0.0015178663755893399,0.012698120080291746
1.5055068209293476,0.029900153036102176,0.021876159513081216,0.012321918805932341,-0.002482808894424657,0.012568667948839212
1.5055783380842742,0.030782681811496897,0.019853621481732617,0.01250866989698158,-0.00408014174316603,0.013085090975688392
1.5056498552392008,0.03146961942071043,0.0212893014392361,0.013496870470295333,-0.0017386948278682263,0.013562186375422246
1.5057213723941274,0.03149161794629547,0.021700456393962203,0.013134126432083434,-0.00014966342993631636,0.012875441452751392
1.505792889549054,0.030427310908792447,0.021273375921921536,0.011855838401314541,-0.0009114008787200761,0.01178452661126961
1.5058644067039806,0.02809465201809536,0.019765317513285308,0.009674998552531539,-0.0019982692021329037,0.009878952540487857
1.5059359238589072,0.024683284499830333,0.017158208891949252,0.006168765257997816,-0.0019984305591966758,0.006450183837305975
1.5060074410138338,0.020766913938386953,0.015660018012439825,0.003987129865862614,-0.001465456621470384,0.004205343094598469
1.5060789581687604,0.017165658691511196,0.016892265981216095,0.004506773893992003,-0.0012716857432121997,0.0046730183169501555
1.506150475323687,0.014695536880755058,0.01884034352175204,0.005603202541494299,-0.0006879835073763825,0.005623256627937514
1.5062219924786135,0.013907828977730352,0.02050939436563905,0.006474304461408025,0.0002701039703728833,0.006274914464037562
1.5062935096335401,0.014929925183180436,0.020375845956647813,0.007024475314287043,-0.00018752920573882108,0.006908568995910848
1.5063650267884667,0.01746107614733839,0.01970521910842864,0.006681651925523114,-0.0015854652312636034,0.006865443677524884
1.5064365439433933,0.020900617081537138,0.02227620807568451,0.008103902228742074,-0.0016566981852140217,0.00827117282294398
1.50650806109832,0.024545654709518663,0.027300759877635465,0.01119024144466396,-0.002192615944390086,0.011401344381412184
1.5065795782532465,0.027795889555703463,0.0348670150985793,0.015188716512202768,-0.0011075838312544558,0.015084817683993402
1.506651095408173,0.030315638754338018,0.04348679532576512,0.02020329875354711,0.0008287754622179142,0.019584294463276766
1.5067226125630997,0.03210575674634778,0.051568847895378946,0.02516307524326057,0.003464693696693604,0.023884543382957212
1.5067941297180263,0.03344435853615213,0.05628046464894383,0.02809340030703321,0.005626167685805519,0.02629950437316827
1.5068656468729529,0.03469846610783441,0.05574236662506746,0.028836225363534616,0.007823192941047127,0.026567792939538818
1.5069371640278795,0.03608805388876267,0.05371463407679857,0.029158238083419115,0.00908072030119437,0.026620523902646992
1.507008681182806,0.03753193323000867,0.052707146894790245,0.029645090979329304,0.009963366719926025,0.026912713765321197
1.5070801983377327,0.038657419159163646,0.05200465080866998,0.03000532215028713,0.011959478564848533,0.026848967993463296
1.5071517154926592,0.038950459296790155,0.04968084847669152,0.029635790998015537,0.013252393129949299,0.02621796965281969
1.5072232326475858,0.03795818995272562,0.04363653822272102,0.026170643808596194,0.011937264283084247,0.02310239345886176
1.5072947498025124,0.035465807062779846,0.037142549900886744,0.02167628316777021,0.01098733571808345,0.018904281082031824
1.507366266957439,0.03160750390290827,0.03246357399304646,0.01779655130545853,0.01111249155591236,0.015083286726483744
1.5074377841123656,0.02689036393457737,0.028888794258084438,0.014369878001425985,0.011202571915099737,0.011712860191585524
1.5075093012672922,0.022110982309926926,0.02538695148224662,0.012274203971852665,0.010915260375499333,0.009723142413015542
1.5075808184222188,0.018158898886019043,0.022868909373546884,0.010838451012952628,0.011075269956119353,0.00828547466933837
1.5076523355771454,0.015750547010193554,0.021458319307885908,0.009985828883372298,0.010703598310514473,0.007529208843716218
1.507723852732072,0.015198153002695225,0.01902430535154089,0.008495434228764531,0.009107703542501037,0.006404961427658369
1.5077953698869986,0.01632710132796861,0.015577315287310198,0.006411917338543193,0.006473207322682445,0.004917743908376677
1.5078668870419252,0.01858159605132472,0.014093935514603941,0.00521914285473996,0.0037616827504857405,0.004317847492459521
1.5079384041968518,0.02125563485920751,0.013759326095718599,0.005152249488431391,0.00037392070619041433,0.004960351750523852
1.5080099213517784,0.023737553869918368,0.014520993200174529,0.0057615299185219465,-0.0028927284668023956,0.006238835304895653
1.508081438506705,0.025680396681245936,0.01644376042784841,0.007453924502377228,-0.005773774499798197,0.008495981747351113
1.5081529556616315,0.027059576075294776,0.017287680419149735,0.008842952470356694,-0.008181781608695655,0.010357656728163259
1.5082244728165581,0.028112039179855254,0.01603042876432769,0.008942296206187028,-0.010672396196045503,0.01097547982423122
1.5082959899714847,0.029172386947160022,0.01354530460996259,0.008780907310022895,-0.01120641500703058,0.010929304554151328
1.5083675071264113,0.03045818310099522,0.013009538297391248,0.010026451111954632,-0.008874300977223911,0.011659776470048698
1.508439024281338,0.03190386747651281,0.016685253755397828,0.012747040105629182,-0.006112542629257008,0.01374295489723638
1.5085105414362645,0.03314377564440417,0.022463217356726434,0.01600259242207933,-0.0019349434004134823,0.01605358356147568
1.508582058591191,0.03366149064758627,0.026473292513839956,0.0186299276568245,0.0007360944920056297,0.018064967536935234
1.5086535757461177,0.03301661123576188,0.025555395571257435,0.017302793300784304,-0.00022204312204926325,0.016967240065631616
1.5087250929010443,0.031031763736761156,0.02107914858848614,0.013978643770450466,-0.0027038814605073254,0.014234996632950787
1.5087966100559709,0.02787943173947238,0.015922260232597078,0.009773118861112214,-0.005156486883414892,0.010634926330872652
1.5088681272108975,0.024071143965329337,0.011654093653707934,0.005405399448016361,-0.006303996955602928,0.006603521084936708
1.508939644365824,0.020368522042175177,0.007784922402374839,0.002619426200917792,-0.00811969661336429,0.004258553176514876
1.5090111615207507,0.017622660517009992,0.005103431735781513,0.001280243020763253,-0.009384856634095854,0.003213347677961004
1.5090826786756772,0.016549556574789192,0.0036843855147032545,0.001094148915450876,-0.008818273442734783,0.0029129336286054315
1.5091541958306038,0.01749078347259404,0.0032975982578763888,0.001728275756159572,-0.0083321479339944,0.0034314683332548933
1.5092257129855304,0.02026609634215111,0.0042664142326402565,0.002622344403247119,-0.00833789675991501,0.004307014420564282
1.509297230140457,0.024225306810832306,0.009416586729319108,0.005090188490138515,-0.008970875737289895,0.006852708988087725
1.5093687472953836,0.028505184243561566,0.01972270684706617,0.010396256019729185,-0.007755127996609095,0.011787456960468965
1.5094402644503102,0.032363241212534366,0.03271520499596618,0.017181792517199104,-0.006217414375015198,0.01810159636821049
1.5095117816052368,0.035420479974014,0.045975580901421835,0.023785576506019895,-0.004931779386450543,0.024290740901069842
1.5095832987601634,0.03772295943106026,0.05448566046784686,0.028541189697550762,-0.004027564027446586,0.02875239450869846
1.50965481591509,0.039632532833370364,0.05641173073599649,0.030196375009199177,-0.005089284752743803,0.030592737610418266
1.5097263330700166,0.041605230836871475,0.050873559855870915,0.028415936049993602,-0.006169115422049676,0.029077211008933967
1.5097978502249432,0.04392716574129624,0.04221232298189905,0.026087173799228647,-0.006660677896270507,0.026902656539776314
1.5098693673798698,0.04649881119729661,0.0367710033346189,0.025125670272120693,-0.00739454611003869,0.026115768654476082
1.5099408845347964,0.048782229516577,0.035991977644363786,0.025898717163670308,-0.003325236507230524,0.026021607089506245
1.510012401689723,0.04998265464348263,0.03800067775690501,0.027970420605425636,0.002426648153053994,0.026846815948126636
1.5100839188446495,0.04939582665258717,0.03825600739668883,0.02744804663090382,0.0058007885500128056,0.025631867893541757
1.5101554359995761,0.046726633743720845,0.036404308262840815,0.024915387052692306,0.005529307170666834,0.023211405278564468
1.5102269531545027,0.04221494386441091,0.03497003390730752,0.022036546886626967,0.004851237335789307,0.020537310833351356
1.5102984703094293,0.0365554045951188,0.03523640332967323,0.019143160662124768,0.00464138770700039,0.01775134642319311
1.510369987464356,0.030705701566729478,0.03672374297441943,0.01712115674686206,0.005736393928674974,0.015545161049204984
1.5104415046192825,0.025671938650474672,0.03791545589503982,0.016152578444133103,0.007456009788614029,0.014238785342321961
1.510513021774209,0.02230380117340663,0.03819712704199749,0.01595046449902194,0.009544337418636821,0.013605047377109276
1.5105845389291357,0.02110478427342222,0.03498231925901884,0.014310671393420193,0.009811794599440446,0.01194537873112114
1.5106560560840623,0.022087028251984653,0.027917811788223133,0.011927341615445858,0.008444770064336339,0.00989989537055592
1.5107275732389889,0.02474352062355467,0.01834002672415877,0.008315005741078718,0.00357604428225817,0.007384215419669268
1.5107990903939155,0.028206425428266402,0.011398254810863215,0.006455089330600415,-0.0009743358099494067,0.006516173408008329
1.510870607548842,0.03156791810921427,0.008016954882798967,0.006924877381908108,-0.005842115986873419,0.00799290398723643
1.5109421247037687,0.034217944840168574,0.007485183064443827,0.0085255112555674,-0.008539895859568212,0.010122087679641168
1.5110136418586952,0.036025983655989566,0.009486383397084953,0.01161661354179527,-0.010221578262615789,0.013496464837914087
1.5110851590136218,0.03729532439305516,0.010293100701796067,0.013294021431409462,-0.011217324468622123,0.015344991633656494
1.5111566761685484,0.03854470610167679,0.008811356382749673,0.013163190298163863,-0.010974366013144325,0.01516625250559001
1.511228193323475,0.04022460916569971,0.007550910794360915,0.013651672900344249,-0.008939676597775476,0.01521854567236654
1.5112997104784016,0.04246467581659284,0.009116882842737251,0.01442102957265151,-0.006985179630018699,0.015562336066924675
1.5113712276333282,0.04493429586497486,0.014732098676713589,0.016921655013448497,-0.002350577642631989,0.01703918997044873
1.5114427447882548,0.04689231770787431,0.020403698279489492,0.019784155718843215,0.002621298568933811,0.01880005033025437
1.5115142619431814,0.047454803887083834,0.022667758173718144,0.02007376929597759,0.006701820128617654,0.018231328483603294
