freq,gls,usurper,pdc_unbiased,shape_periodogram,shift_periodogram
1.5,0.031605246424144244,0.03331339017047056,0.022003088454338578,0.051831743754523964,-0.025125599965123202
1.5000715171549266,0.028595336453250155,0.02665476510885795,0.01679692217781675,0.043975151277593626,-0.022528300013240726
1.5001430343098532,0.024797888546036324,0.020889321302860933,0.011419584810450916,0.03767944840281679,-0.021231841074916033
1.5002145514647798,0.020789812632417533,0.01894984920186523,0.008796510756732951,0.03212201100389721,-0.018708067526171483
1.5002860686197064,0.017345459787468324,0.02139281703315845,0.009479677332466734,0.029586758543570197,-0.016335550271420307
1.500357585774633,0.015271945925960987,0.025776087749695326,0.011714688134418397,0.029241858966335414,-0.014620647166837761
1.5004291029295596,0.015165201318802408,0.030992401703001583,0.01415548030345099,0.03368254122518721,-0.016412324667569794
1.5005006200844861,0.01716595655706576,0.035794756256408926,0.016954003693511403,0.03633642798644256,-0.016612239390161078
1.5005721372394127,0.02086274426290797,0.0394478825433286,0.019187221778694714,0.03826424951101326,-0.016627119501456133
1.5006436543943393,0.02544081002802935,0.04266895274633808,0.02137618975240262,0.04016422801665013,-0.01664946785895577
1.500715171549266,0.03000884122307953,0.046205320683318084,0.02421994995090846,0.041856034857416784,-0.016087199396588217
1.5007866887041925,0.03391266896856934,0.05039508393232334,0.02666061786266369,0.04823136045810905,-0.0193528996948376
1.500858205859119,0.0368882624749449,0.05520807987964613,0.029368029530911475,0.05748219486540581,-0.024638042407967777
1.5009297230140457,0.0390355018056212,0.06060693502293065,0.03287087235373193,0.06982961684673418,-0.031772888436348276
1.5010012401689723,0.04067274274449097,0.0628095104166727,0.0349635290275476,0.08109620387899398,-0.039012417346132505
1.5010727573238989,0.04213722341942038,0.06338552543063324,0.036798409825528795,0.08934133834766507,-0.044120137780628566
1.5011442744788255,0.043587855733941964,0.06364456695252763,0.03793328428010061,0.09667033666030783,-0.04898954761918268
1.501215791633752,0.044880915226329254,0.06335752805130783,0.03824814004694497,0.10189992538068647,-0.05279041521491821
1.5012873087886787,0.045592465454410994,0.06434289765334489,0.03896037083855539,0.10668478310406046,-0.05599441779842626
1.5013588259436053,0.04519857422015515,0.06371750383397584,0.038338310339186395,0.10837907986205489,-0.05769949469689364
1.5014303430985318,0.04331902735671992,0.060164772541617,0.03525172960142179,0.10743420228321887,-0.05898580003270448
1.5015018602534584,0.03989064242203222,0.05249539269897371,0.029380562295107576,0.10252774350092743,-0.059046366138654646
1.501573377408385,0.035207008956161204,0.043410811322266186,0.02275340008029923,0.09579452151617379,-0.058199331428276095
1.5016448945633116,0.029854908046904056,0.035045792915787584,0.01716592382272006,0.08660771238356509,-0.054803120505530614
1.5017164117182382,0.02460404968418353,0.027974319742623294,0.01272729457488559,0.0766697493779531,-0.05009469870350714
1.5017879288731648,0.020274028275387688,0.02364835115255278,0.010756457121333964,0.06746533605138197,-0.044351611960962385
1.5018594460280914,0.01756978332877583,0.02145437095491145,0.009814843547662735,0.061256440063433434,-0.040229402541670574
1.501930963183018,0.016887968997375314,0.020625789767245394,0.009773529530205848,0.05330435153301243,-0.03419711044067032
1.5020024803379446,0.018154766828972088,0.019398019101900317,0.009545857603491862,0.04513193678303696,-0.028121731971210127
1.5020739974928712,0.020807783027131654,0.019539953523499482,0.00997328939183271,0.037878026072700556,-0.02232284911639772
1.5021455146477978,0.023992628107040868,0.021762950760150078,0.01144212206274167,0.03412254211059312,-0.018510738833477022
1.5022170318027244,0.026898257150269028,0.026176653748323644,0.014028974316248104,0.03568643755603505,-0.01801925274459048
1.502288548957651,0.029041972437567,0.031075062945831688,0.016679671046279716,0.04087907100551712,-0.02024773688529232
1.5023600661125776,0.03036170293294545,0.03648176524814825,0.019990738498687276,0.04884894185456975,-0.024162573164403824
1.5024315832675041,0.031115659296329378,0.03766816089898795,0.02077896981185265,0.0570343321485978,-0.029885715613944513
1.5025031004224307,0.031680428730509906,0.03536229899042753,0.019519808615351825,0.06216976859724066,-0.03461897224098696
1.5025746175773573,0.032340192227813126,0.03201906536502958,0.018649627815208736,0.06339033323659357,-0.03611535319021039
1.502646134732284,0.033131945974426154,0.029389394636061158,0.017871043624403338,0.06130711130354413,-0.03503325251982665
1.5027176518872105,0.033797027787609374,0.028825537986922195,0.01799769758677829,0.05991442590900816,-0.03388929139550709
1.502789169042137,0.033871437590867574,0.027471828409382653,0.017486670760106647,0.05767671242218053,-0.03251601276588972
1.5028606861970637,0.03289397904446062,0.024253939564972102,0.015274482970942199,0.054088486737979835,-0.03121992813940931
1.5029322033519903,0.030638444170610023,0.020617923334714367,0.012011118949132128,0.05087095119315293,-0.03088986614431919
1.5030037205069169,0.02725242384486997,0.018633716837551512,0.009441040885373031,0.04844335898040057,-0.030711054390370963
1.5030752376618435,0.023245599290448483,0.019997856075470295,0.008606550278537486,0.047706793614677535,-0.030692349822582694
1.50314675481677,0.019358366958489085,0.02323018375847603,0.008953985446160287,0.047661963848313095,-0.03043250316140023
1.5032182719716967,0.01638051368297583,0.027352375932267116,0.010426555451109277,0.048163175306155465,-0.029857406963083602
1.5032897891266233,0.01497089818834955,0.031320685773543654,0.012350463029946239,0.048620399551335985,-0.02895542453750755
1.5033613062815498,0.015499460648454992,0.03429895502220925,0.013981854206916533,0.04720086878761604,-0.026814237524719245
1.5034328234364764,0.01793079665045714,0.03431630020193051,0.01416864675154985,0.04222776932770891,-0.022906719467232824
1.503504340591403,0.021792554285279486,0.033180263207633225,0.013806564009865633,0.03523502634705634,-0.01782035082692681
1.5035758577463296,0.026283745634476982,0.03528484058707083,0.015751292513310384,0.03122327891389283,-0.01350394501769821
1.5036473749012562,0.03053094650102892,0.04024740457097836,0.019003856556851165,0.03378450625436078,-0.013337611539935047
1.5037188920561828,0.03389868374654469,0.04734063964934246,0.02304438568669538,0.04322216552200346,-0.017891964932585096
1.5037904092111094,0.03619247413189749,0.05635830923816261,0.02836367437687625,0.0570839883023973,-0.02498842927204405
1.503861926366036,0.03764566473947448,0.06352267946605114,0.03246316988130233,0.07270079418253768,-0.034229747159107184
1.5039334435209626,0.038716510453014726,0.067329217651704,0.03408384953452373,0.08715014805223624,-0.04421313883971854
1.5040049606758892,0.0398171228344044,0.0694351629601728,0.03557140334761458,0.09846098099460385,-0.05190010971576062
1.5040764778308158,0.041095739566223526,0.07302178031655718,0.037525773851031737,0.10660344089552296,-0.056867087874392035
1.5041479949857424,0.04234364882306056,0.07627900835585719,0.038887791087543686,0.11193847840027135,-0.06007272946539449
1.504219512140669,0.043051695709888996,0.07750223851284115,0.03921573232033744,0.11434469433582678,-0.06170637528389793
1.5042910292955955,0.04260283060723393,0.07285845105837728,0.036347749549566495,0.1123625105934698,-0.0620533246491747
1.5043625464505221,0.04053910287302065,0.062216913549589296,0.030363706364527798,0.1053039433943541,-0.06053449049223832
1.5044340636054487,0.03679439695722014,0.0488755447325484,0.02344001313236871,0.09406823255328894,-0.056431885836523865
1.5045055807603753,0.03178229372791513,0.037206967304600796,0.01698689592080203,0.08401296640274965,-0.05293644049846197
1.504577097915302,0.026296542555493532,0.029154795423566603,0.012446934359831944,0.07464116401267291,-0.04872835733914855
1.5046486150702285,0.021278189004975218,0.02618925146020105,0.011187449324425095,0.06768460475702917,-0.04423893275059589
1.504720132225155,0.017555651134353225,0.02524710463864651,0.011283372248322305,0.06227027401044391,-0.04004833979087995
1.5047916493800817,0.01564621916050789,0.02400729929334217,0.010644076718018416,0.05745286855081341,-0.03679211931449129
1.5048631665350083,0.015656872938766518,0.021534718120448014,0.009217644422453899,0.049779068823991766,-0.031873312869233554
1.5049346836899349,0.017286051262519187,0.019579231215765512,0.008230188330603324,0.040852471335813496,-0.025719095452409257
1.5050062008448615,0.019918755698584013,0.01902857861421604,0.007905738300784866,0.03254126096525488,-0.01960583511926389
1.505077717999788,0.022804926807040774,0.020793423868488158,0.009361654152707073,0.025927612338807037,-0.013629100997425139
1.5051492351547147,0.025289013466251117,0.02540645551643292,0.011726326065843064,0.027466830932301234,-0.013262949257335257
1.5052207523096413,0.027015644551186973,0.030378701738719066,0.014241445734319206,0.03358703364710289,-0.016283778072609046
1.5052922694645678,0.028012475009877,0.033180170526836986,0.015961322224474977,0.0398306148769954,-0.01991677060371241
1.5053637866194944,0.028596359216805502,0.030550256215003076,0.014919408532213189,0.04428645201722864,-0.023985869145725924
1.505435303774421,0.02915112616185344,0.02481456309253438,0.013309044659559194,0.04642053057472784,-0.02665736484545969
1.5055068209293476,0.029900153036102176,0.020704066042709402,0.012321918805932341,0.04691698675614649,-0.02767690138616223
1.5055783380842742,0.030782681811496897,0.020081533820943374,0.01250866989698158,0.046989454439070426,-0.027610714742357864
1.5056498552392008,0.03146961942071043,0.02222778122380599,0.013496870470295333,0.04861704642595008,-0.028207836571832803
1.5057213723941274,0.03149161794629547,0.023262297280461496,0.013134126432083434,0.05018659898531812,-0.02963888164328546
1.505792889549054,0.030427310908792447,0.022762863569649367,0.011855838401314541,0.04963929857115491,-0.03005276294114652
1.5058644067039806,0.02809465201809536,0.020578706689603446,0.009674998552531539,0.046557630543616446,-0.029123243673533174
1.5059359238589072,0.024683284499830333,0.016869864031267022,0.006168765257997816,0.04334671376822273,-0.02895671648594946
1.5060074410138338,0.020766913938386953,0.014559937954602104,0.003987129865862614,0.040244564622009434,-0.028012828015740107
1.5060789581687604,0.017165658691511196,0.015655684195446506,0.004506773893992003,0.03798166435040659,-0.025953325157074252
1.506150475323687,0.014695536880755058,0.018072468894318974,0.005603202541494299,0.037192827623232755,-0.02464084198087638
1.5062219924786135,0.013907828977730352,0.02007814671050253,0.006474304461408025,0.03601753449907761,-0.023180660111619972
1.5062935096335401,0.014929925183180436,0.02017931833920361,0.007024475314287043,0.031378610091427686,-0.019293993457459357
1.5063650267884667,0.01746107614733839,0.01862064413302506,0.006681651925523114,0.02499300547881028,-0.014659854626189045
1.5064365439433933,0.020900617081537138,0.01959137625256361,0.008103902228742074,0.019601062922156767,-0.009635400529142208
1.50650806109832,0.024545654709518663,0.02322231828917548,0.01119024144466396,0.015855334243533782,-0.004781603820587602
1.5065795782532465,0.027795889555703463,0.03008103117435166,0.015188716512202768,0.01977541736106982,-0.005163140699907828
1.506651095408173,0.030315638754338018,0.03937991595715847,0.02020329875354711,0.028419255562449692,-0.00847613489747248
1.5067226125630997,0.03210575674634778,0.04894579090850451,0.02516307524326057,0.04032417120509166,-0.014307556066299815
1.5067941297180263,0.03344435853615213,0.054835014522604045,0.02809340030703321,0.05211068268544208,-0.02137501670664551
1.5068656468729529,0.03469846610783441,0.055913745645030044,0.028836225363534616,0.06041492448547639,-0.027219708701272043
1.5069371640278795,0.03608805388876267,0.0553339672299858,0.029158238083419115,0.06521380198898764,-0.030669300729763524
1.507008681182806,0.03753193323000867,0.05532612363935941,0.029645090979329304,0.06880608092007731,-0.033092670592574196
1.5070801983377327,0.038657419159163646,0.05540077538836976,0.03000532215028713,0.06922140603047834,-0.03317501884042241
1.5071517154926592,0.038950459296790155,0.05409256502724893,0.029635790998015537,0.06740944325748047,-0.0320331881847031
1.5072232326475858,0.03795818995272562,0.04856334741742632,0.026170643808596194,0.06309026365761074,-0.030994520849306324
1.5072947498025124,0.035465807062779846,0.04151019738851139,0.02167628316777021,0.05621944414039778,-0.02868111803632169
1.507366266957439,0.03160750390290827,0.035667495269353866,0.01779655130545853,0.049627419908786344,-0.026182267502270335
1.5074377841123656,0.02689036393457737,0.030665433215702025,0.014369878001425985,0.044361385130025584,-0.024400126289487283
1.5075093012672922,0.022110982309926926,0.0263833815003094,0.012274203971852665,0.03976890464160762,-0.02226653221607852
1.5075808184222188,0.018158898886019043,0.02370113680669347,0.010838451012952628,0.03798123282785381,-0.021839162495495966
1.5076523355771454,0.015750547010193554,0.022059534688827397,0.009985828883372298,0.03644845443549856,-0.021226880031772543
1.507723852732072,0.015198153002695225,0.018862769468421223,0.008495434228764531,0.03175674057305507,-0.01862583815431574
1.5077953698869986,0.01632710132796861,0.014463450836912821,0.006411917338543193,0.023974068964826126,-0.014060231995568677
1.5078668870419252,0.01858159605132472,0.011092134300199938,0.00521914285473996,0.015806849705734014,-0.008625095999490118
1.5079384041968518,0.02125563485920751,0.009014624640213333,0.005152249488431391,0.007750241613000787,-0.0025436666957531886
1.5080099213517784,0.023737553869918368,0.00878227717757957,0.0057615299185219465,0.003929077843720203,0.0007569516274599151
1.508081438506705,0.025680396681245936,0.010795442548927907,0.007453924502377228,0.004314155905107234,0.0015639504276433128
1.5081529556616315,0.027059576075294776,0.01286424903998776,0.008842952470356694,0.007656647721367684,-7.423690723451951e-05
1.5082244728165581,0.028112039179855254,0.012519349555568663,0.008942296206187028,0.011153438411669651,-0.002667909777676628
1.5082959899714847,0.029172386947160022,0.010781218991366978,0.008780907310022895,0.014569845808586428,-0.00537009271993113
1.5083675071264113,0.03045818310099522,0.01103475317471335,0.010026451111954632,0.018294951424065682,-0.007392862294152077
1.508439024281338,0.03190386747651281,0.01517745609620865,0.012747040105629182,0.02353095884250969,-0.009606127765837795
1.5085105414362645,0.03314377564440417,0.021185283400180156,0.01600259242207933,0.029286592968191322,-0.011867336656854693
1.508582058591191,0.03366149064758627,0.026103584697764432,0.0186299276568245,0.03408336804441911,-0.013808159010817212
1.5086535757461177,0.03301661123576188,0.025888441521312318,0.017302793300784304,0.035528621067426554,-0.015770778221848167
1.5087250929010443,0.031031763736761156,0.021797071066198766,0.013978643770450466,0.033163642527036206,-0.0161324915887451
1.5087966100559709,0.02787943173947238,0.016373235142376475,0.009773118861112214,0.027919614809671665,-0.01487676660651059
1.5088681272108975,0.024071143965329337,0.011301469360340924,0.005405399448016361,0.023245593428271625,-0.014160259216254741
1.508939644365824,0.020368522042175177,0.007311168473987551,0.002619426200917792,0.01882873137458962,-0.012611855520890064
1.5090111615207507,0.017622660517009992,0.00534214941154378,0.001280243020763253,0.0169093075459245,-0.0120225694195744
1.5090826786756772,0.016549556574789192,0.004644971952366101,0.001094148915450876,0.016538216814496354,-0.011861338837978342
1.5091541958306038,0.01749078347259404,0.004555654357257175,0.001728275756159572,0.014523275355061809,-0.00991743166278936
1.5092257129855304,0.02026609634215111,0.004959447112364492,0.002622344403247119,0.010807549318185491,-0.006511691340365398
1.509297230140457,0.024225306810832306,0.00819664894426426,0.005090188490138515,0.007701189038811565,-0.00254670441569933
1.5093687472953836,0.028505184243561566,0.01605609543851506,0.010396256019729185,0.0074154821602589105,0.0011185177562591149
1.5094402644503102,0.032363241212534366,0.027108849170086522,0.017181792517199104,0.011709229538797097,0.002264951174375999
1.5095117816052368,0.035420479974014,0.03935309722797963,0.023785576506019895,0.019819840729641096,0.00039316368155951133
1.5095832987601634,0.03772295943106026,0.04847893629745705,0.028541189697550762,0.02738565660388528,-0.002265740439002259
1.50965481591509,0.039632532833370364,0.05128849627748691,0.030196375009199177,0.032864390040504135,-0.0053555036100093305
1.5097263330700166,0.041605230836871475,0.04679692979088099,0.028415936049993602,0.034913649928341145,-0.008073419957789922
1.5097978502249432,0.04392716574129624,0.0396348149002665,0.026087173799228647,0.031547535937547735,-0.007028148194572588
1.5098693673798698,0.04649881119729661,0.035401717725802945,0.025125670272120693,0.026574239846393607,-0.0038710784833906543
1.5099408845347964,0.048782229516577,0.03544130908915581,0.025898717163670308,0.024201568714501322,-0.0015638387512716767
1.510012401689723,0.04998265464348263,0.038217090902430965,0.027970420605425636,0.023568016080280425,0.00026584289761982875
1.5100839188446495,0.04939582665258717,0.03864293560035754,0.02744804663090382,0.022533264699502155,0.00071270863118175
1.5101554359995761,0.046726633743720845,0.03619417648989661,0.024915387052692306,0.020467562267854678,0.0006356051227198266
1.5102269531545027,0.04221494386441091,0.033332060093099934,0.022036546886626967,0.017358525097347675,0.0011268874467599604
1.5102984703094293,0.0365554045951188,0.0317401022478627,0.019143160662124768,0.017137847029704674,-0.0005867990292074099
1.510369987464356,0.030705701566729478,0.03184424045359314,0.01712115674686206,0.018664080454833577,-0.003061841896183883
1.5104415046192825,0.025671938650474672,0.03317529729440573,0.016152578444133103,0.021789825527971825,-0.0060682740136268586
1.510513021774209,0.02230380117340663,0.03494926953518912,0.01595046449902194,0.025594244814562572,-0.009092840289384651
1.5105845389291357,0.02110478427342222,0.03341759465914219,0.014310671393420193,0.025802159285091407,-0.01031699264652631
1.5106560560840623,0.022087028251984653,0.028032818342173475,0.011927341615445858,0.020311318336380696,-0.0076905917969943725
1.5107275732389889,0.02474352062355467,0.01950414872035575,0.008315005741078718,0.011764443891593656,-0.0035400583453340396
1.5107990903939155,0.028206425428266402,0.012984906006928365,0.006455089330600415,0.0037542379718031467,0.0013405245127702
1.510870607548842,0.03156791810921427,0.00998170527028523,0.006924877381908108,-0.0007329748816321802,0.005056660191628153
1.5109421247037687,0.034217944840168574,0.010460537569177286,0.0085255112555674,0.0009900192870341583,0.004787049245642807
1.5110136418586952,0.036025983655989566,0.01415770725631128,0.01161661354179527,0.006728637474594377,0.002433711455513786
1.5110851590136218,0.03729532439305516,0.0162736388233423,0.013294021431409462,0.013883423600821043,-0.0019150549699746256
1.5111566761685484,0.03854470610167679,0.015416120146974029,0.013163190298163863,0.021460440892830127,-0.007761104569530154
1.511228193323475,0.04022460916569971,0.01443070818627597,0.013651672900344249,0.02583778447858291,-0.010772469241851816
1.5112997104784016,0.04246467581659284,0.015426887652084416,0.01442102957265151,0.028250096287268565,-0.012107116173182428
1.5113712276333282,0.04493429586497486,0.020345658278226268,0.016921655013448497,0.031128533947732233,-0.012670946339275756
1.5114427447882548,0.04689231770787431,0.02601651642156571,0.019784155718843215,0.03335922497108874,-0.0125066038374334
1.5115142619431814,0.047454803887083834,0.02833247291560548,0.02007376929597759,0.03368199322518312,-0.01256382062853235
1.511585779098108,0.04599085839647899,0.025158512860941517,0.017243949592298295,0.03108023287249383,-0.012424647568793627
