freq,gls,usurper,pdc_unbiased,shape_periodogram,shift_periodogram
1.5,0.031605246424144244,0.03234407019666533,0.022003088454338578,0.026385334622323436,0.005481129925826384
1.5000715171549266,0.028595336453250155,0.025203058128775508,0.01679692217781675,0.020891806667584015,0.003800016369201358
1.5001430343098532,0.024797888546036324,0.019231248417196575,0.011419584810450916,0.01674794743034297,0.0012850328593487844
1.5002145514647798,0.020789812632417533,0.01731906867905198,0.008796510756732951,0.01315568077251555,0.0008597150163068718
1.5002860686197064,0.017345459787468324,0.020011191554798826,0.009479677332466734,0.011842093467044856,0.0021173208310696343
1.500357585774633,0.015271945925960987,0.02467193233769916,0.011714688134418397,0.012307195246288778,0.003803275479469887
1.5004291029295596,0.015165201318802408,0.030162158729652302,0.01415548030345099,0.015376161203795898,0.004338893749710482
1.5005006200844861,0.01716595655706576,0.03519639493755747,0.016954003693511403,0.01740057640735197,0.005715279896579325
1.5005721372394127,0.02086274426290797,0.039053890440447464,0.019187221778694714,0.01946573690040641,0.006584688672932267
1.5006436543943393,0.02544081002802935,0.042464745692594015,0.02137618975240262,0.02206891248119598,0.007142049057967661
1.500715171549266,0.03000884122307953,0.04615828044901602,0.02421994995090846,0.0236472552236938,0.008786088510965007
1.5007866887041925,0.03391266896856934,0.050595169762488346,0.02666061786266369,0.028314157648806668,0.008509131736175993
1.500858205859119,0.0368882624749449,0.05561312002595462,0.029368029530911475,0.03426509338892902,0.00780790062418455
1.5009297230140457,0.0390355018056212,0.061023565210261733,0.03287087235373193,0.04183935979779124,0.006965212891483854
1.5010012401689723,0.04067274274449097,0.06294402775405811,0.0349635290275476,0.04746957510041357,0.005898408528373452
1.5010727573238989,0.04213722341942038,0.0631128119248005,0.036798409825528795,0.05099865783343218,0.005681258019688544
1.5011442744788255,0.043587855733941964,0.06318449100728889,0.03793328428010061,0.054232061638877185,0.005010940880418694
1.501215791633752,0.044880915226329254,0.06302321615186403,0.03824814004694497,0.057278883653637216,0.003727655070433966
1.5012873087886787,0.045592465454410994,0.06422845761011273,0.03896037083855539,0.06036881962473493,0.002765164125674725
1.5013588259436053,0.04519857422015515,0.0635926379192584,0.038338310339186395,0.06070567990919116,0.0020558342191819693
1.5014303430985318,0.04331902735671992,0.05966703879528998,0.03525172960142179,0.0609480185947263,-0.0007335026125761075
1.5015018602534584,0.03989064242203222,0.051361618032589665,0.029380562295107576,0.058248219278795706,-0.004421621818624492
1.501573377408385,0.035207008956161204,0.04169325495348773,0.02275340008029923,0.05499398918042285,-0.008474247851094548
1.5016448945633116,0.029854908046904056,0.03283833721911217,0.01716592382272006,0.0490487579398003,-0.010251671840403362
1.5017164117182382,0.02460404968418353,0.025449675129203823,0.01272729457488559,0.04223747973069989,-0.010595401613546293
1.5017879288731648,0.020274028275387688,0.02092749378449875,0.010756457121333964,0.03633263932541462,-0.009277265331495433
1.5018594460280914,0.01756978332877583,0.018671107384703487,0.009814843547662735,0.03296497175682721,-0.008368837304030883
1.501930963183018,0.016887968997375314,0.018042688583939887,0.009773529530205848,0.02963424293905987,-0.0067046504927456545
1.5020024803379446,0.018154766828972088,0.017150147738967114,0.009545857603491862,0.02648996799683301,-0.005296320450105409
1.5020739974928712,0.020807783027131654,0.017757564815358215,0.00997328939183271,0.02446892194392584,-0.0038974343802283366
1.5021455146477978,0.023992628107040868,0.02044839077573898,0.01144212206274167,0.023892328428681525,-0.0023391903439894733
1.5022170318027244,0.026898257150269028,0.025278742744352316,0.014028974316248104,0.026039676800605694,-0.001207954708662802
1.502288548957651,0.029041972437567,0.030322118880188625,0.016679671046279716,0.02890037981675573,-0.0003852616673021843
1.5023600661125776,0.03036170293294545,0.03558562459752393,0.019990738498687276,0.03264972646434401,0.0005532514272620316
1.5024315832675041,0.031115659296329378,0.03626276561840971,0.02077896981185265,0.034739211512987825,0.00016616664916629692
1.5025031004224307,0.031680428730509906,0.03328991072855002,0.019519808615351825,0.035235054198570266,-0.0011713285556140683
1.5025746175773573,0.032340192227813126,0.029452461562909003,0.018649627815208736,0.03340828968575631,-0.0009887021003743017
1.502646134732284,0.033131945974426154,0.02687830097106148,0.017871043624403338,0.03075917614956906,-0.0003076762739373276
1.5027176518872105,0.033797027787609374,0.02655781881561519,0.01799769758677829,0.02940093107268137,0.0004942304591682284
1.502789169042137,0.033871437590867574,0.02541396452889176,0.017486670760106647,0.027194361233782743,0.0011797209281745346
1.5028606861970637,0.03289397904446062,0.02197561405439466,0.015274482970942199,0.025196679650603668,0.00029416331831698395
1.5029322033519903,0.030638444170610023,0.01796212328370554,0.012011118949132128,0.023562496777306433,-0.0016812407855733803
1.5030037205069169,0.02725242384486997,0.015786307931585825,0.009441040885373031,0.0227056309221785,-0.003456030566494328
1.5030752376618435,0.023245599290448483,0.017207218601212895,0.008606550278537486,0.022241378333818812,-0.003937345542822335
1.50314675481677,0.019358366958489085,0.020734225565597876,0.008953985446160287,0.022375245975439113,-0.003706646773294991
1.5032182719716967,0.01638051368297583,0.02531611775623448,0.010426555451109277,0.02269617034097099,-0.0026030878182740982
1.5032897891266233,0.01497089818834955,0.02969305825017742,0.012350463029946239,0.023488635735675608,-0.0013515034950849992
1.5033613062815498,0.015499460648454992,0.033065172507292406,0.013981854206916533,0.023727937934984948,-6.940386466022244e-05
1.5034328234364764,0.01793079665045714,0.03337081608657369,0.01416864675154985,0.0216327821825731,0.001159898748586344
1.503504340591403,0.021792554285279486,0.03270005901153949,0.013806564009865633,0.019004102901462296,0.0021887564511140294
1.5035758577463296,0.026283745634476982,0.03546504178163437,0.015751292513310384,0.019122585828028955,0.0038021156734007527
1.5036473749012562,0.03053094650102892,0.04117813091115431,0.019003856556851165,0.023298527577198008,0.004472665918346523
1.5037188920561828,0.03389868374654469,0.0488464047541427,0.02304438568669538,0.030407085724707867,0.004327109297034893
1.5037904092111094,0.03619247413189749,0.05807913585046321,0.02836367437687625,0.03809294106892377,0.004990298604420917
1.503861926366036,0.03764566473947448,0.06502219521943062,0.03246316988130233,0.04511376544553756,0.004943416287432824
1.5039334435209626,0.038716510453014726,0.06836018826414252,0.03408384953452373,0.05214847545069397,0.002751824159877966
1.5040049606758892,0.0398171228344044,0.07002509607946585,0.03557140334761458,0.05693640177794426,0.0015913979639415976
1.5040764778308158,0.041095739566223526,0.07373585362501871,0.037525773851031737,0.06128307070317192,0.0010591449222108857
1.5041479949857424,0.04234364882306056,0.07745460006214853,0.038887791087543686,0.06594885193815962,-0.00014791377758627136
1.504219512140669,0.043051695709888996,0.07921616439405031,0.03921573232033744,0.07004952626486528,-0.0019604974483142202
1.5042910292955955,0.04260283060723393,0.07444697011003941,0.036347749549566495,0.0716008844471943,-0.005232514428732674
1.5043625464505221,0.04053910287302065,0.06294353368701501,0.030363706364527798,0.06910520644235184,-0.00912446905850686
1.5044340636054487,0.03679439695722014,0.048515763218988525,0.02344001313236871,0.06235843002075355,-0.01164745603967401
1.5045055807603753,0.03178229372791513,0.035973792899118354,0.01698689592080203,0.05577567554022131,-0.013844090201806422
1.504577097915302,0.026296542555493532,0.027381162751640018,0.012446934359831944,0.04947627370516,-0.014534957096774888
1.5046486150702285,0.021278189004975218,0.024163731495648436,0.011187449324425095,0.04402458502980121,-0.01283406617848401
1.504720132225155,0.017555651134353225,0.023124482234646297,0.011283372248322305,0.03994629320063677,-0.010668616949329648
1.5047916493800817,0.01564621916050789,0.02192087496461016,0.010644076718018416,0.036999821556903664,-0.00971460674923932
1.5048631665350083,0.015656872938766518,0.01954609931766077,0.009217644422453899,0.03310313078210347,-0.008953382428100749
1.5049346836899349,0.017286051262519187,0.01787309444937577,0.008230188330603324,0.029043995021940845,-0.007731746430044159
1.5050062008448615,0.019918755698584013,0.017693308970432087,0.007905738300784866,0.025395398350627634,-0.006149371768283502
1.505077717999788,0.022804926807040774,0.019977566512834295,0.009361654152707073,0.022802031733809097,-0.003573520483074439
1.5051492351547147,0.025289013466251117,0.02523160356314354,0.011726326065843064,0.025651390183105117,-0.002991875252248846
1.5052207523096413,0.027015644551186973,0.030607303634565847,0.014241445734319206,0.02863965978757177,-0.0023513498325778526
1.5052922694645678,0.028012475009877,0.03325608185114976,0.015961322224474977,0.02954768239927494,-0.0013339319545690035
1.5053637866194944,0.028596359216805502,0.029734902298227502,0.014919408532213189,0.02737903695138253,-0.0011246461485391061
1.505435303774421,0.02915112616185344,0.022805792905222853,0.013309044659559194,0.02249260313921747,-1.846029279467743e-05
1.5055068209293476,0.029900153036102176,0.018080997441269127,0.012321918805932341,0.01843615247781854,0.0012006687830532008
1.5055783380842742,0.030782681811496897,0.0174874001524084,0.01250866989698158,0.016698106409489336,0.0022476564875669926
1.5056498552392008,0.03146961942071043,0.020118957121521047,0.013496870470295333,0.018148270900409404,0.0023586325193363914
1.5057213723941274,0.03149161794629547,0.021539355836597968,0.013134126432083434,0.02044005318360453,0.000877768619498075
1.505792889549054,0.030427310908792447,0.020901118322265953,0.011855838401314541,0.023100878878907858,-0.00157943434192587
1.5058644067039806,0.02809465201809536,0.018543347081738444,0.009674998552531539,0.024062138285824278,-0.003946638916402427
1.5059359238589072,0.024683284499830333,0.014679271615921934,0.006168765257997816,0.023874497989118573,-0.006868159709680452
1.5060074410138338,0.020766913938386953,0.012305415986164948,0.003987129865862614,0.02288323847504934,-0.008239635292764084
1.5060789581687604,0.017165658691511196,0.013518177439556073,0.004506773893992003,0.021648303825304683,-0.00716255054202381
1.506150475323687,0.014695536880755058,0.016232551755311433,0.005603202541494299,0.021645149748352698,-0.006217549578730104
1.5062219924786135,0.013907828977730352,0.018537998524675702,0.006474304461408025,0.021083203643496806,-0.005181367552298448
1.5062935096335401,0.014929925183180436,0.018951050348010173,0.007024475314287043,0.018271820481404865,-0.0032740330240423944
1.5063650267884667,0.01746107614733839,0.01792072852992056,0.006681651925523114,0.016332510710766322,-0.0025799582151685993
1.5064365439433933,0.020900617081537138,0.019643992512192857,0.008103902228742074,0.015074278185686579,-0.0007145711598317477
1.50650806109832,0.024545654709518663,0.02409645387126489,0.01119024144466396,0.01403300014717194,0.002472056265953983
1.5065795782532465,0.027795889555703463,0.03189582911066142,0.015188716512202768,0.017703083619305553,0.004041696067183459
1.506651095408173,0.030315638754338018,0.04210651658880902,0.02020329875354711,0.023452787881923735,0.005426665465166839
1.5067226125630997,0.03210575674634778,0.05223191085549845,0.02516307524326057,0.030221326731124022,0.006246779442647354
1.5067941297180263,0.03344435853615213,0.05804613759502593,0.02809340030703321,0.03567540428010266,0.005990316938825905
1.5068656468729529,0.03469846610783441,0.05863966000153224,0.028836225363534616,0.038222507302663744,0.005331505100643245
1.5069371640278795,0.03608805388876267,0.05763287818524446,0.029158238083419115,0.03920235795750334,0.005109299745627446
1.507008681182806,0.03753193323000867,0.0574554608886907,0.029645090979329304,0.041103649153616646,0.004559171736279383
1.5070801983377327,0.038657419159163646,0.05772207727887786,0.03000532215028713,0.04291725095554107,0.00394455255526054
1.5071517154926592,0.038950459296790155,0.0564634184999188,0.029635790998015537,0.04331667451323187,0.0034221708376504793
1.5072232326475858,0.03795818995272562,0.050375792572640216,0.026170643808596194,0.04318676734398911,0.0005013159903677375
1.5072947498025124,0.035465807062779846,0.042723497619403646,0.02167628316777021,0.042124572344346724,-0.0028296466194898903
1.507366266957439,0.03160750390290827,0.03639939563773385,0.01779655130545853,0.04046057827494775,-0.005322472981984344
1.5074377841123656,0.02689036393457737,0.03106231023532576,0.014369878001425985,0.03885992969614217,-0.007456406529311336
1.5075093012672922,0.022110982309926926,0.026377303212619666,0.012274203971852665,0.036031700034923474,-0.007817038111852637
1.5075808184222188,0.018158898886019043,0.02342976687985577,0.010838451012952628,0.034892111732728506,-0.0084713507110059
1.5076523355771454,0.015750547010193554,0.021482857789349878,0.009985828883372298,0.03356433709613739,-0.008527569818579857
1.507723852732072,0.015198153002695225,0.01790607831592949,0.008495434228764531,0.029702526978647673,-0.007839505204888204
1.5077953698869986,0.01632710132796861,0.01319926652077257,0.006411917338543193,0.02429119910846266,-0.006871513835442614
1.5078668870419252,0.01858159605132472,0.009739947042298962,0.00521914285473996,0.018535938201798552,-0.004962081229053286
1.5079384041968518,0.02125563485920751,0.007719853965978571,0.005152249488431391,0.012604757626939692,-0.0019948034399711943
1.5080099213517784,0.023737553869918368,0.007678195798626108,0.0057615299185219465,0.009109371369921257,0.00031174445131212973
1.508081438506705,0.025680396681245936,0.009927396608875996,0.007453924502377228,0.007098152070314705,0.002793241851896825
1.5081529556616315,0.027059576075294776,0.012037530203930941,0.008842952470356694,0.005816486111728867,0.004641730963045744
1.5082244728165581,0.028112039179855254,0.011276541152397578,0.008942296206187028,0.0037383068623425544,0.005786737344534723
1.5082959899714847,0.029172386947160022,0.00898612045613691,0.008780907310022895,0.0018114353979118325,0.0066302808969871665
1.5083675071264113,0.03045818310099522,0.008988352423276188,0.010026451111954632,0.0008037010975955072,0.008215580440665405
1.508439024281338,0.03190386747651281,0.013435847487669027,0.012747040105629182,0.0020573221513818705,0.009917025183922542
1.5085105414362645,0.03314377564440417,0.019980314439506316,0.01600259242207933,0.0058219000618936955,0.010799010867240454
1.508582058591191,0.03366149064758627,0.025342221197217026,0.0186299276568245,0.009758757949671574,0.011053158154022268
1.5086535757461177,0.03301661123576188,0.02493680476637069,0.017302793300784304,0.011930937959087009,0.008803827264061004
1.5087250929010443,0.031031763736761156,0.020300167469299666,0.013978643770450466,0.012618739663305099,0.005592564383370334
1.5087966100559709,0.02787943173947238,0.014457642739570623,0.009773118861112214,0.01159189734207139,0.0024973739467649223
1.5088681272108975,0.024071143965329337,0.009159569580937305,0.005405399448016361,0.011065319898636955,-0.000992001012957935
1.508939644365824,0.020368522042175177,0.004990462684728716,0.002619426200917792,0.009083416586816499,-0.0023781820425638734
1.5090111615207507,0.017622660517009992,0.00315520834640198,0.001280243020763253,0.008542275538412998,-0.0032543088928848165
1.5090826786756772,0.016549556574789192,0.0025937403771065003,0.001094148915450876,0.00927466371408189,-0.0037878599243788918
1.5091541958306038,0.01749078347259404,0.0026760280036516007,0.001728275756159572,0.008741195487460022,-0.0029703134002009154
1.5092257129855304,0.02026609634215111,0.0033706059322685823,0.002622344403247119,0.006697734181885952,-0.001159194714088707
1.509297230140457,0.024225306810832306,0.0072120559849036935,0.005090188490138515,0.00528311059808174,0.0016851407616669946
1.5093687472953836,0.028505184243561566,0.016045527242336415,0.010396256019729185,0.005915322423349399,0.005927716119882047
1.5094402644503102,0.032363241212534366,0.02827068524114964,0.017181792517199104,0.009430840693236534,0.009974100958376158
1.5095117816052368,0.035420479974014,0.041785647799597425,0.023785576506019895,0.014865831432392576,0.01288780214737465
1.5095832987601634,0.03772295943106026,0.05185528763267671,0.028541189697550762,0.019094433423698126,0.014827655793300448
1.50965481591509,0.039632532833370364,0.05478642173386224,0.030196375009199177,0.021115990078019065,0.015223173229659827
1.5097263330700166,0.041605230836871475,0.049592131607150036,0.028415936049993602,0.019852187046029195,0.014333691613482224
1.5097978502249432,0.04392716574129624,0.04167401862395959,0.026087173799228647,0.014878731511964059,0.014862663266561618
1.5098693673798698,0.04649881119729661,0.03722652564559368,0.025125670272120693,0.01034427671881363,0.01634543272541316
1.5099408845347964,0.048782229516577,0.03758751928976932,0.025898717163670308,0.009645228454908533,0.017367020957612833
1.510012401689723,0.04998265464348263,0.040876499136929305,0.027970420605425636,0.011157600673202112,0.018379860136054874
1.5100839188446495,0.04939582665258717,0.04134070714772299,0.02744804663090382,0.012927867105306348,0.017028264293429702
1.5101554359995761,0.046726633743720845,0.038284822057898106,0.024915387052692306,0.014079595915400565,0.014261077083228926
1.5102269531545027,0.04221494386441091,0.034897967356067386,0.022036546886626967,0.014766239118422132,0.011432946323759715
1.5102984703094293,0.0365554045951188,0.03296164630232456,0.019143160662124768,0.016605419620607676,0.008004924147912908
1.510369987464356,0.030705701566729478,0.032851981876396895,0.01712115674686206,0.019220959683242687,0.0049310380091198485
1.5104415046192825,0.025671938650474672,0.03404493698810225,0.016152578444133103,0.021841653364968558,0.002761035365094396
1.510513021774209,0.02230380117340663,0.03570086993940245,0.01595046449902194,0.024737485008483724,0.0011102659613972065
1.5105845389291357,0.02110478427342222,0.03388450969421007,0.014310671393420193,0.025139884654155526,-0.0005065186311014011
1.5106560560840623,0.022087028251984653,0.027978415678673336,0.011927341615445858,0.020830271519925628,-0.0003598331362719731
1.5107275732389889,0.02474352062355467,0.018791072860815338,0.008315005741078718,0.013981660424205438,2.4234981741081115e-05
1.5107990903939155,0.028206425428266402,0.011739073723964287,0.006455089330600415,0.006855512482482316,0.002057637161629594
1.510870607548842,0.03156791810921427,0.008406720841674485,0.006924877381908108,0.001337240813820534,0.0052753389035514716
1.5109421247037687,0.034217944840168574,0.008801855214220248,0.0085255112555674,-0.0013191921580513455,0.008006681107545134
1.5110136418586952,0.036025983655989566,0.012531666030826784,0.01161661354179527,-0.001877109879019591,0.010950279856292886
1.5110851590136218,0.03729532439305516,0.014504561820063187,0.013294021431409462,-0.0015742681686293119,0.012238922173319566
1.5111566761685484,0.03854470610167679,0.013031847893676944,0.013163190298163863,-0.0012365694964979223,0.011954216510511281
1.511228193323475,0.04022460916569971,0.01146770885739458,0.013651672900344249,-0.00294048099228703,0.013243075572910526
1.5112997104784016,0.04246467581659284,0.012538244541445212,0.01442102957265151,-0.0035838954056316773,0.01423292471529348
1.5113712276333282,0.04493429586497486,0.018130941447742004,0.016921655013448497,-0.0017169018233615565,0.015432464805524085
1.5114427447882548,0.04689231770787431,0.02478325226225277,0.019784155718843215,0.0013205583188125754,0.016347072136483985
1.5115142619431814,0.047454803887083834,0.027777825752230655,0.02007376929597759,0.004513484351961771,0.014968997196171627
