freq,gls,usurper,pdc_unbiased,shape_periodogram,shift_periodogram
1.5,0.031605246424144244,0.02629893407624444,0.022003088454338578,0.024585081722985524,0.0077153528903756066
1.5000715171549266,0.028595336453250155,0.02090456909502415,0.01679692217781675,0.01939511554333511,0.005590211260864828
1.5001430343098532,0.024797888546036324,0.01589731980713374,0.011419584810450916,0.01515127797309405,0.0028672589078968065
1.5002145514647798,0.020789812632417533,0.014041698155187929,0.008796510756732951,0.01149285378204529,0.002292864951479667
1.5002860686197064,0.017345459787468324,0.01580611638222863,0.009479677332466734,0.010122292737962264,0.0035444859300156595
1.500357585774633,0.015271945925960987,0.01902284563626928,0.011714688134418397,0.010801889128558844,0.0051901062898799585
1.5004291029295596,0.015165201318802408,0.022615410120002125,0.01415548030345099,0.013790096675027168,0.005922179739415201
1.5005006200844861,0.01716595655706576,0.026194918741660796,0.016954003693511403,0.01588645237544943,0.007392620809856527
1.5005721372394127,0.02086274426290797,0.028991605066402464,0.019187221778694714,0.01807828736615486,0.008320247301087727
1.5006436543943393,0.02544081002802935,0.03143585955360819,0.02137618975240262,0.02043165330211314,0.009132637209637756
1.500715171549266,0.03000884122307953,0.034122123460350894,0.02421994995090846,0.02213934386486267,0.010828542320063446
1.5007866887041925,0.03391266896856934,0.03677376190779254,0.02666061786266369,0.027137618975820982,0.010609664467954697
1.500858205859119,0.0368882624749449,0.03991791581736672,0.029368029530911475,0.03328562959174646,0.010081441294776047
1.5009297230140457,0.0390355018056212,0.04375595651137288,0.03287087235373193,0.040937613697625184,0.00954248131496999
1.5010012401689723,0.04067274274449097,0.04545684735356326,0.0349635290275476,0.0465572335823049,0.008723873323365992
1.5010727573238989,0.04213722341942038,0.0464999550967234,0.036798409825528795,0.049719978919880295,0.008843569211884379
1.5011442744788255,0.043587855733941964,0.04707417314574222,0.03793328428010061,0.05248325668374906,0.008534870488317584
1.501215791633752,0.044880915226329254,0.04698993793781377,0.03824814004694497,0.05512453018488568,0.00755962117376823
1.5012873087886787,0.045592465454410994,0.04773998850925717,0.03896037083855539,0.057857212335656896,0.006891915037000918
1.5013588259436053,0.04519857422015515,0.04709261287274914,0.038338310339186395,0.05821661356152154,0.006171549800046416
1.5014303430985318,0.04331902735671992,0.04409244560462212,0.03525172960142179,0.05920612578896625,0.002974262323124732
1.5015018602534584,0.03989064242203222,0.037720490719677195,0.029380562295107576,0.05755266174738728,-0.0014257643964022983
1.501573377408385,0.035207008956161204,0.03053693490046081,0.02275340008029923,0.05466755824502002,-0.005903761220732398
1.5016448945633116,0.029854908046904056,0.024195260251480503,0.01716592382272006,0.04899994170493065,-0.008138015853239684
1.5017164117182382,0.02460404968418353,0.01906140940448215,0.01272729457488559,0.04244705972691708,-0.00893674596515561
1.5017879288731648,0.020274028275387688,0.01641974980888244,0.010756457121333964,0.03660478389222572,-0.00789824208241405
1.5018594460280914,0.01756978332877583,0.015180502297628011,0.009814843547662735,0.033084229510128474,-0.007056016951512856
1.501930963183018,0.016887968997375314,0.015087131148177325,0.009773529530205848,0.029334607911398143,-0.0053123223215105556
1.5020024803379446,0.018154766828972088,0.014663749353699402,0.009545857603491862,0.025664279441587168,-0.003770800954814316
1.5020739974928712,0.020807783027131654,0.015009869687104396,0.00997328939183271,0.023042091036811502,-0.0021500036117325897
1.5021455146477978,0.023992628107040868,0.016694296052539095,0.01144212206274167,0.022092810077672293,-0.0004059574468447672
1.5022170318027244,0.026898257150269028,0.01969893916484713,0.014028974316248104,0.024033308185926257,0.0009518312512684883
1.502288548957651,0.029041972437567,0.022886468471620746,0.016679671046279716,0.027231985001955183,0.0017692975714646557
1.5023600661125776,0.03036170293294545,0.026731611581586875,0.019990738498687276,0.03132887423636348,0.0027430089362352537
1.5024315832675041,0.031115659296329378,0.027282473899764,0.02077896981185265,0.033708518400663114,0.00230856470255119
1.5025031004224307,0.031680428730509906,0.02536393983615796,0.019519808615351825,0.03412764314238666,0.0009998653638608995
1.5025746175773573,0.032340192227813126,0.02326004640833729,0.018649627815208736,0.03166226828480474,0.001402935243735869
1.502646134732284,0.033131945974426154,0.02159735981389891,0.017871043624403338,0.028038797181144055,0.0024361767681979076
1.5027176518872105,0.033797027787609374,0.02156844810245775,0.01799769758677829,0.02576417736126546,0.003626901399696666
1.502789169042137,0.033871437590867574,0.020798778104809804,0.017486670760106647,0.022682244536369068,0.004638657097162596
1.5028606861970637,0.03289397904446062,0.018502344978764587,0.015274482970942199,0.020838415589982524,0.0035645993971842116
1.5029322033519903,0.030638444170610023,0.01542509087727208,0.012011118949132128,0.01973186682482998,0.0012152816096168524
1.5030037205069169,0.02725242384486997,0.013502215372409924,0.009441040885373031,0.019184180608127613,-0.0007882493484204567
1.5030752376618435,0.023245599290448483,0.013904446381806905,0.008606550278537486,0.01894076000414389,-0.0014076184308790206
1.50314675481677,0.019358366958489085,0.01568970226451537,0.008953985446160287,0.019185854561130627,-0.001217951561744813
1.5032182719716967,0.01638051368297583,0.018244200274681082,0.010426555451109277,0.01988501659916209,-0.0002528705680012454
1.5032897891266233,0.01497089818834955,0.020901181484950793,0.012350463029946239,0.021195942956109694,0.0008195656096205547
1.5033613062815498,0.015499460648454992,0.02313114307934647,0.013981854206916533,0.021416035637321574,0.002152027631638461
1.5034328234364764,0.01793079665045714,0.02328638808933487,0.01416864675154985,0.01941272862382407,0.0032668754960483728
1.503504340591403,0.021792554285279486,0.022436097401681534,0.013806564009865633,0.016853505024401097,0.0041619235837161445
1.5035758577463296,0.026283745634476982,0.02413742944011679,0.015751292513310384,0.016855448550080494,0.0058737675718271275
1.5036473749012562,0.03053094650102892,0.0275521642667846,0.019003856556851165,0.020919509530750263,0.0068112911863983825
1.5037188920561828,0.03389868374654469,0.03215964391859375,0.02304438568669538,0.028054936076679107,0.006987336267050299
1.5037904092111094,0.03619247413189749,0.03832191969381699,0.02836367437687625,0.03580779579444431,0.00799959554724455
1.503861926366036,0.03764566473947448,0.042944639208915676,0.03246316988130233,0.043202464770595576,0.008108418572073079
1.5039334435209626,0.038716510453014726,0.04487487693795669,0.03408384953452373,0.050835512530612,0.005917129174807935
1.5040049606758892,0.0398171228344044,0.04605852795916561,0.03557140334761458,0.05607330486136448,0.004744443021022734
1.5040764778308158,0.041095739566223526,0.04832681545402954,0.037525773851031737,0.06058621174709153,0.004328259621058276
1.5041479949857424,0.04234364882306056,0.05040762903508828,0.038887791087543686,0.06480172116338374,0.00352983398708594
1.504219512140669,0.043051695709888996,0.051266913776281585,0.03921573232033744,0.06832434777967565,0.0021458868389318962
1.5042910292955955,0.04260283060723393,0.048140935044076245,0.036347749549566495,0.06987256829736359,-0.001126481527238856
1.5043625464505221,0.04053910287302065,0.040838909287128855,0.030363706364527798,0.06773461513006758,-0.005398765088366962
1.5044340636054487,0.03679439695722014,0.031944102696887175,0.02344001313236871,0.06121235440262752,-0.008410027897899483
1.5045055807603753,0.03178229372791513,0.024076880002969276,0.01698689592080203,0.054109841680105235,-0.010725109099482977
1.504577097915302,0.026296542555493532,0.01867269238760068,0.012446934359831944,0.04754126007902277,-0.01160464211712206
1.5046486150702285,0.021278189004975218,0.017037249488143644,0.011187449324425095,0.04204883119885793,-0.010104455253708393
1.504720132225155,0.017555651134353225,0.01684748781653706,0.011283372248322305,0.03797149815836925,-0.008083097375493337
1.5047916493800817,0.01564621916050789,0.016099594987011686,0.010644076718018416,0.035006905316699914,-0.007238455090472496
1.5048631665350083,0.015656872938766518,0.014563637933651319,0.009217644422453899,0.03131869825135824,-0.006743833988961256
1.5049346836899349,0.017286051262519187,0.01341960226123118,0.008230188330603324,0.027338236698053516,-0.005724032075815777
1.5050062008448615,0.019918755698584013,0.012985192828539908,0.007905738300784866,0.024072704417739774,-0.004459917702125325
1.505077717999788,0.022804926807040774,0.01436673324321438,0.009361654152707073,0.02188600296007289,-0.0021400906088653074
1.5051492351547147,0.025289013466251117,0.017430403019954747,0.011726326065843064,0.024707689516963408,-0.0013963774220376683
1.5052207523096413,0.027015644551186973,0.020497053055572312,0.014241445734319206,0.027739350301926095,-0.000619500904568463
1.5052922694645678,0.028012475009877,0.022222587861280337,0.015961322224474977,0.028489640150276593,0.0005396620282144387
1.5053637866194944,0.028596359216805502,0.01999866216906111,0.014919408532213189,0.026330908957125417,0.0006460703540054818
1.505435303774421,0.02915112616185344,0.01619463207163355,0.013309044659559194,0.021145385480345624,0.0016878262129741161
1.5055068209293476,0.029900153036102176,0.013569634307146075,0.012321918805932341,0.01659398461529707,0.002977535721859043
1.5055783380842742,0.030782681811496897,0.013274700247093141,0.01250866989698158,0.014069659568536433,0.00433935805630488
1.5056498552392008,0.03146961942071043,0.014785179216043129,0.013496870470295333,0.014651443959620876,0.0049336506137012065
1.5057213723941274,0.03149161794629547,0.0152385173107647,0.013134126432083434,0.01663314001445072,0.0036742437211306177
1.505792889549054,0.030427310908792447,0.014821702463733048,0.011855838401314541,0.019726218227590117,0.0010812058282086304
1.5058644067039806,0.02809465201809536,0.013234173271869489,0.009674998552531539,0.021077569798720705,-0.0014805505420317755
1.5059359238589072,0.024683284499830333,0.010223700922226202,0.006168765257997816,0.020886179737458727,-0.004477350529202746
1.5060074410138338,0.020766913938386953,0.008429183257893779,0.003987129865862614,0.01983261608967648,-0.0058983896194387255
1.5060789581687604,0.017165658691511196,0.009435355186710721,0.004506773893992003,0.018501860065195143,-0.004809392483086381
1.506150475323687,0.014695536880755058,0.011063037265356913,0.005603202541494299,0.01859777961548346,-0.0038894973842812245
1.5062219924786135,0.013907828977730352,0.012158270988220116,0.006474304461408025,0.018468737123709895,-0.003061242378178541
1.5062935096335401,0.014929925183180436,0.012354107955798147,0.007024475314287043,0.01587031083329126,-0.001343994298654218
1.5063650267884667,0.01746107614733839,0.011380162683117282,0.006681651925523114,0.013722445510730567,-0.0006268903876277245
1.5064365439433933,0.020900617081537138,0.012277481791365199,0.008103902228742074,0.01249768129809812,0.001206385642409216
1.50650806109832,0.024545654709518663,0.015091491596282938,0.01119024144466396,0.011472827865987321,0.004410084616250986
1.5065795782532465,0.027795889555703463,0.019659817976021232,0.015188716512202768,0.015028546027872213,0.006244753274564162
1.506651095408173,0.030315638754338018,0.02563969505613978,0.02020329875354711,0.020874174469656677,0.00788946472785141
1.5067226125630997,0.03210575674634778,0.03180053142866654,0.02516307524326057,0.027994751913768896,0.0088832342673299
1.5067941297180263,0.03344435853615213,0.035246799335306146,0.02809340030703321,0.034414352293431,0.008422158817715816
1.5068656468729529,0.03469846610783441,0.035549578595098545,0.028836225363534616,0.03743939221951342,0.00764244264961398
1.5069371640278795,0.03608805388876267,0.03511236541131429,0.029158238083419115,0.03857302768416904,0.0073887157191466326
1.507008681182806,0.03753193323000867,0.03519836673120752,0.029645090979329304,0.04022255977501541,0.0070356528870106055
1.5070801983377327,0.038657419159163646,0.03545957183362434,0.03000532215028713,0.04158037716769412,0.006709268300406752
1.5071517154926592,0.038950459296790155,0.03501552339912522,0.029635790998015537,0.041468850220560634,0.006436173453942584
1.5072232326475858,0.03795818995272562,0.03138876417943493,0.026170643808596194,0.04136897688253062,0.003426972785625338
1.5072947498025124,0.035465807062779846,0.026635359626134923,0.02167628316777021,0.040569941213409615,-0.00015703885184185676
1.507366266957439,0.03160750390290827,0.022914515048001127,0.01779655130545853,0.038458484058076815,-0.0025747513795970037
1.5074377841123656,0.02689036393457737,0.019771594628210782,0.014369878001425985,0.03604393991878697,-0.0044482066984701365
1.5075093012672922,0.022110982309926926,0.017506694928556207,0.012274203971852665,0.032815949094350254,-0.004762108764222766
1.5075808184222188,0.018158898886019043,0.016162554618148466,0.010838451012952628,0.031469611621991786,-0.005387773977582725
1.5076523355771454,0.015750547010193554,0.015400348460673558,0.009985828883372298,0.030276872722952243,-0.005572609590679585
1.507723852732072,0.015198153002695225,0.013478620079901076,0.008495434228764531,0.026940852080716948,-0.005301809436839896
1.5077953698869986,0.01632710132796861,0.010711165222388639,0.006411917338543193,0.02200034497139616,-0.004791946678657339
1.5078668870419252,0.01858159605132472,0.008735900721461694,0.00521914285473996,0.016436817035475774,-0.003202358614983154
1.5079384041968518,0.02125563485920751,0.007687753935898122,0.005152249488431391,0.010822808279939013,-0.0005979214379934869
1.5080099213517784,0.023737553869918368,0.0075978293541084565,0.0057615299185219465,0.007420778348299262,0.001552271310746891
1.508081438506705,0.025680396681245936,0.008861840339939326,0.007453924502377228,0.005241617758112505,0.004075898940103788
1.5081529556616315,0.027059576075294776,0.010006322391777947,0.008842952470356694,0.003922475030522864,0.005924481782149188
1.5082244728165581,0.028112039179855254,0.009393088856036864,0.008942296206187028,0.002223360996487561,0.0068178226601437785
1.5082959899714847,0.029172386947160022,0.008057624579204243,0.008780907310022895,0.0005783723512595581,0.007455947562848734
1.5083675071264113,0.03045818310099522,0.008508947850196654,0.010026451111954632,-0.0005216526345387088,0.009074216775501036
1.508439024281338,0.03190386747651281,0.011488006181134226,0.012747040105629182,0.0004586798321802585,0.011004429875356058
1.5085105414362645,0.03314377564440417,0.015667483578492413,0.01600259242207933,0.003957755566637939,0.01221142099995356
1.508582058591191,0.03366149064758627,0.019251799883384945,0.0186299276568245,0.007610676985259429,0.012792829791846035
1.5086535757461177,0.03301661123576188,0.018712134241644106,0.017302793300784304,0.010251497879589065,0.010371948958864962
1.5087250929010443,0.031031763736761156,0.01557602119886657,0.013978643770450466,0.011611429804885944,0.006799727056238105
1.5087966100559709,0.02787943173947238,0.011524321518423203,0.009773118861112214,0.01077982430545027,0.003490979622562255
1.5088681272108975,0.024071143965329337,0.007514557378815918,0.005405399448016361,0.010104628958019037,-3.435947651177282e-05
1.508939644365824,0.020368522042175177,0.004627243686747067,0.002619426200917792,0.00809915681684418,-0.0015358017594552908
1.5090111615207507,0.017622660517009992,0.0032625939379121276,0.001280243020763253,0.007070718071904426,-0.002226920041540372
1.5090826786756772,0.016549556574789192,0.0029319983499201505,0.001094148915450876,0.007461779745491908,-0.002576255931956388
1.5091541958306038,0.01749078347259404,0.0032962142472251076,0.001728275756159572,0.007110489072060406,-0.0018513551568890311
1.5092257129855304,0.02026609634215111,0.0038851306033405226,0.002622344403247119,0.00517732811418984,-0.00014724674216650945
1.509297230140457,0.024225306810832306,0.006327652822416583,0.005090188490138515,0.003687848687338531,0.0027318794909948953
1.5093687472953836,0.028505184243561566,0.0119763239622451,0.010396256019729185,0.004706611444586609,0.00692013250692744
1.5094402644503102,0.032363241212534366,0.01968354778410341,0.017181792517199104,0.008782917546083378,0.010961762419979098
1.5095117816052368,0.035420479974014,0.027660462705983848,0.023785576506019895,0.014784271063426151,0.013932768593712808
1.5095832987601634,0.03772295943106026,0.03334934218188029,0.028541189697550762,0.019638835492866078,0.015821836357661472
1.50965481591509,0.039632532833370364,0.03483290006906874,0.030196375009199177,0.0224008943040419,0.015971598601185667
1.5097263330700166,0.041605230836871475,0.031406996267594654,0.028415936049993602,0.021912467918238455,0.014633837720036456
1.5097978502249432,0.04392716574129624,0.026805635798626777,0.026087173799228647,0.01693762947184362,0.014939735877730802
1.5098693673798698,0.04649881119729661,0.024401809054908238,0.025125670272120693,0.011898968177508937,0.016480940236720792
1.5099408845347964,0.048782229516577,0.024948252588856603,0.025898717163670308,0.010349209930855132,0.017896426451021043
1.510012401689723,0.04998265464348263,0.027517197730966232,0.027970420605425636,0.011166176178402577,0.019334200655929654
1.5100839188446495,0.04939582665258717,0.027859540609738904,0.02744804663090382,0.012816265010355439,0.018092033731063092
1.5101554359995761,0.046726633743720845,0.02605373407397727,0.024915387052692306,0.01415478758627746,0.015226452451648892
1.5102269531545027,0.04221494386441091,0.023985185147562857,0.022036546886626967,0.015117147494234128,0.0122342263520003
1.5102984703094293,0.0365554045951188,0.022525988551891946,0.019143160662124768,0.01688863089944844,0.008845582152279664
1.510369987464356,0.030705701566729478,0.022244476342685435,0.01712115674686206,0.019392472329787445,0.005877065014334586
1.5104415046192825,0.025671938650474672,0.022889779411514533,0.016152578444133103,0.022266124266981158,0.003660822852386409
1.510513021774209,0.02230380117340663,0.02403294779530384,0.01595046449902194,0.025237276356208926,0.002073262097247559
1.5105845389291357,0.02110478427342222,0.0229345352769113,0.014310671393420193,0.025817710030151812,0.0003533262958695366
1.5106560560840623,0.022087028251984653,0.01982629314278755,0.011927341615445858,0.02146841528823789,0.00031763664543802805
1.5107275732389889,0.02474352062355467,0.014615023090149908,0.008315005741078718,0.014358991824430884,0.0005093132995843375
1.5107990903939155,0.028206425428266402,0.010941890881550738,0.006455089330600415,0.0070596702116550855,0.0023341737896771125
1.510870607548842,0.03156791810921427,0.00965559625728306,0.006924877381908108,0.001360465777601547,0.005451006907822163
1.5109421247037687,0.034217944840168574,0.010122807235949334,0.0085255112555674,-0.0013258129217328504,0.008134261188937602
1.5110136418586952,0.036025983655989566,0.012723084122220939,0.01161661354179527,-0.0016542589353051326,0.011011309728745243
1.5110851590136218,0.03729532439305516,0.013905699607170167,0.013294021431409462,-0.0008024089102781406,0.01208405413455107
1.5111566761685484,0.03854470610167679,0.012802588820566977,0.013163190298163863,0.00028890144492163024,0.011451323999347505
1.511228193323475,0.04022460916569971,0.012145353035559478,0.013651672900344249,-0.0008709979950282432,0.012431452491624917
1.5112997104784016,0.04246467581659284,0.012693430051292469,0.01442102957265151,-0.0013495238182863552,0.013335715603565843
1.5113712276333282,0.04493429586497486,0.016091083601355256,0.016921655013448497,0.00013156695183162617,0.014834934984889832
1.5114427447882548,0.04689231770787431,0.02007944665428687,0.019784155718843215,0.0028120727148161157,0.016084335438664735
1.5115142619431814,0.047454803887083834,0.021331760077478383,0.02007376929597759,0.006197941835367985,0.01473409497776825
