freq,gls,usurper,pdc_unbiased,shape_periodogram,shift_periodogram
1.5,0.031605246424144244,0.031681714310679225,0.022003088454338578,0.03583452743365786,0.000611665670917892
1.5000715171549266,0.028595336453250155,0.02501924867705381,0.01679692217781675,0.02914903676191961,-0.00045123698245958053
1.5001430343098532,0.024797888546036324,0.019334876276308307,0.011419584810450916,0.02406411304300254,-0.0024778085817345158
1.5002145514647798,0.020789812632417533,0.01756045810503116,0.008796510756732951,0.020124122902499247,-0.0027199249262205238
1.5002860686197064,0.017345459787468324,0.02020815643088564,0.009479677332466734,0.01898181937569292,-0.0015487046593342258
1.500357585774633,0.015271945925960987,0.024790914506821804,0.011714688134418397,0.019993801478014397,-0.00014385686166207802
1.5004291029295596,0.015165201318802408,0.030122994197760124,0.01415548030345099,0.024306640115938815,-0.0002486214649596561
1.5005006200844861,0.01716595655706576,0.03512228849201984,0.016954003693511403,0.027842577071561885,0.0003516571616018636
1.5005721372394127,0.02086274426290797,0.03902224727526267,0.019187221778694714,0.0317530433824686,0.00027448799602567325
1.5006436543943393,0.02544081002802935,0.042435376523207134,0.02137618975240262,0.035923313557115394,2.6642547811267065e-05
1.500715171549266,0.03000884122307953,0.04601458793044891,0.02421994995090846,0.03874326761852839,0.0010331889268553576
1.5007866887041925,0.03391266896856934,0.050049712954670124,0.02666061786266369,0.044469779852338534,0.00020705245416778196
1.500858205859119,0.0368882624749449,0.05454025297847792,0.029368029530911475,0.051318434581720286,-0.0009632865751517169
1.5009297230140457,0.0390355018056212,0.059452984092331115,0.03287087235373193,0.059572069508708365,-0.002167114325869184
1.5010012401689723,0.04067274274449097,0.06105337396164129,0.0349635290275476,0.0656584348137596,-0.003478265702925788
1.5010727573238989,0.04213722341942038,0.061113627660562816,0.036798409825528795,0.06925206752595506,-0.003735338822626394
1.5011442744788255,0.043587855733941964,0.06099265351907061,0.03793328428010061,0.07241558074916368,-0.004376468332154354
1.501215791633752,0.044880915226329254,0.060506136758401545,0.03824814004694497,0.07493362865805729,-0.00539533862726463
1.5012873087886787,0.045592465454410994,0.061414264854047856,0.03896037083855539,0.07814548700557875,-0.006427088762112146
1.5013588259436053,0.04519857422015515,0.06069108340574487,0.038338310339186395,0.07837875096051568,-0.007084306062981747
1.5014303430985318,0.04331902735671992,0.05703755143455344,0.03525172960142179,0.07776966070170274,-0.009438411976598947
1.5015018602534584,0.03989064242203222,0.049278257472065046,0.029380562295107576,0.07391256631813811,-0.012527944592917905
1.501573377408385,0.035207008956161204,0.04020280299531177,0.02275340008029923,0.0690278643758374,-0.01573744117177829
1.5016448945633116,0.029854908046904056,0.03193451167779452,0.01716592382272006,0.061764375772702454,-0.016826748898941233
1.5017164117182382,0.02460404968418353,0.02504221361042144,0.01272729457488559,0.0536673702615053,-0.016498646133306722
1.5017879288731648,0.020274028275387688,0.020944046672134002,0.010756457121333964,0.046627290972484324,-0.01458918340198283
1.5018594460280914,0.01756978332877583,0.01900571255544706,0.009814843547662735,0.04250370901871328,-0.013288524693208108
1.501930963183018,0.016887968997375314,0.018652326333813772,0.009773529530205848,0.038513528235618245,-0.0112822630051501
1.5020024803379446,0.018154766828972088,0.017965659109098503,0.009545857603491862,0.035089326017914736,-0.009726444866795476
1.5020739974928712,0.020807783027131654,0.01863512367094207,0.00997328939183271,0.03299764242228059,-0.008289006124173246
1.5021455146477978,0.023992628107040868,0.021205768250414182,0.01144212206274167,0.032627431413881365,-0.00683623288968947
1.5022170318027244,0.026898257150269028,0.025655728422231138,0.014028974316248104,0.03485594627037165,-0.0057504095394943595
1.502288548957651,0.029041972437567,0.030324446964052364,0.016679671046279716,0.03832265360259971,-0.005242495886814742
1.5023600661125776,0.03036170293294545,0.03528008285294192,0.019990738498687276,0.04240887250576103,-0.004482610520788566
1.5024315832675041,0.031115659296329378,0.03585495112198056,0.02077896981185265,0.04488135405276573,-0.005068849461732915
1.5025031004224307,0.031680428730509906,0.03301698717569668,0.019519808615351825,0.04533619355962374,-0.006385704216186327
1.5025746175773573,0.032340192227813126,0.029350524910634765,0.018649627815208736,0.04327069751005665,-0.006078028584809668
1.502646134732284,0.033131945974426154,0.02671260155540758,0.017871043624403338,0.03995574720185332,-0.005052432891708501
1.5027176518872105,0.033797027787609374,0.02625525779906085,0.01799769758677829,0.03846347263875475,-0.0041801816872125575
1.502789169042137,0.033871437590867574,0.025019211353624726,0.017486670760106647,0.03620552154330289,-0.0034652858130153987
1.5028606861970637,0.03289397904446062,0.0218487027141037,0.015274482970942199,0.03358132739046881,-0.0040270098174022525
1.5029322033519903,0.030638444170610023,0.018174462277504858,0.012011118949132128,0.03136657654121424,-0.005702058131086801
1.5030037205069169,0.02725242384486997,0.016189859575143913,0.009441040885373031,0.030033705052957816,-0.007231168724105713
1.5030752376618435,0.023245599290448483,0.017574864204450216,0.008606550278537486,0.029693917118298316,-0.00777513773923381
1.50314675481677,0.019358366958489085,0.020896537422743264,0.008953985446160287,0.02999326200357319,-0.007629388079814166
1.5032182719716967,0.01638051368297583,0.025127565896721653,0.010426555451109277,0.030556564278342656,-0.006650873865330911
1.5032897891266233,0.01497089818834955,0.02924637437235111,0.012350463029946239,0.031525363535455174,-0.005491338683716599
1.5033613062815498,0.015499460648454992,0.03251293188628282,0.013981854206916533,0.031947084541140605,-0.004303536820821235
1.5034328234364764,0.01793079665045714,0.032908995512497465,0.01416864675154985,0.030088390500008607,-0.003192573644387388
1.503504340591403,0.021792554285279486,0.03229673958626727,0.013806564009865633,0.028078119137364608,-0.0024764093776824523
1.5035758577463296,0.026283745634476982,0.03487551693390158,0.015751292513310384,0.028796696039698356,-0.0011707380086197598
1.5036473749012562,0.03053094650102892,0.04002131866973038,0.019003856556851165,0.03365619622811483,-0.0008561771020045562
1.5037188920561828,0.03389868374654469,0.046952799037216546,0.02304438568669538,0.04213413973148185,-0.0017129212215348532
1.5037904092111094,0.03619247413189749,0.0554027416868451,0.02836367437687625,0.05103125896911722,-0.00168194982708609
1.503861926366036,0.03764566473947448,0.06172367326502463,0.03246316988130233,0.059196493288395574,-0.0023264991508436476
1.5039334435209626,0.038716510453014726,0.06466719658304668,0.03408384953452373,0.06683344604982715,-0.0048394224302489835
1.5040049606758892,0.0398171228344044,0.06609788755772063,0.03557140334761458,0.07242628256758506,-0.006421704798574512
1.5040764778308158,0.041095739566223526,0.06936769806010815,0.037525773851031737,0.07720372951325032,-0.007183619918477634
1.5041479949857424,0.04234364882306056,0.07261165640271976,0.038887791087543686,0.08193011407705242,-0.008431729639908429
1.504219512140669,0.043051695709888996,0.0740222340519411,0.03921573232033744,0.08570090054498389,-0.010084223699000416
1.5042910292955955,0.04260283060723393,0.06950394478333544,0.036347749549566495,0.08601286429246724,-0.012723862922987267
1.5043625464505221,0.04053910287302065,0.05890399795096613,0.030363706364527798,0.08172712863845344,-0.015691433013421338
1.5044340636054487,0.03679439695722014,0.04559773220238146,0.02344001313236871,0.07276537646448736,-0.01706340111349627
1.5045055807603753,0.03178229372791513,0.03396627982501944,0.01698689592080203,0.06420090550446197,-0.01823038496573759
1.504577097915302,0.026296542555493532,0.026028905508074334,0.012446934359831944,0.056559323577614076,-0.018221835345092478
1.5046486150702285,0.021278189004975218,0.023147248643075748,0.011187449324425095,0.05024295495194437,-0.016069782071009626
1.504720132225155,0.017555651134353225,0.022344246164721745,0.011283372248322305,0.04548822658004323,-0.01355266084833109
1.5047916493800817,0.01564621916050789,0.02133705908042916,0.010644076718018416,0.04195046436162979,-0.012291974151350967
1.5048631665350083,0.015656872938766518,0.019261329681063488,0.009217644422453899,0.037292872308650846,-0.011135953202139576
1.5049346836899349,0.017286051262519187,0.017855170965977666,0.008230188330603324,0.03300964705518985,-0.009794400581077502
1.5050062008448615,0.019918755698584013,0.01784431154650783,0.007905738300784866,0.029479388397923086,-0.008268157690265815
1.505077717999788,0.022804926807040774,0.020081122703731236,0.009361654152707073,0.02696374466927412,-0.00572988339782437
1.5051492351547147,0.025289013466251117,0.024904895435641984,0.011726326065843064,0.03002024903253375,-0.005258669190337534
1.5052207523096413,0.027015644551186973,0.029733117751259024,0.014241445734319206,0.03355353015294214,-0.004901598863516922
1.5052922694645678,0.028012475009877,0.03211582361479666,0.015961322224474977,0.03490507020883485,-0.004112898722548965
1.5053637866194944,0.028596359216805502,0.0287992828156834,0.014919408532213189,0.03311954664938776,-0.004096398412721815
1.505435303774421,0.02915112616185344,0.022371213632221963,0.013309044659559194,0.028767973223060586,-0.0032570248803414263
1.5055068209293476,0.029900153036102176,0.017886845289061107,0.012321918805932341,0.02496378835368954,-0.0021615702145447004
1.5055783380842742,0.030782681811496897,0.017217900318612422,0.01250866989698158,0.023497352119302786,-0.001251462895539993
1.5056498552392008,0.03146961942071043,0.019520668426361423,0.013496870470295333,0.025482212456771507,-0.001415939144048687
1.5057213723941274,0.03149161794629547,0.02069675051621315,0.013134126432083434,0.028114082604900444,-0.00307322496969066
1.505792889549054,0.030427310908792447,0.02029275384652979,0.011855838401314541,0.030352017745536856,-0.005316891223818336
1.5058644067039806,0.02809465201809536,0.01825136420529108,0.009674998552531539,0.030437510244757566,-0.007236418237973338
1.5059359238589072,0.024683284499830333,0.014671569478456563,0.006168765257997816,0.02949947968265311,-0.00977217728005874
1.5060074410138338,0.020766913938386953,0.012479810903634142,0.003987129865862614,0.028102749547406315,-0.010933951296727043
1.5060789581687604,0.017165658691511196,0.013649288314072675,0.004506773893992003,0.02654862355907787,-0.009692520775879707
1.506150475323687,0.014695536880755058,0.0161697487364137,0.005603202541494299,0.026442267563958573,-0.008695365747216218
1.5062219924786135,0.013907828977730352,0.018317868480840823,0.006474304461408025,0.025991256624603196,-0.007715734520725952
1.5062935096335401,0.014929925183180436,0.01872840942962535,0.007024475314287043,0.02314844528147298,-0.005789428705590033
1.5063650267884667,0.01746107614733839,0.017650619665462414,0.006681651925523114,0.02097246798867678,-0.004972016184085131
1.5064365439433933,0.020900617081537138,0.019126239721562813,0.008103902228742074,0.019955495385217962,-0.0032293143047764637
1.50650806109832,0.024545654709518663,0.023112528979132057,0.01119024144466396,0.01909434884295274,-0.00013524197334101426
1.5065795782532465,0.027795889555703463,0.030033426039261815,0.015188716512202768,0.02310449631161612,0.0012544617031433386
1.506651095408173,0.030315638754338018,0.03917723750208836,0.02020329875354711,0.029436289299281597,0.002332959527137043
1.5067226125630997,0.03210575674634778,0.048327660099614464,0.02516307524326057,0.03689071771868169,0.0027922666631242815
1.5067941297180263,0.03344435853615213,0.053551115159129206,0.02809340030703321,0.04302472699082339,0.0021802047073505733
1.5068656468729529,0.03469846610783441,0.054003260087956674,0.028836225363534616,0.0461475512221155,0.0012233681884704654
1.5069371640278795,0.03608805388876267,0.05299233251601529,0.029158238083419115,0.04735713883487256,0.000882236217245763
1.507008681182806,0.03753193323000867,0.05277985650983451,0.029645090979329304,0.049412372623998016,0.0002505865459710741
1.5070801983377327,0.038657419159163646,0.05293861028088347,0.03000532215028713,0.05106346475822307,-0.00028355667120888076
1.5071517154926592,0.038950459296790155,0.0517428491031164,0.029635790998015537,0.05095040729699042,-0.0005442192208581233
1.5072232326475858,0.03795818995272562,0.04626980373586783,0.026170643808596194,0.04961054433144035,-0.0028447213581077923
1.5072947498025124,0.035465807062779846,0.039322188505451626,0.02167628316777021,0.04668066079106156,-0.005216809202724946
1.507366266957439,0.03160750390290827,0.03360834694973106,0.01779655130545853,0.043356539525212616,-0.0068562936126323765
1.5074377841123656,0.02689036393457737,0.028741765838661018,0.014369878001425985,0.040490899879942956,-0.008339336376906276
1.5075093012672922,0.022110982309926926,0.024496948717247922,0.012274203971852665,0.03648961991726317,-0.00809564580171099
1.5075808184222188,0.018158898886019043,0.021847876261618642,0.010838451012952628,0.03455990750745838,-0.00834379141777368
1.5076523355771454,0.015750547010193554,0.02025704953284283,0.009985828883372298,0.03268919572794265,-0.008120481430060668
1.507723852732072,0.015198153002695225,0.017239137749311493,0.008495434228764531,0.028606176699908996,-0.007314541266176178
1.5077953698869986,0.01632710132796861,0.013174904685570053,0.006411917338543193,0.023205354265431213,-0.006345244050194947
1.5078668870419252,0.01858159605132472,0.010234751276783806,0.00521914285473996,0.017947095307535004,-0.004683307951610014
1.5079384041968518,0.02125563485920751,0.008537829956110278,0.005152249488431391,0.012268905303754997,-0.0018392378959807586
1.5080099213517784,0.023737553869918368,0.008486574214722006,0.0057615299185219465,0.00894111375540547,0.00038487807742817
1.508081438506705,0.025680396681245936,0.010472846066880223,0.007453924502377228,0.007454454848682654,0.0025994081686809556
1.5081529556616315,0.027059576075294776,0.0122670431034126,0.008842952470356694,0.006794662227682217,0.004130675694530702
1.5082244728165581,0.028112039179855254,0.01143838773444648,0.008942296206187028,0.005166200641492439,0.0050480156031753876
1.5082959899714847,0.029172386947160022,0.009242079424625994,0.008780907310022895,0.0038036066439079454,0.005605367130276554
1.5083675071264113,0.03045818310099522,0.009204078527293007,0.010026451111954632,0.003587745080063732,0.006786445433048766
1.508439024281338,0.03190386747651281,0.013253744499728562,0.012747040105629182,0.00605643137375855,0.00786437636160253
1.5085105414362645,0.03314377564440417,0.019303703460643976,0.01600259242207933,0.011020241275568514,0.008128138616597834
1.508582058591191,0.03366149064758627,0.024285713455620556,0.0186299276568245,0.015843403373978892,0.007924062663069121
1.5086535757461177,0.03301661123576188,0.024034113110102135,0.017302793300784304,0.0182095469887901,0.005573874858260756
1.5087250929010443,0.031031763736761156,0.01991321583505242,0.013978643770450466,0.018170179419654365,0.002734973811512495
1.5087966100559709,0.02787943173947238,0.014558846319339826,0.009773118861112214,0.016106712951758043,0.00017278623709742643
1.5088681272108975,0.024071143965329337,0.00960491392741482,0.005405399448016361,0.014561697344641423,-0.0027931575873901527
1.508939644365824,0.020368522042175177,0.005684268996126245,0.002619426200917792,0.011806853434214996,-0.0037806369722218824
1.5090111615207507,0.017622660517009992,0.0038047736044097657,0.001280243020763253,0.0107735168208526,-0.004403897185882669
1.5090826786756772,0.016549556574789192,0.003191917313552955,0.001094148915450876,0.01105928746512142,-0.004709895294888509
1.5091541958306038,0.01749078347259404,0.0033016135245377363,0.001728275756159572,0.010355902149865688,-0.0038053526560639208
1.5092257129855304,0.02026609634215111,0.003979291936786546,0.002622344403247119,0.008468858430224348,-0.002072567403704686
1.509297230140457,0.024225306810832306,0.007571236643249166,0.005090188490138515,0.007974442967083951,0.00030161201977324336
1.5093687472953836,0.028505184243561566,0.01574446405293064,0.010396256019729185,0.009610722134145284,0.004027497596140148
1.5094402644503102,0.032363241212534366,0.026951969091661747,0.017181792517199104,0.01411288898545673,0.007562509016714614
1.5095117816052368,0.035420479974014,0.039155738573287906,0.023785576506019895,0.020384541616923865,0.010039809929530456
1.5095832987601634,0.03772295943106026,0.048075399180280275,0.028541189697550762,0.02484752402378228,0.011853220345944201
1.50965481591509,0.039632532833370364,0.050468133752708706,0.030196375009199177,0.026551626860567525,0.01240788355408925
1.5097263330700166,0.041605230836871475,0.04547690177113051,0.028415936049993602,0.024923162611661696,0.011706779709634414
1.5097978502249432,0.04392716574129624,0.03802054601666416,0.026087173799228647,0.019240603690129338,0.012604392534973629
1.5098693673798698,0.04649881119729661,0.033789380681658036,0.025125670272120693,0.013992500185991151,0.014456882319292569
1.5099408845347964,0.048782229516577,0.03404657399386338,0.025898717163670308,0.01298735919336526,0.015635105374636356
1.510012401689723,0.04998265464348263,0.03706641154154235,0.027970420605425636,0.01435197608521537,0.016720750004719113
1.5100839188446495,0.04939582665258717,0.03758265149408381,0.02744804663090382,0.01562495980132632,0.01562142402540971
1.5101554359995761,0.046726633743720845,0.03505336534740577,0.024915387052692306,0.015939712333773146,0.01328171835461146
1.5102269531545027,0.04221494386441091,0.03216031655365353,0.022036546886626967,0.015597063236736463,0.010980127013191336
1.5102984703094293,0.0365554045951188,0.030518713232434515,0.019143160662124768,0.016836043102760438,0.00785847535726112
1.510369987464356,0.030705701566729478,0.030582561931018253,0.01712115674686206,0.019217315394371312,0.004902799943239046
1.5104415046192825,0.025671938650474672,0.03185140525555029,0.016152578444133103,0.021923406392003675,0.002687064910062166
1.510513021774209,0.02230380117340663,0.0336059301810853,0.01595046449902194,0.0250662264216338,0.000907222807898206
1.5105845389291357,0.02110478427342222,0.03219641907791671,0.014310671393420193,0.0256601919661883,-0.0008068995329589059
1.5106560560840623,0.022087028251984653,0.027045962279745612,0.011927341615445858,0.021299151045844768,-0.0006280351861145178
1.5107275732389889,0.02474352062355467,0.018825818880362635,0.008315005741078718,0.014715650313249713,-0.000370180485298081
1.5107990903939155,0.028206425428266402,0.01259451244588136,0.006455089330600415,0.008202244419847233,0.0013586416774921265
1.510870607548842,0.03156791810921427,0.009716797923286148,0.006924877381908108,0.003443976261536543,0.004193477219478177
1.5109421247037687,0.034217944840168574,0.010080960178680903,0.0085255112555674,0.0019903965083925257,0.006312104547261977
1.5110136418586952,0.036025983655989566,0.013467667474790923,0.01161661354179527,0.0026442152321524905,0.00863552367657934
1.5110851590136218,0.03729532439305516,0.015121183412436642,0.013294021431409462,0.003937113710985124,0.00941722364569383
1.5111566761685484,0.03854470610167679,0.013668754154395545,0.013163190298163863,0.00541268716055739,0.008551007882955418
1.511228193323475,0.04022460916569971,0.012247896834253723,0.013651672900344249,0.004894579214953166,0.009235646715895727
1.5112997104784016,0.04246467581659284,0.013146090162099012,0.01442102957265151,0.0050606466508649976,0.009812302462281283
1.5113712276333282,0.04493429586497486,0.018245854695064668,0.016921655013448497,0.00786064828831104,0.01053228516728461
1.5114427447882548,0.04689231770787431,0.02425128867851745,0.019784155718843215,0.011639638249738666,0.011063876373310631
1.5115142619431814,0.047454803887083834,0.026846340963865116,0.02007376929597759,0.014656552625389358,0.009772145328335568
