freq,gls,usurper,pdc_unbiased,shape_periodogram,shift_periodogram
1.5,0.031605246424144244,0.03332431274515448,0.022003088454338578,0.03946690663458462,-0.0009954302951983183
1.5000715171549266,0.028595336453250155,0.026638034642873787,0.01679692217781675,0.03246711622110724,-0.0019454073882496348
1.5001430343098532,0.024797888546036324,0.02088959688146716,0.011419584810450916,0.027096150987144282,-0.0038663990878527632
1.5002145514647798,0.020789812632417533,0.018970304098823897,0.008796510756732951,0.02276524379551649,-0.003936568024473317
1.5002860686197064,0.017345459787468324,0.0214925398592578,0.009479677332466734,0.02113699117861283,-0.0025227368620902566
1.500357585774633,0.015271945925960987,0.025984151404912982,0.011714688134418397,0.02166310042056147,-0.0008607561149016801
1.5004291029295596,0.015165201318802408,0.031511253355398026,0.01415548030345099,0.025419182702213047,-0.000656281659349337
1.5005006200844861,0.01716595655706576,0.036701632652156556,0.016954003693511403,0.027828188546262844,0.0005393087338062721
1.5005721372394127,0.02086274426290797,0.040868582344874844,0.019187221778694714,0.02936282731653712,0.0016900676690740576
1.5006436543943393,0.02544081002802935,0.04453122798978566,0.02137618975240262,0.030610034258905287,0.002948490755429284
1.500715171549266,0.03000884122307953,0.04858297459959768,0.02421994995090846,0.0313783085534282,0.005015191776096458
1.5007866887041925,0.03391266896856934,0.053379302086523715,0.02666061786266369,0.036208539258290214,0.004678025164194097
1.500858205859119,0.0368882624749449,0.0588690130188956,0.029368029530911475,0.04343040899215691,0.003360637314709607
1.5009297230140457,0.0390355018056212,0.06480081516825563,0.03287087235373193,0.05332767129604235,0.0013754563288880615
1.5010012401689723,0.04067274274449097,0.06710948077404984,0.0349635290275476,0.062084302140988847,-0.0012530747383294244
1.5010727573238989,0.04213722341942038,0.06737905579278551,0.036798409825528795,0.06878854882862828,-0.003065645546164787
1.5011442744788255,0.043587855733941964,0.06722551715289678,0.03793328428010061,0.07430600666564503,-0.0048836269843026405
1.501215791633752,0.044880915226329254,0.0665405832479669,0.03824814004694497,0.07787585692683636,-0.0064242708577750465
1.5012873087886787,0.045592465454410994,0.06729734863781572,0.03896037083855539,0.08085695078906137,-0.007321886047581735
1.5013588259436053,0.04519857422015515,0.0665183265530217,0.038338310339186395,0.08052833206063616,-0.007694242518689979
1.5014303430985318,0.04331902735671992,0.06287327144430196,0.03525172960142179,0.07877977775484309,-0.009480949184458713
1.5015018602534584,0.03989064242203222,0.055174968818597916,0.029380562295107576,0.07443366126551977,-0.012357053278708612
1.501573377408385,0.035207008956161204,0.04585506536542668,0.02275340008029923,0.06909162668859638,-0.015376284427178415
1.5016448945633116,0.029854908046904056,0.03720051701521787,0.01716592382272006,0.061837050446506135,-0.01652070175195739
1.5017164117182382,0.02460404968418353,0.02974738535622455,0.01272729457488559,0.054060668072644466,-0.016406566411252304
1.5017879288731648,0.020274028275387688,0.024895756456114557,0.010756457121333964,0.04707196330253808,-0.014562210215757064
1.5018594460280914,0.01756978332877583,0.022287504811781194,0.009814843547662735,0.04282392340926674,-0.013220700424455296
1.501930963183018,0.016887968997375314,0.021131185995175418,0.009773529530205848,0.03763248395956068,-0.010624688420811686
1.5020024803379446,0.018154766828972088,0.01969155807620664,0.009545857603491862,0.032366596441021904,-0.008152863049337981
1.5020739974928712,0.020807783027131654,0.019895587196824476,0.00997328939183271,0.028378815725354018,-0.005764016452143842
1.5021455146477978,0.023992628107040868,0.02248892200838385,0.01144212206274167,0.026374805443583425,-0.003481654663356775
1.5022170318027244,0.026898257150269028,0.027343121609718222,0.014028974316248104,0.02798454537686338,-0.002064447317199001
1.502288548957651,0.029041972437567,0.03273938870708956,0.016679671046279716,0.032164775205153734,-0.0018935003764747262
1.5023600661125776,0.03036170293294545,0.03860810604925743,0.019990738498687276,0.03804517059312631,-0.0020132111908173914
1.5024315832675041,0.031115659296329378,0.03990457559570137,0.02077896981185265,0.04355179249069587,-0.0041225279923566786
1.5025031004224307,0.031680428730509906,0.037339289825960666,0.019519808615351825,0.04742793426207838,-0.007175042613458555
1.5025746175773573,0.032340192227813126,0.03331243431878631,0.018649627815208736,0.04808574464416719,-0.008260269840603346
1.502646134732284,0.033131945974426154,0.029990185205714386,0.017871043624403338,0.04612561333125007,-0.007938919064120448
1.5027176518872105,0.033797027787609374,0.029057922614692245,0.01799769758677829,0.04478617727281144,-0.0071504820853795815
1.502789169042137,0.033871437590867574,0.027438141237437246,0.017486670760106647,0.04192548544590702,-0.006141803970198069
1.5028606861970637,0.03289397904446062,0.023979347061279965,0.015274482970942199,0.03856957226477883,-0.006351223409452108
1.5029322033519903,0.030638444170610023,0.020148921427869018,0.012011118949132128,0.03546346322377933,-0.00759433400318437
1.5030037205069169,0.02725242384486997,0.01814874374712846,0.009441040885373031,0.033470998651166664,-0.008802848675541175
1.5030752376618435,0.023245599290448483,0.019770621259962047,0.008606550278537486,0.03308853667770357,-0.009329175044817553
1.50314675481677,0.019358366958489085,0.02333554577229365,0.008953985446160287,0.03327977383822247,-0.009126260463142065
1.5032182719716967,0.01638051368297583,0.027779747360428965,0.010426555451109277,0.03350706547477862,-0.007970651176998895
1.5032897891266233,0.01497089818834955,0.03194390883373825,0.012350463029946239,0.03357238848086934,-0.006343340573462696
1.5033613062815498,0.015499460648454992,0.035130872387963454,0.013981854206916533,0.03224020597231048,-0.004260435256896394
1.5034328234364764,0.01793079665045714,0.03537216677349885,0.01416864675154985,0.02810210952519989,-0.0020034379645653268
1.503504340591403,0.021792554285279486,0.03449985554425749,0.013806564009865633,0.023053012483001574,0.00024059911423055956
1.5035758577463296,0.026283745634476982,0.03695052929516882,0.015751292513310384,0.021006034280884624,0.002955017087865354
1.5036473749012562,0.03053094650102892,0.0424141940491488,0.019003856556851165,0.024544059693916535,0.003971253278248681
1.5037188920561828,0.03389868374654469,0.049983902149716465,0.02304438568669538,0.03331406661427064,0.003019964594325257
1.5037904092111094,0.03619247413189749,0.05974544349593952,0.02836367437687625,0.04429921228668902,0.0020524681828497965
1.503861926366036,0.03764566473947448,0.06735417004397973,0.03246316988130233,0.05526041792320718,4.313679129011391e-05
1.5039334435209626,0.038716510453014726,0.0713460976799916,0.03408384953452373,0.06584100889127383,-0.003920598270949829
1.5040049606758892,0.0398171228344044,0.07337953047843793,0.03557140334761458,0.0741522955826608,-0.006852230224025062
1.5040764778308158,0.041095739566223526,0.07692152410081778,0.037525773851031737,0.08058462023875147,-0.008427368137054806
1.5041479949857424,0.04234364882306056,0.08029864235301674,0.038887791087543686,0.08532472456085562,-0.009656939432208985
1.504219512140669,0.043051695709888996,0.0815934170756129,0.03921573232033744,0.08789576717080391,-0.01068073136538039
1.5042910292955955,0.04260283060723393,0.07693341396416047,0.036347749549566495,0.08722675620133537,-0.012828030837184048
1.5043625464505221,0.04053910287302065,0.06588314177255479,0.030363706364527798,0.08245896900535112,-0.015587801999202833
1.5044340636054487,0.03679439695722014,0.0518533643113379,0.02344001313236871,0.07357606221487031,-0.01706223520714411
1.5045055807603753,0.03178229372791513,0.03943910342574493,0.01698689592080203,0.06534458886834664,-0.018457425985767887
1.504577097915302,0.026296542555493532,0.03069879837191973,0.012446934359831944,0.0579666833267042,-0.01863172884774948
1.5046486150702285,0.021278189004975218,0.027054925370968316,0.011187449324425095,0.05213969647049248,-0.016761269439361633
1.504720132225155,0.017555651134353225,0.02548630340415584,0.011283372248322305,0.04773347111822333,-0.01444286426558045
1.5047916493800817,0.01564621916050789,0.02368918473840456,0.010644076718018416,0.043716307809279875,-0.0129574148776457
1.5048631665350083,0.015656872938766518,0.020977916136361883,0.009217644422453899,0.037863088733593446,-0.011221308955133688
1.5049346836899349,0.017286051262519187,0.01916431139348747,0.008230188330603324,0.03117295217184036,-0.008683437117739968
1.5050062008448615,0.019918755698584013,0.0189472372194466,0.007905738300784866,0.025466445378638253,-0.006072953097819142
1.505077717999788,0.022804926807040774,0.02127164504072744,0.009361654152707073,0.021472609701163763,-0.002794487759108241
1.5051492351547147,0.025289013466251117,0.02665828778139322,0.011726326065843064,0.024792810131923592,-0.002435331660642467
1.5052207523096413,0.027015644551186973,0.032413297194375856,0.014241445734319206,0.03074995087081066,-0.0032815619876884108
1.5052922694645678,0.028012475009877,0.035721903358107425,0.015961322224474977,0.035253835940949746,-0.004078314234659475
1.5053637866194944,0.028596359216805502,0.03308575772975768,0.014919408532213189,0.03683106911994573,-0.005776859630221538
1.505435303774421,0.02915112616185344,0.026633618380367964,0.013309044659559194,0.03533369983174567,-0.00640830101857673
1.5055068209293476,0.029900153036102176,0.02167271843116612,0.012321918805932341,0.033308961242116734,-0.006234522954671816
1.5055783380842742,0.030782681811496897,0.0204930321262803,0.01250866989698158,0.032086081331345974,-0.005453860848826927
1.5056498552392008,0.03146961942071043,0.022324209127524655,0.013496870470295333,0.03272076167011004,-0.004922457368003089
1.5057213723941274,0.03149161794629547,0.023288640731638485,0.013134126432083434,0.033657706102634175,-0.005710181632747759
1.505792889549054,0.030427310908792447,0.02286001968102886,0.011855838401314541,0.034190153057449456,-0.007083215145269833
1.5058644067039806,0.02809465201809536,0.02082354935445692,0.009674998552531539,0.032653730668609625,-0.008186891279285373
1.5059359238589072,0.024683284499830333,0.017377057482066412,0.006168765257997816,0.03086667914310396,-0.010306905526753635
1.5060074410138338,0.020766913938386953,0.015190456070737343,0.003987129865862614,0.028784871021704638,-0.01113440325388162
1.5060789581687604,0.017165658691511196,0.016287864033504296,0.004506773893992003,0.026609480849974797,-0.009584199046321212
1.506150475323687,0.014695536880755058,0.018764379847579473,0.005603202541494299,0.025709028913867924,-0.008182268278699806
1.5062219924786135,0.013907828977730352,0.020810256819080445,0.006474304461408025,0.02453058991148572,-0.006833954433734508
1.5062935096335401,0.014929925183180436,0.020838708991380434,0.007024475314287043,0.020332105179797163,-0.00423334090718996
1.5063650267884667,0.01746107614733839,0.019260550597633475,0.006681651925523114,0.015370277403379994,-0.002017041460989108
1.5064365439433933,0.020900617081537138,0.02022492429159595,0.008103902228742074,0.011435224079180501,0.001201684595242708
1.50650806109832,0.024545654709518663,0.024238607796090047,0.01119024144466396,0.008611952092663655,0.0052928933094911245
1.5065795782532465,0.027795889555703463,0.03181295611475949,0.015188716512202768,0.012345707551652953,0.006852719292495779
1.506651095408173,0.030315638754338018,0.042007714657595965,0.02020329875354711,0.01992704192181415,0.0073432678029481035
1.5067226125630997,0.03210575674634778,0.05259660906379885,0.02516307524326057,0.0297704488006952,0.006643530941418517
1.5067941297180263,0.03344435853615213,0.05898819768894448,0.02809340030703321,0.039162906031061,0.004420124733790899
1.5068656468729529,0.03469846610783441,0.060000180355089194,0.028836225363534616,0.045278912323836795,0.0019646546977821135
1.5069371640278795,0.03608805388876267,0.05909411922821147,0.029158238083419115,0.04878618656615403,0.00046609315017437874
1.507008681182806,0.03753193323000867,0.05871246289523905,0.029645090979329304,0.05183978267704441,-0.0006604688972655035
1.5070801983377327,0.038657419159163646,0.05851237247774815,0.03000532215028713,0.052640967512268176,-0.0007550436853383416
1.5071517154926592,0.038950459296790155,0.05687058350928807,0.029635790998015537,0.05141184094819437,-0.00045161058879613264
1.5072232326475858,0.03795818995272562,0.05111755123163188,0.026170643808596194,0.04909426840397547,-0.002272745661308182
1.5072947498025124,0.035465807062779846,0.04385106514212052,0.02167628316777021,0.04547123288444992,-0.0043201756820952005
1.507366266957439,0.03160750390290827,0.0378093109681568,0.01779655130545853,0.04219077399907052,-0.006008653346397675
1.5074377841123656,0.02689036393457737,0.0325377412806463,0.014369878001425985,0.039703416598999015,-0.00770679333612613
1.5075093012672922,0.022110982309926926,0.027663559871168766,0.012274203971852665,0.03687490927875698,-0.008082451945286695
1.5075808184222188,0.018158898886019043,0.02441594684384037,0.010838451012952628,0.035817832105308714,-0.008786001691920902
1.5076523355771454,0.015750547010193554,0.022470982154751365,0.009985828883372298,0.034122551799406126,-0.008662835738140121
1.507723852732072,0.015198153002695225,0.018787451474704307,0.008495434228764531,0.02958375763450307,-0.007649526352965564
1.5077953698869986,0.01632710132796861,0.014294809694055707,0.006411917338543193,0.022954698417957182,-0.00608973475215417
1.5078668870419252,0.01858159605132472,0.010960301595758018,0.00521914285473996,0.015736742511708222,-0.0034641077528100436
1.5079384041968518,0.02125563485920751,0.00898771473577151,0.005152249488431391,0.008630324551355484,7.5459663538703e-05
1.5080099213517784,0.023737553869918368,0.008992926623933284,0.0057615299185219465,0.005421879062821352,0.0022249083115126527
1.508081438506705,0.025680396681245936,0.011545430135645527,0.007453924502377228,0.005467652793553104,0.0036614462159991904
1.5081529556616315,0.027059576075294776,0.014191235786525164,0.008842952470356694,0.007278393775874215,0.003943086836010811
1.5082244728165581,0.028112039179855254,0.014008375608248375,0.008942296206187028,0.008791777857833506,0.0032628249622306204
1.5082959899714847,0.029172386947160022,0.012076295111621317,0.008780907310022895,0.010666878149620734,0.002174562921720997
1.5083675071264113,0.03045818310099522,0.011998365853992056,0.010026451111954632,0.01347253939986643,0.00182890923916991
1.508439024281338,0.03190386747651281,0.015953722843866126,0.012747040105629182,0.017511349888409352,0.002131692161940723
1.5085105414362645,0.03314377564440417,0.022057629150639475,0.01600259242207933,0.0220169473760234,0.0026601643435802884
1.508582058591191,0.03366149064758627,0.026915229884646993,0.0186299276568245,0.024438311038624212,0.003702025704322709
1.5086535757461177,0.03301661123576188,0.02687003292224564,0.017302793300784304,0.024309505803426015,0.002621762309424394
1.5087250929010443,0.031031763736761156,0.022907191226376106,0.013978643770450466,0.022032266425473825,0.0009058496120186608
1.5087966100559709,0.02787943173947238,0.01751924902397273,0.009773118861112214,0.018095551235528223,-0.0007297884751990462
1.5088681272108975,0.024071143965329337,0.012525717695577098,0.005405399448016361,0.015383537933391084,-0.0031246387640327298
1.508939644365824,0.020368522042175177,0.008408179468807583,0.002619426200917792,0.012543541421410297,-0.004089957280601906
1.5090111615207507,0.017622660517009992,0.006202023853418738,0.001280243020763253,0.011210751547872086,-0.004570315530559768
1.5090826786756772,0.016549556574789192,0.005265439159490827,0.001094148915450876,0.011229103119058682,-0.004740107460436824
1.5091541958306038,0.01749078347259404,0.0048544370797959846,0.001728275756159572,0.009670953371560851,-0.003404452786434953
1.5092257129855304,0.02026609634215111,0.005163463527004367,0.002622344403247119,0.006273811660287742,-0.0009138018838180538
1.509297230140457,0.024225306810832306,0.008682634620243893,0.005090188490138515,0.003305304561780891,0.0027171470704162814
1.5093687472953836,0.028505184243561566,0.017016610616059986,0.010396256019729185,0.0029539951020367246,0.007471427462761044
1.5094402644503102,0.032363241212534366,0.028853191302372367,0.017181792517199104,0.006705886531770165,0.011426020923081629
1.5095117816052368,0.035420479974014,0.042157594450026266,0.023785576506019895,0.01359615536053965,0.013638108322017102
1.5095832987601634,0.03772295943106026,0.052113156678570506,0.028541189697550762,0.019769045684721598,0.014620764720352496
1.50965481591509,0.039632532833370364,0.05530777415644976,0.030196375009199177,0.023843413196275535,0.01398923820022852
1.5097263330700166,0.041605230836871475,0.05059078113895949,0.028415936049993602,0.025166335356727857,0.011782436818325987
1.5097978502249432,0.04392716574129624,0.042889201640518945,0.026087173799228647,0.022345050304017688,0.011198902131485102
1.5098693673798698,0.04649881119729661,0.03802714635423517,0.025125670272120693,0.018756564946721597,0.01218426185763831
1.5099408845347964,0.048782229516577,0.037452747308877876,0.025898717163670308,0.018543405965515108,0.01295941767333324
1.510012401689723,0.04998265464348263,0.03971263591246446,0.027970420605425636,0.01919181152723204,0.014419938498736276
1.5100839188446495,0.04939582665258717,0.03979313036704452,0.02744804663090382,0.019296585997828727,0.013915953697918598
1.5101554359995761,0.046726633743720845,0.03713191796121552,0.024915387052692306,0.018408328416582985,0.012178910804423524
1.5102269531545027,0.04221494386441091,0.034107701717645614,0.022036546886626967,0.01723021282414046,0.010290111940093062
1.5102984703094293,0.0365554045951188,0.03252688972987002,0.019143160662124768,0.018423959290010915,0.007188966244611628
1.510369987464356,0.030705701566729478,0.03289902924506744,0.01712115674686206,0.021318856278531143,0.003978838096625505
1.5104415046192825,0.025671938650474672,0.03448651863542717,0.016152578444133103,0.02496987431934762,0.0012947392291035953
1.510513021774209,0.02230380117340663,0.036576072492766155,0.01595046449902194,0.02901401654197189,-0.0009273411115467457
1.5105845389291357,0.02110478427342222,0.03531665325047563,0.014310671393420193,0.029450573860325232,-0.002563741236978558
1.5106560560840623,0.022087028251984653,0.029801544265988057,0.011927341615445858,0.02458239843147565,-0.0021553362087737347
1.5107275732389889,0.02474352062355467,0.020867780196555545,0.008315005741078718,0.0167893493047398,-0.001326437557099463
1.5107990903939155,0.028206425428266402,0.013908287148954725,0.006455089330600415,0.008918525602063845,0.001053319776431461
1.510870607548842,0.03156791810921427,0.010664090735487726,0.006924877381908108,0.0035393283286044236,0.004181097734553167
1.5109421247037687,0.034217944840168574,0.01117783153693022,0.0085255112555674,0.003076350855814994,0.005795961851665305
1.5110136418586952,0.036025983655989566,0.015078255171392328,0.01161661354179527,0.0059481683081476664,0.007008770382480524
1.5110851590136218,0.03729532439305516,0.017259667776788386,0.013294021431409462,0.009928224852645244,0.006441550449045497
1.5111566761685484,0.03854470610167679,0.016299935322790057,0.013163190298163863,0.013909920387699514,0.004313578599315573
1.511228193323475,0.04022460916569971,0.015194981243133558,0.013651672900344249,0.01563551578061696,0.0038616554860839585
1.5112997104784016,0.04246467581659284,0.01623055951728675,0.01442102957265151,0.017067565171142225,0.003800647501719673
1.5113712276333282,0.04493429586497486,0.021329772833372868,0.016921655013448497,0.019638685981965,0.004657081191083468
1.5114427447882548,0.04689231770787431,0.0272754484070849,0.019784155718843215,0.021722612584648325,0.006072809311009517
1.5115142619431814,0.047454803887083834,0.029659182977440413,0.02007376929597759,0.022582978542056164,0.005887347359645277
