freq,gls,usurper,pdc_unbiased,shape_periodogram,shift_periodogram
1.5,0.031605246424144244,0.030684366866280458,0.022003088454338578,0.024438794085977673,0.009998968176142518
1.5000715171549266,0.028595336453250155,0.024712856619389743,0.01679692217781675,0.018440211658738333,0.0077197041131379825
1.5001430343098532,0.024797888546036324,0.019781567775894175,0.011419584810450916,0.013841594147471636,0.0047100655212841515
1.5002145514647798,0.020789812632417533,0.01860522933701204,0.008796510756732951,0.010439815959131831,0.003719363964091846
1.5002860686197064,0.017345459787468324,0.021455443329689794,0.009479677332466734,0.008983877230131351,0.004941355843668978
1.500357585774633,0.015271945925960987,0.026053601946415532,0.011714688134418397,0.00977482391952866,0.006652972511913831
1.5004291029295596,0.015165201318802408,0.03150607491366148,0.01415548030345099,0.013585442762453914,0.0073095273331940545
1.5005006200844861,0.01716595655706576,0.03680115846956288,0.016954003693511403,0.016946763681153637,0.008477548347291102
1.5005721372394127,0.02086274426290797,0.04129138605253696,0.019187221778694714,0.01963624805636595,0.009407078885260439
1.5006436543943393,0.02544081002802935,0.045091551163526304,0.02137618975240262,0.02210001398152214,0.010389531519316509
1.500715171549266,0.03000884122307953,0.04906728909740065,0.02421994995090846,0.022510035182449945,0.012814603178476896
1.5007866887041925,0.03391266896856934,0.05336742771359023,0.02666061786266369,0.024642083729340656,0.014164031399382642
1.500858205859119,0.0368882624749449,0.05794044611049674,0.029368029530911475,0.027434422829228318,0.015485888044044136
1.5009297230140457,0.0390355018056212,0.06258525637790784,0.03287087235373193,0.031524990386614944,0.01700088321421363
1.5010012401689723,0.04067274274449097,0.06361597347181192,0.0349635290275476,0.03486402437256762,0.017538704228811017
1.5010727573238989,0.04213722341942038,0.06276740233064851,0.036798409825528795,0.036591189841517935,0.018504379157543657
1.5011442744788255,0.043587855733941964,0.06178557652714472,0.03793328428010061,0.038898244175324635,0.018592703389191056
1.501215791633752,0.044880915226329254,0.06052620754098912,0.03824814004694497,0.04182035337626089,0.01767918720680707
1.5012873087886787,0.045592465454410994,0.061142859882869785,0.03896037083855539,0.04579273708405739,0.016696919188138756
1.5013588259436053,0.04519857422015515,0.06055418369422436,0.038338310339186395,0.046902295808465125,0.015672109506981665
1.5014303430985318,0.04331902735671992,0.05745772271328486,0.03525172960142179,0.047355598400964025,0.012664733872846416
1.5015018602534584,0.03989064242203222,0.050594558433066913,0.029380562295107576,0.04581182031864331,0.007936120373322385
1.501573377408385,0.035207008956161204,0.04221892089388258,0.02275340008029923,0.04341261297246246,0.002872638119743732
1.5016448945633116,0.029854908046904056,0.03453176428423667,0.01716592382272006,0.039157647291103166,-0.0004739359775073434
1.5017164117182382,0.02460404968418353,0.027793246219041605,0.01272729457488559,0.03437364915755144,-0.002552119259470993
1.5017879288731648,0.020274028275387688,0.02342721930857873,0.010756457121333964,0.030502454963235195,-0.002754726021288113
1.5018594460280914,0.01756978332877583,0.02116411825845284,0.009814843547662735,0.02919041391253177,-0.003072891785197419
1.501930963183018,0.016887968997375314,0.020552502421845937,0.009773529530205848,0.028053137009099765,-0.0026421077753323147
1.5020024803379446,0.018154766828972088,0.01971838175050363,0.009545857603491862,0.026651376318184695,-0.002272338521370579
1.5020739974928712,0.020807783027131654,0.020281939493621205,0.00997328939183271,0.026440676069416826,-0.0017958349591127394
1.5021455146477978,0.023992628107040868,0.023069527396034132,0.01144212206274167,0.027471037926527542,-0.0008808748527369923
1.5022170318027244,0.026898257150269028,0.027703981332082555,0.014028974316248104,0.02905420957903369,0.0008261372049144382
1.502288548957651,0.029041972437567,0.03255770160073038,0.016679671046279716,0.030862522370085924,0.0024990850855658945
1.5023600661125776,0.03036170293294545,0.0375757496101986,0.019990738498687276,0.03221594126931163,0.004962283451951796
1.5024315832675041,0.031115659296329378,0.03810921447617475,0.02077896981185265,0.03290528394886442,0.005397626853827816
1.5025031004224307,0.031680428730509906,0.034850314311861315,0.019519808615351825,0.03210296122117525,0.004579164272983725
1.5025746175773573,0.032340192227813126,0.030229570107071724,0.018649627815208736,0.02883498820278041,0.00513076469522738
1.502646134732284,0.033131945974426154,0.02658765979455066,0.017871043624403338,0.024894106623994137,0.006042873903560814
1.5027176518872105,0.033797027787609374,0.025530110509946514,0.01799769758677829,0.023182075076688024,0.006863056128564463
1.502789169042137,0.033871437590867574,0.023887046960492254,0.017486670760106647,0.020844745809799524,0.007359030553795002
1.5028606861970637,0.03289397904446062,0.020738661062231236,0.015274482970942199,0.018296639097881144,0.006390675570299633
1.5029322033519903,0.030638444170610023,0.01753988625799379,0.012011118949132128,0.016435667245829528,0.004181505293956109
1.5030037205069169,0.02725242384486997,0.016299827521192554,0.009441040885373031,0.015203986815604302,0.0023456702954699703
1.5030752376618435,0.023245599290448483,0.018557520507504786,0.008606550278537486,0.015834233119860763,0.001325526857578011
1.50314675481677,0.019358366958489085,0.02252831477356772,0.008953985446160287,0.01663936061168343,0.0013107668039836998
1.5032182719716967,0.01638051368297583,0.026990474006327005,0.010426555451109277,0.017320543503224598,0.0023727121700255127
1.5032897891266233,0.01497089818834955,0.030962454614058704,0.012350463029946239,0.01857424878750957,0.0036105243979818458
1.5033613062815498,0.015499460648454992,0.03415704111883188,0.013981854206916533,0.01888465161229192,0.004970100435513903
1.5034328234364764,0.01793079665045714,0.03464468341945828,0.01416864675154985,0.01639097012325092,0.006166827080554214
1.503504340591403,0.021792554285279486,0.03392556820992322,0.013806564009865633,0.01337763515897929,0.007076977895099783
1.5035758577463296,0.026283745634476982,0.03624552154693673,0.015751292513310384,0.01310333866156145,0.008962731419199274
1.5036473749012562,0.03053094650102892,0.04109076478598191,0.019003856556851165,0.01635508220966655,0.010590043321687281
1.5037188920561828,0.03389868374654469,0.047841881648039083,0.02304438568669538,0.022152638302909478,0.011889381177815744
1.5037904092111094,0.03619247413189749,0.05645553489825043,0.02836367437687625,0.027175584180109017,0.014675860355760057
1.503861926366036,0.03764566473947448,0.06292154395040148,0.03246316988130233,0.031583953986145503,0.016604462410234132
1.5039334435209626,0.038716510453014726,0.06598385657298826,0.03408384953452373,0.03603909562313501,0.01625229728493333
1.5040049606758892,0.0398171228344044,0.06721839726906019,0.03557140334761458,0.03960698867034006,0.016143808060414204
1.5040764778308158,0.041095739566223526,0.07030246586233853,0.037525773851031737,0.04355609435964794,0.01630550952930929
1.5041479949857424,0.04234364882306056,0.07360948080435323,0.038887791087543686,0.04781228321022093,0.015800158975199728
1.504219512140669,0.043051695709888996,0.07498109397706071,0.03921573232033744,0.051199295196503104,0.014706997823660431
1.5042910292955955,0.04260283060723393,0.0704681496558155,0.036347749549566495,0.051914367084442636,0.011790704865181032
1.5043625464505221,0.04053910287302065,0.060020551423178074,0.030363706364527798,0.04963179990955914,0.00726142232083308
1.5044340636054487,0.03679439695722014,0.04681666832441197,0.02344001313236871,0.04349151240059692,0.0034669573269692695
1.5045055807603753,0.03178229372791513,0.035337090868356694,0.01698689592080203,0.037949001598117975,-0.0001393428096627189
1.504577097915302,0.026296542555493532,0.027424867694537666,0.012446934359831944,0.03345901203958471,-0.002431013120866856
1.5046486150702285,0.021278189004975218,0.024282018676365414,0.011187449324425095,0.0302222239435307,-0.002246264537727089
1.504720132225155,0.017555651134353225,0.022997472517262828,0.011283372248322305,0.028620045189722814,-0.0014988624588391868
1.5047916493800817,0.01564621916050789,0.02169347150642403,0.010644076718018416,0.02787331997697538,-0.0017742546912063574
1.5048631665350083,0.015656872938766518,0.019685441001236516,0.009217644422453899,0.026352547672547088,-0.0024485150898212603
1.5049346836899349,0.017286051262519187,0.01860879111695572,0.008230188330603324,0.02393515107800938,-0.002353191210471527
1.5050062008448615,0.019918755698584013,0.018887594366153133,0.007905738300784866,0.022151388652254134,-0.0019143906530927181
1.505077717999788,0.022804926807040774,0.021158208299286527,0.009361654152707073,0.02106534174636907,-0.0001398922124530128
1.5051492351547147,0.025289013466251117,0.02615666946727278,0.011726326065843064,0.02402840596859916,0.0007959520861344035
1.5052207523096413,0.027015644551186973,0.031064307722155456,0.014241445734319206,0.026912813467283855,0.0019017007820701357
1.5052922694645678,0.028012475009877,0.033387325486967094,0.015961322224474977,0.027058735119887156,0.003410095177777887
1.5053637866194944,0.028596359216805502,0.029927700799460475,0.014919408532213189,0.024099230283542817,0.003678358713696477
1.505435303774421,0.02915112616185344,0.022661292355462073,0.013309044659559194,0.018670165377356787,0.004444975969494367
1.5055068209293476,0.029900153036102176,0.017194023168810916,0.012321918805932341,0.014192556538038987,0.005388155499964988
1.5055783380842742,0.030782681811496897,0.015906503915604376,0.01250866989698158,0.012048925862412624,0.006440712990861717
1.5056498552392008,0.03146961942071043,0.01788206662181786,0.013496870470295333,0.012668609713093245,0.007086479201688924
1.5057213723941274,0.03149161794629547,0.019073811081161542,0.013134126432083434,0.013574010138038174,0.0063831561456752315
1.505792889549054,0.030427310908792447,0.01908313759220125,0.011855838401314541,0.014335488384699753,0.0049044472695785385
1.5058644067039806,0.02809465201809536,0.017634087972484575,0.009674998552531539,0.013616558952678439,0.003212417071949332
1.5059359238589072,0.024683284499830333,0.01483920028654671,0.006168765257997816,0.012865432684058837,0.0003257132861881978
1.5060074410138338,0.020766913938386953,0.013097067576123271,0.003987129865862614,0.012290847198638146,-0.0014261639526932082
1.5060789581687604,0.017165658691511196,0.01433217371994802,0.004506773893992003,0.011170273834598333,-0.0004912055063389198
1.506150475323687,0.014695536880755058,0.01670473295172947,0.005603202541494299,0.011214616128060805,0.0004898546774066602
1.5062219924786135,0.013907828977730352,0.01860956979889967,0.006474304461408025,0.011823846472408408,0.001033007095474595
1.5062935096335401,0.014929925183180436,0.01874834662425919,0.007024475314287043,0.010111315148604874,0.0022394565209890027
1.5063650267884667,0.01746107614733839,0.017398014329642005,0.006681651925523114,0.008383644331016682,0.002638201995776349
1.5064365439433933,0.020900617081537138,0.01854418934733687,0.008103902228742074,0.007460672000954799,0.004314406947105246
1.50650806109832,0.024545654709518663,0.022429829578971782,0.01119024144466396,0.006302252658278212,0.007604224848916049
1.5065795782532465,0.027795889555703463,0.029325176789378734,0.015188716512202768,0.008142706269101645,0.01049132676482328
1.506651095408173,0.030315638754338018,0.0385379394999955,0.02020329875354711,0.011524280518046628,0.013671243400337403
1.5067226125630997,0.03210575674634778,0.048015892399367995,0.02516307524326057,0.016106790682889224,0.016308630976973503
1.5067941297180263,0.03344435853615213,0.05342560000251009,0.02809340030703321,0.020952521550441267,0.016988504464096336
1.5068656468729529,0.03469846610783441,0.05379076168218098,0.028836225363534616,0.023623276558046146,0.01656790908607884
1.5069371640278795,0.03608805388876267,0.052453002686145396,0.029158238083419115,0.02483117218497656,0.016364999070860236
1.507008681182806,0.03753193323000867,0.05192211437686103,0.029645090979329304,0.026783956211817894,0.016006207812311872
1.5070801983377327,0.038657419159163646,0.051784501037729094,0.03000532215028713,0.028192015272189824,0.01575590556388382
1.5071517154926592,0.038950459296790155,0.05035839730406892,0.029635790998015537,0.028031683538677455,0.015484613364796363
1.5072232326475858,0.03795818995272562,0.04513088907767332,0.026170643808596194,0.027083004138573598,0.012712949217692796
1.5072947498025124,0.035465807062779846,0.038651286819087784,0.02167628316777021,0.02511165998341845,0.009423997712224625
1.507366266957439,0.03160750390290827,0.033531130842333445,0.01779655130545853,0.022728764471317563,0.006866197080434696
1.5074377841123656,0.02689036393457737,0.029121988358900234,0.014369878001425985,0.021180237490614488,0.004378932143031187
1.5075093012672922,0.022110982309926926,0.024835773812619248,0.012274203971852665,0.019603142390690245,0.0031174370191653
1.5075808184222188,0.018158898886019043,0.02194588222416903,0.010838451012952628,0.019836849837307248,0.0017122632002442872
1.5076523355771454,0.015750547010193554,0.020230388566846235,0.009985828883372298,0.020223030011283318,0.0007759593393791125
1.507723852732072,0.015198153002695225,0.017134073846113974,0.008495434228764531,0.01836269578991038,0.0001832403696986548
1.5077953698869986,0.01632710132796861,0.01313341319597018,0.006411917338543193,0.015545435802348146,-0.000556035436345629
1.5078668870419252,0.01858159605132472,0.010402847477472933,0.00521914285473996,0.012630281186260046,-0.00044301247356676345
1.5079384041968518,0.02125563485920751,0.008796918593487016,0.005152249488431391,0.009049078365512588,0.000970349858140312
1.5080099213517784,0.023737553869918368,0.00874806705759637,0.0057615299185219465,0.0066707498938764626,0.0025047146535255188
1.508081438506705,0.025680396681245936,0.010761387982699547,0.007453924502377228,0.004283583181912913,0.005029801182926346
1.5081529556616315,0.027059576075294776,0.01253776444056784,0.008842952470356694,0.0019077675041563034,0.007273674550722764
1.5082244728165581,0.028112039179855254,0.01149602152185882,0.008942296206187028,-0.0005057362577639951,0.008357661908758538
1.5082959899714847,0.029172386947160022,0.008796926605614446,0.008780907310022895,-0.002466360780235836,0.009017635397664953
1.5083675071264113,0.03045818310099522,0.008114030516706974,0.010026451111954632,-0.0022045177289307344,0.010044960149016
1.508439024281338,0.03190386747651281,0.011669588946275304,0.012747040105629182,0.0005778360401792929,0.011379166936109322
1.5085105414362645,0.03314377564440417,0.017483822702581635,0.01600259242207933,0.0052902628010343495,0.012407008335224581
1.508582058591191,0.03366149064758627,0.022258009896762652,0.0186299276568245,0.008721619305602868,0.01338999607277567
1.5086535757461177,0.03301661123576188,0.022358652282361415,0.017302793300784304,0.009994548563101545,0.011656407323513869
1.5087250929010443,0.031031763736761156,0.018756063070217974,0.013978643770450466,0.00931668278066515,0.008905171242954587
1.5087966100559709,0.02787943173947238,0.013944686105848777,0.009773118861112214,0.006688809634782621,0.006153495689634798
1.5088681272108975,0.024071143965329337,0.00959640753375011,0.005405399448016361,0.004616924796530236,0.003025601600195662
1.508939644365824,0.020368522042175177,0.005838106657522248,0.002619426200917792,0.0017304304158896483,0.0016748288329753987
1.5090111615207507,0.017622660517009992,0.0035764858319848308,0.001280243020763253,8.869458248873315e-05,0.001130218988878188
1.5090826786756772,0.016549556574789192,0.0024304980492408207,0.001094148915450876,0.0007847627495900961,0.0006740789505950029
1.5091541958306038,0.01749078347259404,0.00206094653575581,0.001728275756159572,0.0010564957688356787,0.0011401202310398438
1.5092257129855304,0.02026609634215111,0.0026850290974090654,0.002622344403247119,5.064352667656369e-05,0.0023689894295925475
1.509297230140457,0.024225306810832306,0.006521266767476625,0.005090188490138515,-0.0006364503489657798,0.0049008762817424984
1.5093687472953836,0.028505184243561566,0.01491753598086012,0.010396256019729185,0.0012801214482563476,0.008947660057788319
1.5094402644503102,0.032363241212534366,0.026446168747593157,0.017181792517199104,0.00565012993321048,0.01333376398867073
1.5095117816052368,0.035420479974014,0.03912865300936279,0.023785576506019895,0.010386950292108808,0.01740514645490677
1.5095832987601634,0.03772295943106026,0.04825683697318868,0.028541189697550762,0.013344182989341808,0.020525386907885072
1.50965481591509,0.039632532833370364,0.05059183814331121,0.030196375009199177,0.014505387426389725,0.021557499070176928
1.5097263330700166,0.041605230836871475,0.04520745467104114,0.028415936049993602,0.012880766520215784,0.020601704837043756
1.5097978502249432,0.04392716574129624,0.03694920656486082,0.026087173799228647,0.008259468532699682,0.02037860163190789
1.5098693673798698,0.04649881119729661,0.031679810892825636,0.025125670272120693,0.004173288930707664,0.021182587994526852
1.5099408845347964,0.048782229516577,0.030953713551831817,0.025898717163670308,0.004793457782130119,0.021632235186165544
1.510012401689723,0.04998265464348263,0.03336041662181583,0.027970420605425636,0.007167076795448148,0.022544838389950802
1.5100839188446495,0.04939582665258717,0.03388335074807442,0.02744804663090382,0.009003675051611943,0.021313344024533883
1.5101554359995761,0.046726633743720845,0.03195093546909847,0.024915387052692306,0.008948558800972768,0.019026848654129156
1.5102269531545027,0.04221494386441091,0.0298248566622706,0.022036546886626967,0.008472521496656829,0.01659804534962321
1.5102984703094293,0.0365554045951188,0.029290894956059785,0.019143160662124768,0.00910514253509097,0.013700064547345002
1.510369987464356,0.030705701566729478,0.030503265821328722,0.01712115674686206,0.01143323298094741,0.010898821956163294
1.5104415046192825,0.025671938650474672,0.03259147110514355,0.016152578444133103,0.014068579307612232,0.00893134055820647
1.510513021774209,0.02230380117340663,0.03484142603847569,0.01595046449902194,0.017199376446980635,0.007458607136118181
1.5105845389291357,0.02110478427342222,0.033920131378671725,0.014310671393420193,0.01830427065409885,0.005508789636018363
1.5106560560840623,0.022087028251984653,0.02896259034548037,0.011927341615445858,0.01560682308098734,0.004446314299822604
1.5107275732389889,0.02474352062355467,0.020724107430459687,0.008315005741078718,0.010610154290144773,0.0032103681002945907
1.5107990903939155,0.028206425428266402,0.014243901535602094,0.006455089330600415,0.005119956885573957,0.0037751959665106786
1.510870607548842,0.03156791810921427,0.010942045579748328,0.006924877381908108,0.0004515352788145249,0.006125043922456189
1.5109421247037687,0.034217944840168574,0.010913733657770973,0.0085255112555674,-0.001668368036210294,0.008456401409110277
1.5110136418586952,0.036025983655989566,0.014041103014092933,0.01161661354179527,-0.0026699995390427186,0.011685735170738286
1.5110851590136218,0.03729532439305516,0.015467072888369585,0.013294021431409462,-0.002454419641518255,0.013125691667794426
1.5111566761685484,0.03854470610167679,0.01379544874508268,0.013163190298163863,-0.0021575749450145677,0.012884280700825812
1.511228193323475,0.04022460916569971,0.01211443698995427,0.013651672900344249,-0.0027495405470017898,0.013573103787860792
1.5112997104784016,0.04246467581659284,0.012702373119143783,0.01442102957265151,-0.0024223140903438536,0.01413957286917458
1.5113712276333282,0.04493429586497486,0.017513414939623002,0.016921655013448497,0.00036882539483660507,0.015269904387168607
1.5114427447882548,0.04689231770787431,0.02312523789364481,0.019784155718843215,0.0038331062015686274,0.016453477522165225
1.5115142619431814,0.047454803887083834,0.02540029860807199,0.02007376929597759,0.007213917161799707,0.01532651671683661
