freq,gls,usurper,pdc_unbiased,shape_periodogram,shift_periodogram
1.5,0.031605246424144244,0.031978827191601715,0.022003088454338578,0.040276938665158496,-0.005685234660758168
1.5000715171549266,0.028595336453250155,0.024872702966745416,0.01679692217781675,0.03237233606082118,-0.005290584161869791
1.5001430343098532,0.024797888546036324,0.018923145806514025,0.011419584810450916,0.026116700303147722,-0.005998522612722603
1.5002145514647798,0.020789812632417533,0.0171347912392432,0.008796510756732951,0.02096637656002076,-0.005116411640760749
1.5002860686197064,0.017345459787468324,0.019957150750050785,0.009479677332466734,0.01881650436977328,-0.0033050424713383787
1.500357585774633,0.015271945925960987,0.024820515501329594,0.011714688134418397,0.018729621145357117,-0.0014400633781887938
1.5004291029295596,0.015165201318802408,0.030443174533630536,0.01415548030345099,0.0222827896304708,-0.0015357297239475686
1.5005006200844861,0.01716595655706576,0.03558429524580927,0.016954003693511403,0.025121360002673763,-0.0009229374850451091
1.5005721372394127,0.02086274426290797,0.0394616688449468,0.019187221778694714,0.028235983385332713,-0.0009302977383790333
1.5006436543943393,0.02544081002802935,0.04287387520017995,0.02137618975240262,0.031925907339193774,-0.0013097978512461926
1.500715171549266,0.03000884122307953,0.04661904815784336,0.02421994995090846,0.03486860865003247,-0.000720040162116793
1.5007866887041925,0.03391266896856934,0.05112395768298357,0.02666061786266369,0.04174025219772542,-0.002755637237073551
1.500858205859119,0.0368882624749449,0.05616158909542454,0.029368029530911475,0.05063682490568664,-0.005760511281686532
1.5009297230140457,0.0390355018056212,0.06153949923006024,0.03287087235373193,0.06161935911676695,-0.00934264950280664
1.5010012401689723,0.04067274274449097,0.06332401438567134,0.0349635290275476,0.07028009180692693,-0.012716351171511302
1.5010727573238989,0.04213722341942038,0.06328266910787841,0.036798409825528795,0.07612833783293209,-0.014653027181458762
1.5011442744788255,0.043587855733941964,0.06313555390471365,0.03793328428010061,0.08125827818330927,-0.01674039353101853
1.501215791633752,0.044880915226329254,0.06278832075691299,0.03824814004694497,0.08494667177130728,-0.018651135416626156
1.5012873087886787,0.045592465454410994,0.0638518891704631,0.03896037083855539,0.08858618580280325,-0.020210128119197347
1.5013588259436053,0.04519857422015515,0.06312357772720477,0.038338310339186395,0.08883026513404098,-0.020861277961670362
1.5014303430985318,0.04331902735671992,0.05926322026141035,0.03525172960142179,0.08763558384499424,-0.02267622828291715
1.5015018602534584,0.03989064242203222,0.050989924269284385,0.029380562295107576,0.08274624960327615,-0.02458580007529773
1.501573377408385,0.035207008956161204,0.04129164616472396,0.02275340008029923,0.07655367482922437,-0.026340987017884662
1.5016448945633116,0.029854908046904056,0.03242911783408044,0.01716592382272006,0.06768417673240203,-0.025676229130557924
1.5017164117182382,0.02460404968418353,0.02507141173140712,0.01272729457488559,0.05801140626935569,-0.023608783176959844
1.5017879288731648,0.020274028275387688,0.02060145220284816,0.010756457121333964,0.04940622223186197,-0.020166507736530385
1.5018594460280914,0.01756978332877583,0.01841516414248623,0.009814843547662735,0.043985634829573524,-0.017756570675564055
1.501930963183018,0.016887968997375314,0.017903304160706998,0.009773529530205848,0.038672555424000575,-0.01467996401393082
1.5020024803379446,0.018154766828972088,0.017049153726661024,0.009545857603491862,0.03405634805824092,-0.01216361634981093
1.5020739974928712,0.020807783027131654,0.017785547431596316,0.00997328939183271,0.03111625886201967,-0.010096659250445112
1.5021455146477978,0.023992628107040868,0.020679364765192037,0.01144212206274167,0.030382216063282737,-0.00847481664499758
1.5022170318027244,0.026898257150269028,0.02569521277596203,0.014028974316248104,0.03338947002851157,-0.008133428259270456
1.502288548957651,0.029041972437567,0.030876948934821544,0.016679671046279716,0.03820730777732022,-0.008799311934403876
1.5023600661125776,0.03036170293294545,0.036246779932798616,0.019990738498687276,0.044386880857056756,-0.009725816028495803
1.5024315832675041,0.031115659296329378,0.03689667890750609,0.02077896981185265,0.048947098632971746,-0.011755116162453012
1.5025031004224307,0.031680428730509906,0.03379021999009533,0.019519808615351825,0.051077317183504764,-0.014026098653446837
1.5025746175773573,0.032340192227813126,0.02974462873287111,0.018649627815208736,0.05019718685834394,-0.01421776453594338
1.502646134732284,0.033131945974426154,0.026979757463897327,0.017871043624403338,0.047453529191263555,-0.013243637839454503
1.5027176518872105,0.033797027787609374,0.026549635755979226,0.01799769758677829,0.045957334833184996,-0.012264666027446353
1.502789169042137,0.033871437590867574,0.025258907636609446,0.017486670760106647,0.04341278481617166,-0.011190219290838826
1.5028606861970637,0.03289397904446062,0.021809877801622544,0.015274482970942199,0.04005923816588343,-0.011024403392021083
1.5029322033519903,0.030638444170610023,0.01784426656970975,0.012011118949132128,0.03671368577622634,-0.011716831786235227
1.5030037205069169,0.02725242384486997,0.015685676104072278,0.009441040885373031,0.03423283195726661,-0.012351965023012315
1.5030752376618435,0.023245599290448483,0.01715481461436915,0.008606550278537486,0.032694435191819554,-0.01212938980774796
1.50314675481677,0.019358366958489085,0.020774395302487376,0.008953985446160287,0.031886043948653596,-0.011374437977356487
1.5032182719716967,0.01638051368297583,0.025445520738888807,0.010426555451109277,0.03159969877388725,-0.010011465840246562
1.5032897891266233,0.01497089818834955,0.029935397493294744,0.012350463029946239,0.031763688664258334,-0.008545367600699218
1.5033613062815498,0.015499460648454992,0.033401649661250164,0.013981854206916533,0.03154495653184605,-0.007092762361869499
1.5034328234364764,0.01793079665045714,0.033746513370691324,0.01416864675154985,0.02900595928385557,-0.005456131239663642
1.503504340591403,0.021792554285279486,0.03315480080089692,0.013806564009865633,0.026189613055499435,-0.004103214145770062
1.5035758577463296,0.026283745634476982,0.03607042072745219,0.015751292513310384,0.0264172825886621,-0.0026572673463594286
1.5036473749012562,0.03053094650102892,0.04195115926926844,0.019003856556851165,0.031801550188882345,-0.003164224152776356
1.5037188920561828,0.03389868374654469,0.049712523916740164,0.02304438568669538,0.041562576715830205,-0.005591234183322613
1.5037904092111094,0.03619247413189749,0.05896841977594978,0.02836367437687625,0.05297416293819371,-0.007946139425066535
1.503861926366036,0.03764566473947448,0.06584911626236269,0.03246316988130233,0.06378905640348256,-0.010946344607319372
1.5039334435209626,0.038716510453014726,0.06910868078048689,0.03408384953452373,0.07369585371628855,-0.015437452059219908
1.5040049606758892,0.0398171228344044,0.07063850393163441,0.03557140334761458,0.08101826701019516,-0.01852524980816855
1.5040764778308158,0.041095739566223526,0.07424662675420939,0.037525773851031737,0.08695633147524773,-0.02042200283362744
1.5041479949857424,0.04234364882306056,0.07793288466800749,0.038887791087543686,0.09227236092461208,-0.02243824091184203
1.504219512140669,0.043051695709888996,0.0796472750885868,0.03921573232033744,0.0963014652610723,-0.02454288447415317
1.5042910292955955,0.04260283060723393,0.07489220388585269,0.036347749549566495,0.0965557382906404,-0.02703344777635765
1.5043625464505221,0.04053910287302065,0.06338448923206748,0.030363706364527798,0.09146852353778016,-0.02891683578673795
1.5044340636054487,0.03679439695722014,0.048807754602202956,0.02344001313236871,0.08160727641778999,-0.028752762700283964
1.5045055807603753,0.03178229372791513,0.03606807972763747,0.01698689592080203,0.07188018532917324,-0.028285297748685812
1.504577097915302,0.026296542555493532,0.027395172613456295,0.012446934359831944,0.06262382416847785,-0.02654156246178556
1.5046486150702285,0.021278189004975218,0.024162639798316007,0.011187449324425095,0.054804679849544354,-0.022979710368911367
1.504720132225155,0.017555651134353225,0.023180175632871287,0.011283372248322305,0.04866523184560899,-0.019304557182436476
1.5047916493800817,0.01564621916050789,0.022052232563507666,0.010644076718018416,0.04405040092392422,-0.017121166555809662
1.5048631665350083,0.015656872938766518,0.01975710964713307,0.009217644422453899,0.03839439184979192,-0.014968484630230153
1.5049346836899349,0.017286051262519187,0.018148257130469483,0.008230188330603324,0.033242279858267866,-0.012755416973402506
1.5050062008448615,0.019918755698584013,0.018148961385605566,0.007905738300784866,0.028896908351118043,-0.010476916838210226
1.505077717999788,0.022804926807040774,0.02064511940041105,0.009361654152707073,0.026126392035817184,-0.007674802615920538
1.5051492351547147,0.025289013466251117,0.026091389923062695,0.011726326065843064,0.030074825981894822,-0.008064283692867403
1.5052207523096413,0.027015644551186973,0.03154985996817109,0.014241445734319206,0.03540202509255398,-0.00913825634611425
1.5052922694645678,0.028012475009877,0.034193137572850966,0.015961322224474977,0.03865031417383603,-0.00964202287007487
1.5053637866194944,0.028596359216805502,0.03060425939141671,0.014919408532213189,0.03841822675651687,-0.01035246842151724
1.505435303774421,0.02915112616185344,0.02343948630572332,0.013309044659559194,0.03507307267865758,-0.009702975158937607
1.5055068209293476,0.029900153036102176,0.018540540439977833,0.012321918805932341,0.03171705952971342,-0.008541268884947302
1.5055783380842742,0.030782681811496897,0.01784786836061162,0.01250866989698158,0.030151933337489306,-0.007474186202145881
1.5056498552392008,0.03146961942071043,0.020418559315577574,0.013496870470295333,0.03178615854873307,-0.007627657249529545
1.5057213723941274,0.03149161794629547,0.02182754039377777,0.013134126432083434,0.0341784795427436,-0.009321645107507874
1.505792889549054,0.030427310908792447,0.021306326393321286,0.011855838401314541,0.03584919559989936,-0.011337085431743648
1.5058644067039806,0.02809465201809536,0.018958571090693863,0.009674998552531539,0.035446959293323574,-0.0128724001002817
1.5059359238589072,0.024683284499830333,0.015007054659095843,0.006168765257997816,0.034048148200994756,-0.014900221493267671
1.5060074410138338,0.020766913938386953,0.01255261353630755,0.003987129865862614,0.03197759058211379,-0.015459526798498456
1.5060789581687604,0.017165658691511196,0.01371483006264097,0.004506773893992003,0.029656585205876423,-0.013680057096423021
1.506150475323687,0.014695536880755058,0.01647535663523514,0.005603202541494299,0.0285434911375036,-0.012139119593223736
1.5062219924786135,0.013907828977730352,0.018902670664184877,0.006474304461408025,0.027033005181894776,-0.010548669321131507
1.5062935096335401,0.014929925183180436,0.019354398891487427,0.007024475314287043,0.02323825441058095,-0.007883039331139933
1.5063650267884667,0.01746107614733839,0.018311175018784116,0.006681651925523114,0.02019551291299916,-0.0063822439713978
1.5064365439433933,0.020900617081537138,0.02008652225718077,0.008103902228742074,0.018370264164525547,-0.004160832953424033
1.50650806109832,0.024545654709518663,0.024668726872539154,0.01119024144466396,0.01756959025701388,-0.0011876736489895205
1.5065795782532465,0.027795889555703463,0.032587456057804824,0.015188716512202768,0.023037745725926293,-0.001138193200568117
1.506651095408173,0.030315638754338018,0.04288710356029521,0.02020329875354711,0.03175184703346084,-0.00216083799059333
1.5067226125630997,0.03210575674634778,0.053085926890375085,0.02516307524326057,0.04200442077489487,-0.0041276355678976475
1.5067941297180263,0.03344435853615213,0.05898860817000959,0.02809340030703321,0.050476106110425814,-0.0067032498359227794
1.5068656468729529,0.03469846610783441,0.0595116937634858,0.028836225363534616,0.0549580436578001,-0.008723616087877716
1.5069371640278795,0.03608805388876267,0.05843700775898755,0.029158238083419115,0.056889985144366065,-0.009593328756380842
1.507008681182806,0.03753193323000867,0.05824472602239511,0.029645090979329304,0.05897839377305745,-0.010420780988504382
1.5070801983377327,0.038657419159163646,0.05854388430006331,0.03000532215028713,0.06010797955652186,-0.010789560222322851
1.5071517154926592,0.038950459296790155,0.05726933490389783,0.029635790998015537,0.05929985969276614,-0.01061672397792356
1.5072232326475858,0.03795818995272562,0.051290125274299644,0.026170643808596194,0.05700028780252838,-0.012088513579456816
1.5072947498025124,0.035465807062779846,0.04365966355148507,0.02167628316777021,0.0531282138322608,-0.013474625538953577
1.507366266957439,0.03160750390290827,0.03726293918951112,0.01779655130545853,0.0491654259513281,-0.01430668441844672
1.5074377841123656,0.02689036393457737,0.03185384059169695,0.014369878001425985,0.04573797670931146,-0.01508342166764349
1.5075093012672922,0.022110982309926926,0.027103287003948484,0.012274203971852665,0.0413767710316336,-0.014232227857621514
1.5075808184222188,0.018158898886019043,0.024138020394474248,0.010838451012952628,0.039031431814626205,-0.014025353551434151
1.5076523355771454,0.015750547010193554,0.0222649277357199,0.009985828883372298,0.03664329109575907,-0.013320061928430197
1.507723852732072,0.015198153002695225,0.018747529434256217,0.008495434228764531,0.03154887888591688,-0.011549447604821643
1.5077953698869986,0.01632710132796861,0.014054439957116804,0.006411917338543193,0.02483169872325472,-0.009311975485791765
1.5078668870419252,0.01858159605132472,0.010601157251205785,0.00521914285473996,0.018231830610820964,-0.0064211659946841245
1.5079384041968518,0.02125563485920751,0.008634145673933686,0.005152249488431391,0.01165930737346525,-0.002633472648640304
1.5080099213517784,0.023737553869918368,0.008631622912677094,0.0057615299185219465,0.008545395538391178,-0.00031901927380803097
1.508081438506705,0.025680396681245936,0.010861631308511834,0.007453924502377228,0.008284042170135729,0.0012071452583806582
1.5081529556616315,0.027059576075294776,0.01291349147328472,0.008842952470356694,0.00946874608311615,0.0016420205171723708
1.5082244728165581,0.028112039179855254,0.012121947240965554,0.008942296206187028,0.009570506731117506,0.001663171658413625
1.5082959899714847,0.029172386947160022,0.009706873348425835,0.008780907310022895,0.009317053738324551,0.0016803221108473612
1.5083675071264113,0.03045818310099522,0.009584980714867736,0.010026451111954632,0.009761263956624244,0.0024315676354832675
1.508439024281338,0.03190386747651281,0.013980464046507785,0.012747040105629182,0.01233149565059362,0.0031375778468912493
1.5085105414362645,0.03314377564440417,0.020556631239059833,0.01600259242207933,0.017130462866871518,0.0029756057029525157
1.508582058591191,0.03366149064758627,0.02591493235430104,0.0186299276568245,0.021654541271479213,0.002464612389636266
1.5086535757461177,0.03301661123576188,0.02563194655217418,0.017302793300784304,0.02350984652370019,0.0003024080250738797
1.5087250929010443,0.031031763736761156,0.021073826343391316,0.013978643770450466,0.02277806894369196,-0.0019688506144012576
1.5087966100559709,0.02787943173947238,0.0151712560761168,0.009773118861112214,0.02000712376033709,-0.003762897665765196
1.5088681272108975,0.024071143965329337,0.009794243600619498,0.005405399448016361,0.017767463806318284,-0.005998535400086698
1.508939644365824,0.020368522042175177,0.005581286573116337,0.002619426200917792,0.014563461408962598,-0.006386422424605921
1.5090111615207507,0.017622660517009992,0.0037002545326585467,0.001280243020763253,0.013268631792682365,-0.006716246066419614
1.5090826786756772,0.016549556574789192,0.003137371517239829,0.001094148915450876,0.013334137393519106,-0.006905543983122576
1.5091541958306038,0.01749078347259404,0.0031855822432744433,0.001728275756159572,0.0120960949881087,-0.005667305471282451
1.5092257129855304,0.02026609634215111,0.003791947367363116,0.002622344403247119,0.00954661474603789,-0.0034516249630253196
1.509297230140457,0.024225306810832306,0.007559776989684215,0.005090188490138515,0.008243839275569589,-0.0006875687951139226
1.5093687472953836,0.028505184243561566,0.016425819159519354,0.010396256019729185,0.009460843882169199,0.002907274436603734
1.5094402644503102,0.032363241212534366,0.028750356116519177,0.017181792517199104,0.014472530330224082,0.005486308675107823
1.5095117816052368,0.035420479974014,0.04236235115798414,0.023785576506019895,0.022365175613421995,0.006236502875413508
1.5095832987601634,0.03772295943106026,0.05248805689319702,0.028541189697550762,0.0289004748999847,0.006280983427559098
1.50965481591509,0.039632532833370364,0.05547514786610802,0.030196375009199177,0.032508905824931614,0.005517248584337196
1.5097263330700166,0.041605230836871475,0.05030546715113721,0.028415936049993602,0.03220341386512613,0.004248537164161132
1.5097978502249432,0.04392716574129624,0.04229232646232946,0.026087173799228647,0.027285072423352184,0.0052309363020717915
1.5098693673798698,0.04649881119729661,0.03779530120763832,0.025125670272120693,0.022052860135948357,0.0075075896525531845
1.5099408845347964,0.048782229516577,0.03813542841225029,0.025898717163670308,0.02054926112856189,0.009014162758427325
1.510012401689723,0.04998265464348263,0.041406445523647986,0.027970420605425636,0.02109685992317485,0.010377237245903207
1.5100839188446495,0.04939582665258717,0.042001047283115836,0.02744804663090382,0.02138705163902027,0.009783293624657458
1.5101554359995761,0.046726633743720845,0.039173160315894545,0.024915387052692306,0.02054342922434477,0.00821880336419825
1.5102269531545027,0.04221494386441091,0.03589453171078063,0.022036546886626967,0.01915042138952971,0.006694603049496673
1.5102984703094293,0.0365554045951188,0.033976441915491255,0.019143160662124768,0.019678456451810468,0.00403636428974383
1.510369987464356,0.030705701566729478,0.033938032047648115,0.01712115674686206,0.021477739419149187,0.0013428140275068075
1.5104415046192825,0.025671938650474672,0.035225238251692,0.016152578444133103,0.023910236801541782,-0.0008656479157075969
1.510513021774209,0.02230380117340663,0.0369879166351575,0.01595046449902194,0.026904471491750657,-0.0027803979722205666
1.5105845389291357,0.02110478427342222,0.035281216512699,0.014310671393420193,0.02710053054256345,-0.0042265530379912335
1.5106560560840623,0.022087028251984653,0.029319242790943063,0.011927341615445858,0.02220628009316498,-0.0032998961861845835
1.5107275732389889,0.02474352062355467,0.01995736773943168,0.008315005741078718,0.014732505523477712,-0.0018630181892278909
1.5107990903939155,0.028206425428266402,0.012762764248349498,0.006455089330600415,0.00728599950707857,0.0009798665178107557
1.510870607548842,0.03156791810921427,0.009336179437483738,0.006924877381908108,0.0021039949136276263,0.004389582354891939
1.5109421247037687,0.034217944840168574,0.009648663894851682,0.0085255112555674,0.0011706474570159933,0.006233914947919611
1.5110136418586952,0.036025983655989566,0.013293341929702137,0.01161661354179527,0.0032117047072295103,0.007549622000125683
1.5110851590136218,0.03729532439305516,0.015148446536577527,0.013294021431409462,0.006119984758646795,0.00721148045672266
1.5111566761685484,0.03854470610167679,0.013570122535491327,0.013163190298163863,0.008873641403177875,0.005496144292878528
1.511228193323475,0.04022460916569971,0.011837206711606455,0.013651672900344249,0.009253731461368549,0.0056705063390495285
1.5112997104784016,0.04246467581659284,0.012799641238856036,0.01442102957265151,0.009945371103647953,0.00589079760321627
1.5113712276333282,0.04493429586497486,0.0183329649531372,0.016921655013448497,0.012865820784722797,0.006214049495162376
1.5114427447882548,0.04689231770787431,0.024938732071780385,0.019784155718843215,0.016540357860613836,0.006390798218683315
1.5115142619431814,0.047454803887083834,0.027968710919058802,0.02007376929597759,0.019088154075033316,0.0051370465030716305
