freq,gls,usurper,pdc_unbiased,shape_periodogram,shift_periodogram
1.5,0.031605246424144244,0.032789659905383954,0.022003088454338578,0.05755088646123869,-0.029237502388965206
1.5000715171549266,0.028595336453250155,0.026135270703435163,0.01679692217781675,0.04819832484447317,-0.02554372774467481
1.5001430343098532,0.024797888546036324,0.020415836470933032,0.011419584810450916,0.04097355844068169,-0.023578549233677273
1.5002145514647798,0.020789812632417533,0.018660610494774615,0.008796510756732951,0.03559646934500126,-0.021216100787629533
1.5002860686197064,0.017345459787468324,0.02130703498583491,0.009479677332466734,0.03373684776646734,-0.01936043394893869
1.500357585774633,0.015271945925960987,0.025887952813599617,0.011714688134418397,0.03377508961334508,-0.017929212401627297
1.5004291029295596,0.015165201318802408,0.03117971653016922,0.01415548030345099,0.03789119382561408,-0.01945414320551695
1.5005006200844861,0.01716595655706576,0.036009518785001214,0.016954003693511403,0.04065677243084514,-0.01972177349671765
1.5005721372394127,0.02086274426290797,0.03942319691184704,0.019187221778694714,0.04244673725261598,-0.019619129053611333
1.5006436543943393,0.02544081002802935,0.04233496099374551,0.02137618975240262,0.04486191406515238,-0.02001943015662296
1.500715171549266,0.03000884122307953,0.045564661219476145,0.02421994995090846,0.04758209466285416,-0.020222796380268682
1.5007866887041925,0.03391266896856934,0.04949816317957215,0.02666061786266369,0.05519048664965479,-0.024399216915933365
1.500858205859119,0.0368882624749449,0.0541458265118629,0.029368029530911475,0.06600845070892235,-0.030842662115199534
1.5009297230140457,0.0390355018056212,0.05935580580749608,0.03287087235373193,0.08021889488774948,-0.03935517544911229
1.5010012401689723,0.04067274274449097,0.061298002463199046,0.0349635290275476,0.09257423524020239,-0.04739531893342495
1.5010727573238989,0.04213722341942038,0.06158911308837801,0.036798409825528795,0.10136639886191061,-0.05290010597078691
1.5011442744788255,0.043587855733941964,0.06151033152575323,0.03793328428010061,0.1082841181280171,-0.05743994543901555
1.501215791633752,0.044880915226329254,0.06093464892770995,0.03824814004694497,0.11195578229450925,-0.0600403185494879
1.5012873087886787,0.045592465454410994,0.06167064276307613,0.03896037083855539,0.11480194626088461,-0.06175050204206749
1.5013588259436053,0.04519857422015515,0.060832560363961605,0.038338310339186395,0.11430480126968512,-0.06177777866282162
1.5014303430985318,0.04331902735671992,0.05716954272655054,0.03525172960142179,0.11112639871587968,-0.06136880974520332
1.5015018602534584,0.03989064242203222,0.0494699800258256,0.029380562295107576,0.10425037716007506,-0.059957644316191896
1.501573377408385,0.035207008956161204,0.04039206528055856,0.02275340008029923,0.09560948027368442,-0.05769729109116109
1.5016448945633116,0.029854908046904056,0.03211794013737953,0.01716592382272006,0.08559991250070004,-0.053721279534933365
1.5017164117182382,0.02460404968418353,0.025254674078321302,0.01272729457488559,0.07519861606072507,-0.04870614325023519
1.5017879288731648,0.020274028275387688,0.021203014542898,0.010756457121333964,0.06583042886509978,-0.042873635039087366
1.5018594460280914,0.01756978332877583,0.01931250123067254,0.009814843547662735,0.05936933238132535,-0.03858221029983935
1.501930963183018,0.016887968997375314,0.018937788909870742,0.009773529530205848,0.05188520866233543,-0.032929417025031875
1.5020024803379446,0.018154766828972088,0.017986869676940843,0.009545857603491862,0.044480765036922,-0.027461868331498374
1.5020739974928712,0.020807783027131654,0.018436084905730194,0.00997328939183271,0.038847804170756235,-0.02291184264567641
1.5021455146477978,0.023992628107040868,0.02099869881002798,0.01144212206274167,0.03721823218828596,-0.02071697412140025
1.5022170318027244,0.026898257150269028,0.025717879356577694,0.014028974316248104,0.04135776121334094,-0.02216489655470867
1.502288548957651,0.029041972437567,0.030827014150886452,0.016679671046279716,0.04926290271394454,-0.026427944772238404
1.5023600661125776,0.03036170293294545,0.0364308139963336,0.019990738498687276,0.05997754041847627,-0.03239563146024072
1.5024315832675041,0.031115659296329378,0.03762758669466539,0.02077896981185265,0.0698772596029944,-0.0394008843745655
1.5025031004224307,0.031680428730509906,0.03521148310006823,0.019519808615351825,0.0757856952460613,-0.04471587684550815
1.5025746175773573,0.032340192227813126,0.031664160450720916,0.018649627815208736,0.0769178630287004,-0.0461455429506926
1.502646134732284,0.033131945974426154,0.028830407571705685,0.017871043624403338,0.07374632726009164,-0.044242472225824864
1.5027176518872105,0.033797027787609374,0.02810353488485537,0.01799769758677829,0.07062302174531963,-0.04178542828589409
1.502789169042137,0.033871437590867574,0.02656159370225932,0.017486670760106647,0.06636706322266969,-0.03888526123708636
1.5028606861970637,0.03289397904446062,0.023158925438898924,0.015274482970942199,0.060790246872426144,-0.03609498762189723
1.5029322033519903,0.030638444170610023,0.01939772895536171,0.012011118949132128,0.05550467044392989,-0.03421444202760248
1.5030037205069169,0.02725242384486997,0.01738492629984227,0.009441040885373031,0.051793351841227554,-0.03307687171853391
1.5030752376618435,0.023245599290448483,0.018815393224462566,0.008606550278537486,0.050729720403479964,-0.03281492589471241
1.50314675481677,0.019358366958489085,0.022198683298839356,0.008953985446160287,0.05051977095900384,-0.032428759980336334
1.5032182719716967,0.01638051368297583,0.02650015278251447,0.010426555451109277,0.05105741616589904,-0.03187488197751607
1.5032897891266233,0.01497089818834955,0.030599722676413036,0.012350463029946239,0.05081736998185812,-0.030436044198587527
1.5033613062815498,0.015499460648454992,0.03373869861760382,0.013981854206916533,0.04916392525790189,-0.028115838073850194
1.5034328234364764,0.01793079665045714,0.03375009773343338,0.01416864675154985,0.044331102350783545,-0.02432823288548938
1.503504340591403,0.021792554285279486,0.03259884266680822,0.013806564009865633,0.03823490972035699,-0.019942705987884703
1.5035758577463296,0.026283745634476982,0.034783661779766016,0.015751292513310384,0.03550828154835748,-0.016604989807365123
1.5036473749012562,0.03053094650102892,0.03982034478817758,0.019003856556851165,0.039550806536145365,-0.017543304622691516
1.5037188920561828,0.03389868374654469,0.04680553989688485,0.02304438568669538,0.0503612375123762,-0.023100038266640425
1.5037904092111094,0.03619247413189749,0.05567702754242626,0.02836367437687625,0.06619012789705728,-0.03163803473029251
1.503861926366036,0.03764566473947448,0.06245950279601633,0.03246316988130233,0.0830111101434286,-0.041747526649426776
1.5039334435209626,0.038716510453014726,0.06585370012118799,0.03408384953452373,0.09763421533361917,-0.05183010164212056
1.5040049606758892,0.0398171228344044,0.06752443658242373,0.03557140334761458,0.1085559550382973,-0.05919480582360383
1.5040764778308158,0.041095739566223526,0.0707948814931547,0.037525773851031737,0.11563011670756759,-0.06332399490448526
1.5041479949857424,0.04234364882306056,0.07393882620275619,0.038887791087543686,0.11943141699686384,-0.06534119544178207
1.504219512140669,0.043051695709888996,0.07515600624511569,0.03921573232033744,0.12013677595279239,-0.06566642931131196
1.5042910292955955,0.04260283060723393,0.07049551592456872,0.036347749549566495,0.11622185294056099,-0.06454828929246993
1.5043625464505221,0.04053910287302065,0.05978908546828844,0.030363706364527798,0.10696947188869661,-0.06139115038822199
1.5044340636054487,0.03679439695722014,0.04632506096172563,0.02344001313236871,0.09378113167458314,-0.055854763193952904
1.5045055807603753,0.03178229372791513,0.034567835503500184,0.01698689592080203,0.08204502431761132,-0.051132389794495525
1.504577097915302,0.026296542555493532,0.026625095923615075,0.012446934359831944,0.07192767405840339,-0.04640266197428715
1.5046486150702285,0.021278189004975218,0.023865432290144904,0.011187449324425095,0.0647801712512928,-0.04179450077737058
1.504720132225155,0.017555651134353225,0.023225524353505198,0.011283372248322305,0.05920477592146514,-0.03749829509829677
1.5047916493800817,0.01564621916050789,0.022402223291696867,0.010644076718018416,0.054413942196743295,-0.03427958557557655
1.5048631665350083,0.015656872938766518,0.02031769124979959,0.009217644422453899,0.04745771159208447,-0.0299339023639814
1.5049346836899349,0.017286051262519187,0.018640923292562176,0.008230188330603324,0.040209013030126965,-0.025082373290834355
1.5050062008448615,0.019918755698584013,0.01843799579989045,0.007905738300784866,0.03421136231944818,-0.020748218638837614
1.505077717999788,0.022804926807040774,0.02057640110854783,0.009361654152707073,0.030170901672678753,-0.016735304043523455
1.5051492351547147,0.025289013466251117,0.025562815149225388,0.011726326065843064,0.03407799927627171,-0.01815117548116446
1.5052207523096413,0.027015644551186973,0.030804224779288996,0.014241445734319206,0.04215421073269225,-0.02262993925416746
1.5052922694645678,0.028012475009877,0.033661656567808215,0.015961322224474977,0.04984021072821444,-0.02733538634549613
1.5053637866194944,0.028596359216805502,0.030832801001912477,0.014919408532213189,0.054707346624124915,-0.03170935525454361
1.505435303774421,0.02915112616185344,0.024577685747259673,0.013309044659559194,0.05598385480757177,-0.03373027647338404
1.5055068209293476,0.029900153036102176,0.020070984572413308,0.012321918805932341,0.05495608559649216,-0.033595093440461604
1.5055783380842742,0.030782681811496897,0.019230226829338865,0.01250866989698158,0.053472777178980455,-0.03234747119821444
1.5056498552392008,0.03146961942071043,0.021299769548751697,0.013496870470295333,0.0537904072385557,-0.03194292591519543
1.5057213723941274,0.03149161794629547,0.022310460479589966,0.013134126432083434,0.05437808654113696,-0.0326258772056405
1.505792889549054,0.030427310908792447,0.021827700997421973,0.011855838401314541,0.05309910434409948,-0.0324903770986485
1.5058644067039806,0.02809465201809536,0.019648306028919395,0.009674998552531539,0.04954403402558923,-0.031217684687429352
1.5059359238589072,0.024683284499830333,0.015870256980386126,0.006168765257997816,0.04585912169652254,-0.030712644033669887
1.5060074410138338,0.020766913938386953,0.01346960312672224,0.003987129865862614,0.04238461760898654,-0.029502690803216502
1.5060789581687604,0.017165658691511196,0.014507025644542705,0.004506773893992003,0.039588713298642796,-0.02704385085383389
1.506150475323687,0.014695536880755058,0.01701243364791921,0.005603202541494299,0.03793846191556701,-0.025076943462120534
1.5062219924786135,0.013907828977730352,0.019195326654775864,0.006474304461408025,0.035666016374852304,-0.022785647667548176
1.5062935096335401,0.014929925183180436,0.019482009739895636,0.007024475314287043,0.030514622952170126,-0.018522517022840926
1.5063650267884667,0.01746107614733839,0.018050602194533808,0.006681651925523114,0.02426715570641934,-0.014013217545101595
1.5064365439433933,0.020900617081537138,0.019190006826471925,0.008103902228742074,0.01968240936861979,-0.0096112651827809
1.50650806109832,0.024545654709518663,0.023014768253063218,0.01119024144466396,0.017967879863285043,-0.0062962578983786445
1.5065795782532465,0.027795889555703463,0.030011708128803525,0.015188716512202768,0.024385047721395728,-0.008544187781267486
1.506651095408173,0.030315638754338018,0.039405545952335835,0.02020329875354711,0.03544655134226885,-0.013647948702719258
1.5067226125630997,0.03210575674634778,0.04900886275329007,0.02516307524326057,0.04968928307859346,-0.02120440019158345
1.5067941297180263,0.03344435853615213,0.05478367332078786,0.02809340030703321,0.06224212805392415,-0.028815737266377324
1.5068656468729529,0.03469846610783441,0.05549926012848443,0.028836225363534616,0.06983230726067437,-0.03409670726792425
1.5069371640278795,0.03608805388876267,0.0545404836235215,0.029158238083419115,0.07273589052576848,-0.03609336521210142
1.507008681182806,0.03753193323000867,0.054244918411740194,0.029645090979329304,0.07368339941938946,-0.036495204573716904
1.5070801983377327,0.038657419159163646,0.05428387306829556,0.03000532215028713,0.07172998549678761,-0.034774118920213135
1.5071517154926592,0.038950459296790155,0.05292849880071645,0.029635790998015537,0.06779090917410624,-0.03202185643077248
1.5072232326475858,0.03795818995272562,0.04738697741593875,0.026170643808596194,0.061813267235317264,-0.029748136249742013
1.5072947498025124,0.035465807062779846,0.040410308074750795,0.02167628316777021,0.05400462372344662,-0.02675941470640122
1.507366266957439,0.03160750390290827,0.034677882401151286,0.01779655130545853,0.047436741744736846,-0.024312650531031276
1.5074377841123656,0.02689036393457737,0.02986030532399628,0.014369878001425985,0.043023815584429664,-0.0232054013119288
1.5075093012672922,0.022110982309926926,0.0257648527922955,0.012274203971852665,0.03921816165807719,-0.021689364442501143
1.5075808184222188,0.018158898886019043,0.02334098942616253,0.010838451012952628,0.03794684554701126,-0.021663673172563073
1.5076523355771454,0.015750547010193554,0.021986087910402356,0.009985828883372298,0.03635939563842526,-0.021017415196410132
1.507723852732072,0.015198153002695225,0.019046495632206506,0.008495434228764531,0.03152407879536168,-0.01832655155547337
1.5077953698869986,0.01632710132796861,0.014778209325072027,0.006411917338543193,0.023927078624551387,-0.013931797990754516
1.5078668870419252,0.01858159605132472,0.011512997394654036,0.00521914285473996,0.016336092442332806,-0.008961294015334154
1.5079384041968518,0.02125563485920751,0.00957171776928169,0.005152249488431391,0.009510992663282711,-0.003836372841388488
1.5080099213517784,0.023737553869918368,0.009425110393181812,0.0057615299185219465,0.007093046309365984,-0.0016074173107252655
1.508081438506705,0.025680396681245936,0.011456719002481549,0.007453924502377228,0.009379309516130167,-0.0022330893156236806
1.5081529556616315,0.027059576075294776,0.013493389001754305,0.008842952470356694,0.014697408063503361,-0.005352942310261666
1.5082244728165581,0.028112039179855254,0.012950959962298577,0.008942296206187028,0.01919547005020461,-0.008694722831812385
1.5082959899714847,0.029172386947160022,0.01088388113447786,0.008780907310022895,0.02280856744583325,-0.011536929641563769
1.5083675071264113,0.03045818310099522,0.010850970032436989,0.010026451111954632,0.026037407140075304,-0.013169193301374357
1.508439024281338,0.03190386747651281,0.014841675466550798,0.012747040105629182,0.030068618990566995,-0.014445897470469093
1.5085105414362645,0.03314377564440417,0.020800708814785563,0.01600259242207933,0.03450234280584076,-0.01567831545846871
1.508582058591191,0.03366149064758627,0.025606550164272573,0.0186299276568245,0.037920590964357855,-0.016551901365191763
1.5086535757461177,0.03301661123576188,0.025261057912880476,0.017302793300784304,0.03820521090283975,-0.01763520020950907
1.5087250929010443,0.031031763736761156,0.021026940207305715,0.013978643770450466,0.034700074511898736,-0.017150904532868685
1.5087966100559709,0.02787943173947238,0.01548698068831876,0.009773118861112214,0.0287223947611813,-0.01536895192115136
1.5088681272108975,0.024071143965329337,0.010379168632808957,0.005405399448016361,0.023930285101389767,-0.014591696305037361
1.508939644365824,0.020368522042175177,0.0064233468685975246,0.002619426200917792,0.020051451891614183,-0.013473341650153976
1.5090111615207507,0.017622660517009992,0.0046110964184536704,0.001280243020763253,0.018836911388097663,-0.013428130490165354
1.5090826786756772,0.016549556574789192,0.004082799997818088,0.001094148915450876,0.018467222624839654,-0.013269682026697214
1.5091541958306038,0.01749078347259404,0.0041408033147575666,0.001728275756159572,0.016396133462494782,-0.01128696246186691
1.5092257129855304,0.02026609634215111,0.004517315228873065,0.002622344403247119,0.012796730780485521,-0.007977115820347876
1.509297230140457,0.024225306810832306,0.00767440586207004,0.005090188490138515,0.01044306359210768,-0.0045827272736329114
1.5093687472953836,0.028505184243561566,0.015536170382023802,0.010396256019729185,0.011396329940017201,-0.0018382565838031576
1.5094402644503102,0.032363241212534366,0.026663188660934808,0.017181792517199104,0.017303807863840604,-0.0018779934660945244
1.5095117816052368,0.035420479974014,0.039080964898774745,0.023785576506019895,0.027338013156012343,-0.005161154379578352
1.5095832987601634,0.03772295943106026,0.04841957359715825,0.028541189697550762,0.0365500876284458,-0.009030771012368355
1.50965481591509,0.039632532833370364,0.05130457850428407,0.030196375009199177,0.04263937155687123,-0.012563760421726022
1.5097263330700166,0.041605230836871475,0.046682472804522576,0.028415936049993602,0.044463511234013244,-0.01511223932477685
1.5097978502249432,0.04392716574129624,0.03927401950638506,0.026087173799228647,0.040190283980746866,-0.013395797520017837
1.5098693673798698,0.04649881119729661,0.03489966078488905,0.025125670272120693,0.0335984189547217,-0.00902824518759204
1.5099408845347964,0.048782229516577,0.03497195906226866,0.025898717163670308,0.029420932486354117,-0.005357149484424422
1.510012401689723,0.04998265464348263,0.037832443048872344,0.027970420605425636,0.027064161659073806,-0.002216490287763762
1.5100839188446495,0.04939582665258717,0.03835540525310589,0.02744804663090382,0.024574405365430225,-0.0006722602612409755
1.5101554359995761,0.046726633743720845,0.035978262334153265,0.024915387052692306,0.021336011132990645,0.00012405319221801014
1.5102269531545027,0.04221494386441091,0.03324048279072505,0.022036546886626967,0.017735909978820838,0.0009681661587785075
1.5102984703094293,0.0365554045951188,0.031801388648227465,0.019143160662124768,0.017713455463143634,-0.0009062598013673594
1.510369987464356,0.030705701566729478,0.03216678506467422,0.01712115674686206,0.02036496236470942,-0.004236068821185963
1.5104415046192825,0.025671938650474672,0.03380398078280192,0.016152578444133103,0.024922740953639586,-0.008321577088197028
1.510513021774209,0.02230380117340663,0.03591929646523834,0.01595046449902194,0.029658640292989175,-0.012041770393967309
1.5105845389291357,0.02110478427342222,0.03472454016615819,0.014310671393420193,0.030486103239957613,-0.013740450368337041
1.5106560560840623,0.022087028251984653,0.02946055232669818,0.011927341615445858,0.025302321598261235,-0.011370305895285333
1.5107275732389889,0.02474352062355467,0.02076957571546637,0.008315005741078718,0.01655847947725537,-0.007107315788402991
1.5107990903939155,0.028206425428266402,0.014020901864826676,0.006455089330600415,0.008650382051974687,-0.002333614271275501
1.510870607548842,0.03156791810921427,0.010746066838733087,0.006924877381908108,0.00450949158677664,0.0011088170616590143
1.5109421247037687,0.034217944840168574,0.010913673219426899,0.0085255112555674,0.006790368573852009,0.00042736096904399387
1.5110136418586952,0.036025983655989566,0.01441696563101844,0.01161661354179527,0.01376006499963629,-0.002830933495358177
1.5110851590136218,0.03729532439305516,0.016332205406354283,0.013294021431409462,0.0218834009403356,-0.00788734244824009
1.5111566761685484,0.03854470610167679,0.015114394296311128,0.013163190298163863,0.029788481857677535,-0.013961696200531953
1.511228193323475,0.04022460916569971,0.013710858763576361,0.013651672900344249,0.034038896124725555,-0.016863467340525476
1.5112997104784016,0.04246467581659284,0.01446508897756046,0.01442102957265151,0.03579185353836454,-0.017689304447806493
1.5113712276333282,0.04493429586497486,0.019307399008677312,0.016921655013448497,0.0379722652680361,-0.017707741883911086
1.5114427447882548,0.04689231770787431,0.02499639380835338,0.019784155718843215,0.039338229866781815,-0.01687200284982086
1.5115142619431814,0.047454803887083834,0.027375760881100105,0.02007376929597759,0.038271859189040455,-0.01587423911641626
1.511585779098108,0.04599085839647899,0.02423898958311355,0.017243949592298295,0.03399006279782619,-0.014478682599938283
