freq,gls,usurper,pdc_unbiased,shape_periodogram,shift_periodogram
1.5,0.031605246424144244,0.032655442380645154,0.022003088454338578,0.04880290801202106,-0.021878008189227395
1.5000715171549266,0.028595336453250155,0.026003311006679665,0.01679692217781675,0.040914834831383834,-0.019434346416027797
1.5001430343098532,0.024797888546036324,0.020273671469572766,0.011419584810450916,0.03483873002419056,-0.018461556369912945
1.5002145514647798,0.020789812632417533,0.018434153805308825,0.008796510756732951,0.029991880638076535,-0.01657871827762406
1.5002860686197064,0.017345459787468324,0.020988639545915146,0.009479677332466734,0.02829051839523658,-0.014852264682768627
1.500357585774633,0.015271945925960987,0.025487070420154235,0.011714688134418397,0.02873971698037815,-0.013703077246695155
1.5004291029295596,0.015165201318802408,0.030754159881401552,0.01415548030345099,0.03354184393019185,-0.015673079689532115
1.5005006200844861,0.01716595655706576,0.03564847978838419,0.016954003693511403,0.036894932387469444,-0.016321606408213903
1.5005721372394127,0.02086274426290797,0.03942188778504544,0.019187221778694714,0.03999836162653584,-0.017159238963411462
1.5006436543943393,0.02544081002802935,0.04275402508517566,0.02137618975240262,0.04324567034487067,-0.018134150693958493
1.500715171549266,0.03000884122307953,0.04634155491061583,0.02421994995090846,0.04588988388306516,-0.018222121779871994
1.5007866887041925,0.03391266896856934,0.050480133905577824,0.02666061786266369,0.052538433209003046,-0.021577235369501895
1.500858205859119,0.0368882624749449,0.05514112762092849,0.029368029530911475,0.061258722422858264,-0.026310052214078443
1.5009297230140457,0.0390355018056212,0.060308519593078515,0.03287087235373193,0.07236304243224147,-0.03230714160740099
1.5010012401689723,0.04067274274449097,0.062228715556276716,0.0349635290275476,0.08174781262250526,-0.03796109527021395
1.5010727573238989,0.04213722341942038,0.06255194534148208,0.036798409825528795,0.08815902492863786,-0.04155810831623341
1.5011442744788255,0.043587855733941964,0.06260574128450969,0.03793328428010061,0.09391325804654968,-0.04513123001948041
1.501215791633752,0.044880915226329254,0.06219436764995987,0.03824814004694497,0.09814458680392946,-0.04810744332107362
1.5012873087886787,0.045592465454410994,0.06312288939754976,0.03896037083855539,0.10265119663692587,-0.051028291280167705
1.5013588259436053,0.04519857422015515,0.06241708055517237,0.038338310339186395,0.10383969696125983,-0.05233895757827046
1.5014303430985318,0.04331902735671992,0.05879819503929257,0.03525172960142179,0.10260003609656627,-0.053461494227788384
1.5015018602534584,0.03989064242203222,0.051089125752440574,0.029380562295107576,0.09748637977930842,-0.0535182445056272
1.501573377408385,0.035207008956161204,0.041993157473222784,0.02275340008029923,0.09071439334181222,-0.05282935118393911
1.5016448945633116,0.029854908046904056,0.03367518692648056,0.01716592382272006,0.08178163339085731,-0.04982754879788488
1.5017164117182382,0.02460404968418353,0.026700044435651646,0.01272729457488559,0.07222832006812098,-0.04560317203439632
1.5017879288731648,0.020274028275387688,0.02249119330791529,0.010756457121333964,0.06351367021476341,-0.04037583287146922
1.5018594460280914,0.01756978332877583,0.02041401968083562,0.009814843547662735,0.05778173385426195,-0.03670510512768892
1.501930963183018,0.016887968997375314,0.019812950927452725,0.009773529530205848,0.051051384400034046,-0.03169075568634658
1.5020024803379446,0.018154766828972088,0.018870073241260228,0.009545857603491862,0.04464823464324142,-0.02704765122005401
1.5020739974928712,0.020807783027131654,0.01931464760285485,0.00997328939183271,0.03939650893625816,-0.022832949073045294
1.5021455146477978,0.023992628107040868,0.021764972082556674,0.01144212206274167,0.037200447777988685,-0.02021364961161134
1.5022170318027244,0.026898257150269028,0.026236277893512443,0.014028974316248104,0.03926158955395424,-0.020036904855861987
1.502288548957651,0.029041972437567,0.031044707984185967,0.016679671046279716,0.043980157708655626,-0.021806760660959535
1.5023600661125776,0.03036170293294545,0.03623234145160718,0.019990738498687276,0.050407986944987,-0.02441838125748283
1.5024315832675041,0.031115659296329378,0.03712476974963105,0.02077896981185265,0.056293037128472695,-0.028302987770970005
1.5025031004224307,0.031680428730509906,0.034561846432680905,0.019519808615351825,0.05934159172574438,-0.03142494697827033
1.5025746175773573,0.032340192227813126,0.031054783800083058,0.018649627815208736,0.05899853664735131,-0.03174636265888553
1.502646134732284,0.033131945974426154,0.028400197999432126,0.017871043624403338,0.05627608699161338,-0.03022373986569652
1.5027176518872105,0.033797027787609374,0.02788759730093862,0.01799769758677829,0.055070242888714566,-0.02923602931406316
1.502789169042137,0.033871437590867574,0.026571661985695307,0.017486670760106647,0.053007578144955846,-0.028030456775239493
1.5028606861970637,0.03289397904446062,0.023353203223520635,0.015274482970942199,0.04959173970554763,-0.02694244903056522
1.5029322033519903,0.030638444170610023,0.01969994920609491,0.012011118949132128,0.04644395235407388,-0.02675407478757339
1.5030037205069169,0.02725242384486997,0.017718060733870136,0.009441040885373031,0.04422903729286971,-0.026803485056447914
1.5030752376618435,0.023245599290448483,0.019106430314216896,0.008606550278537486,0.04374558372623079,-0.026995966744210696
1.50314675481677,0.019358366958489085,0.022387829415755144,0.008953985446160287,0.04403848636426544,-0.02698441184366744
1.5032182719716967,0.01638051368297583,0.026562412853352486,0.010426555451109277,0.044767485500764134,-0.026551816017816764
1.5032897891266233,0.01497089818834955,0.03058347635063378,0.012350463029946239,0.0454034079986292,-0.025749559252553293
1.5033613062815498,0.015499460648454992,0.03367353204577902,0.013981854206916533,0.04470386287288669,-0.024141720745669233
1.5034328234364764,0.01793079665045714,0.033867202084966845,0.01416864675154985,0.04104192732795345,-0.021276489220219442
1.503504340591403,0.021792554285279486,0.03301068174648958,0.013806564009865633,0.03618791950352866,-0.017884709603860675
1.5035758577463296,0.026283745634476982,0.03539089438478852,0.015751292513310384,0.03432731648555997,-0.01520000745894375
1.5036473749012562,0.03053094650102892,0.04049538712160516,0.019003856556851165,0.03813172467148005,-0.01588424236520934
1.5037188920561828,0.03389868374654469,0.047551773282239126,0.02304438568669538,0.04772924744952865,-0.020381382320642294
1.5037904092111094,0.03619247413189749,0.056313506832249664,0.02836367437687625,0.06005600316117809,-0.026077020387068887
1.503861926366036,0.03764566473947448,0.06310075362712611,0.03246316988130233,0.07317306882404893,-0.03318672948172986
1.5039334435209626,0.038716510453014726,0.06651183276574012,0.03408384953452373,0.08497157905387999,-0.04097023903431155
1.5040049606758892,0.0398171228344044,0.068307135708518,0.03557140334761458,0.09415586964593467,-0.04688806579320174
1.5040764778308158,0.041095739566223526,0.07172957451794329,0.037525773851031737,0.10109482086270367,-0.05081168816459903
1.5041479949857424,0.04234364882306056,0.07496645659964239,0.038887791087543686,0.10637299166695553,-0.05388289564982424
1.504219512140669,0.043051695709888996,0.07626108832684773,0.03921573232033744,0.1094311851798295,-0.05597140936247742
1.5042910292955955,0.04260283060723393,0.0716402228119068,0.036347749549566495,0.10799916762602255,-0.05680251310173636
1.5043625464505221,0.04053910287302065,0.060978650446712655,0.030363706364527798,0.1012628115924116,-0.05570862997638484
1.5044340636054487,0.03679439695722014,0.047597238070709535,0.02344001313236871,0.09001532074933298,-0.05184702495503078
1.5045055807603753,0.03178229372791513,0.03589400249415192,0.01698689592080203,0.07979154202309881,-0.04845158668716727
1.504577097915302,0.026296542555493532,0.02788088427809945,0.012446934359831944,0.07059951281561394,-0.04456726227012605
1.5046486150702285,0.021278189004975218,0.024953625664287424,0.011187449324425095,0.06361621783316973,-0.04016646383897399
1.504720132225155,0.017555651134353225,0.024059639540892592,0.011283372248322305,0.058087997767529015,-0.03595915973899716
1.5047916493800817,0.01564621916050789,0.022906266863569818,0.010644076718018416,0.05336599247852198,-0.032846078571590095
1.5048631665350083,0.015656872938766518,0.020626097258818584,0.009217644422453899,0.04658042305212744,-0.028712185633839305
1.5049346836899349,0.017286051262519187,0.018966372213991892,0.008230188330603324,0.039522562982454136,-0.02408534362108335
1.5050062008448615,0.019918755698584013,0.018728704570332322,0.007905738300784866,0.03328674623505112,-0.019635201227511546
1.505077717999788,0.022804926807040774,0.020779434452334388,0.009361654152707073,0.02854744792702396,-0.015122849694898575
1.5051492351547147,0.025289013466251117,0.025522551761017517,0.011726326065843064,0.031050511606276598,-0.015423777515219676
1.5052207523096413,0.027015644551186973,0.030423568139334604,0.014241445734319206,0.03640557335149015,-0.01775852803713148
1.5052922694645678,0.028012475009877,0.033016737226853006,0.015961322224474977,0.04075399804554441,-0.019869437958275175
1.5053637866194944,0.028596359216805502,0.030050576442330282,0.014919408532213189,0.042484675401589976,-0.021857371822928958
1.505435303774421,0.02915112616185344,0.023970731905542993,0.013309044659559194,0.041844135202495095,-0.02244820476502213
1.5055068209293476,0.029900153036102176,0.01966514544344307,0.012321918805932341,0.04047821474792466,-0.02208188248468709
1.5055783380842742,0.030782681811496897,0.019007181872986854,0.01250866989698158,0.03998477808873431,-0.021588491742741814
1.5056498552392008,0.03146961942071043,0.021224913305122415,0.013496870470295333,0.04207883216115052,-0.022499047302089015
1.5057213723941274,0.03149161794629547,0.02233119299177615,0.013134126432083434,0.044389173043804464,-0.024469515467423736
1.505792889549054,0.030427310908792447,0.02189807130496183,0.011855838401314541,0.04487017073329106,-0.025679029290014997
1.5058644067039806,0.02809465201809536,0.01977456096321949,0.009674998552531539,0.04284535364460543,-0.02561232345794081
1.5059359238589072,0.024683284499830333,0.016092266502503453,0.006168765257997816,0.040357989452966286,-0.026079876735833674
1.5060074410138338,0.020766913938386953,0.013827736630151178,0.003987129865862614,0.03794502991126003,-0.025723300717512897
1.5060789581687604,0.017165658691511196,0.01495724071883837,0.004506773893992003,0.03605681204361972,-0.023965419899842116
1.506150475323687,0.014695536880755058,0.017410586110981643,0.005603202541494299,0.03543629608543555,-0.02277290616562692
1.5062219924786135,0.013907828977730352,0.01946856451215696,0.006474304461408025,0.03432333037606967,-0.021361614315239728
1.5062935096335401,0.014929925183180436,0.01969040746170721,0.007024475314287043,0.030116975214481305,-0.017849599452375877
1.5063650267884667,0.01746107614733839,0.018358256351199132,0.006681651925523114,0.02512391618713613,-0.014343093754670149
1.5064365439433933,0.020900617081537138,0.019595195213368704,0.008103902228742074,0.021516843095464085,-0.010700894462386116
1.50650806109832,0.024545654709518663,0.023450450407105916,0.01119024144466396,0.019326338257183287,-0.007012274953959493
1.5065795782532465,0.027795889555703463,0.03038390170699196,0.015188716512202768,0.023945859699958476,-0.007809045448953693
1.506651095408173,0.030315638754338018,0.03962630018257433,0.02020329875354711,0.03222452028228762,-0.010667013803065627
1.5067226125630997,0.03210575674634778,0.049011465644884296,0.02516307524326057,0.04281789975879804,-0.015294923218154339
1.5067941297180263,0.03344435853615213,0.05461723844504203,0.02809340030703321,0.05247569826746473,-0.02057666661604053
1.5068656468729529,0.03469846610783441,0.055395464983212586,0.028836225363534616,0.05851688186714461,-0.0246088072633201
1.5069371640278795,0.03608805388876267,0.054602015985412804,0.029158238083419115,0.06157249858280024,-0.02668495673580554
1.507008681182806,0.03753193323000867,0.05449086391370913,0.029645090979329304,0.06441911673459365,-0.02849530886767982
1.5070801983377327,0.038657419159163646,0.05460527384670003,0.03000532215028713,0.06521386064097648,-0.028851503860312874
1.5071517154926592,0.038950459296790155,0.053343816797565335,0.029635790998015537,0.06391899607601119,-0.028126451784205614
1.5072232326475858,0.03795818995272562,0.04782714086518232,0.026170643808596194,0.06019598613804237,-0.027641511959504386
1.5072947498025124,0.035465807062779846,0.04080825048671821,0.02167628316777021,0.05410159649229488,-0.026064262960565347
1.507366266957439,0.03160750390290827,0.03500772961889833,0.01779655130545853,0.04826162617646394,-0.02426987152327041
1.5074377841123656,0.02689036393457737,0.030058291602527286,0.014369878001425985,0.04376312092189775,-0.02317959424439667
1.5075093012672922,0.022110982309926926,0.0257701530037413,0.012274203971852665,0.0393300474625648,-0.0212543191488136
1.5075808184222188,0.018158898886019043,0.023068688314649564,0.010838451012952628,0.03740826696263157,-0.020770284049944025
1.5076523355771454,0.015750547010193554,0.02141284180657259,0.009985828883372298,0.035515878584802964,-0.01992087894111749
1.507723852732072,0.015198153002695225,0.018255195058625367,0.008495434228764531,0.03065539635560536,-0.017275057979928635
1.5077953698869986,0.01632710132796861,0.013997237814114395,0.006411917338543193,0.023567161401424095,-0.013358163973091254
1.5078668870419252,0.01858159605132472,0.01082587753023349,0.00521914285473996,0.016567895141113575,-0.008917332407503299
1.5079384041968518,0.02125563485920751,0.008943438590232526,0.005152249488431391,0.009609915700968181,-0.0037603060807347094
1.5080099213517784,0.023737553869918368,0.00880731469355935,0.0057615299185219465,0.006189860198077932,-0.0007990785391593747
1.508081438506705,0.025680396681245936,0.010806173569987912,0.007453924502377228,0.006223911447651602,0.0002998523648173755
1.5081529556616315,0.027059576075294776,0.012751097131002562,0.008842952470356694,0.008344971673608615,-0.00036270528146785294
1.5082244728165581,0.028112039179855254,0.012206627016973143,0.008942296206187028,0.01001653576903194,-0.0015461759348607575
1.5082959899714847,0.029172386947160022,0.010265228318680257,0.008780907310022895,0.011665576364778782,-0.00288608667963235
1.5083675071264113,0.03045818310099522,0.010379548697592503,0.010026451111954632,0.013953191003403639,-0.0037685741024007955
1.508439024281338,0.03190386747651281,0.014471308823091325,0.012747040105629182,0.01842723390821515,-0.005305496529356956
1.5085105414362645,0.03314377564440417,0.02050109583328521,0.01600259242207933,0.024234762901083194,-0.007484104160539824
1.508582058591191,0.03366149064758627,0.025446250538835837,0.0186299276568245,0.02940959688959831,-0.009607587550927763
1.5086535757461177,0.03301661123576188,0.025209867956654083,0.017302793300784304,0.03118164157595621,-0.011815377460179476
1.5087250929010443,0.031031763736761156,0.021106437968461914,0.013978643770450466,0.02930549467243003,-0.012621650660169955
1.5087966100559709,0.02787943173947238,0.015711028593482362,0.009773118861112214,0.024813107255818444,-0.012056636066790527
1.5088681272108975,0.024071143965329337,0.010699503348828836,0.005405399448016361,0.021080115057105116,-0.012167187691017635
1.508939644365824,0.020368522042175177,0.006761116760417914,0.002619426200917792,0.017333775652978396,-0.011216979222899317
1.5090111615207507,0.017622660517009992,0.004840294249575196,0.001280243020763253,0.015968176178347646,-0.011085662389409272
1.5090826786756772,0.016549556574789192,0.004163802384306325,0.001094148915450876,0.01582116525516506,-0.011099378165160191
1.5091541958306038,0.01749078347259404,0.004136817777736461,0.001728275756159572,0.014119693711843299,-0.009406165752601364
1.5092257129855304,0.02026609634215111,0.00465647578611651,0.002622344403247119,0.011087586390002579,-0.0065456067412233785
1.509297230140457,0.024225306810832306,0.00808576065827516,0.005090188490138515,0.009299735868739528,-0.003569676466217553
1.5093687472953836,0.028505184243561566,0.016143813631125572,0.010396256019729185,0.010307386045872549,-0.0007975115368533696
1.5094402644503102,0.032363241212534366,0.027309283163574345,0.017181792517199104,0.015264983907034155,6.036773378171005e-06
1.5095117816052368,0.035420479974014,0.03954353240796967,0.023785576506019895,0.02309373134767247,-0.001456153829097725
1.5095832987601634,0.03772295943106026,0.048553569374263174,0.028541189697550762,0.029416779921959076,-0.0030207318849097783
1.50965481591509,0.039632532833370364,0.051161357630300136,0.030196375009199177,0.033100691396690814,-0.004674496406723361
1.5097263330700166,0.041605230836871475,0.04643839233570312,0.028415936049993602,0.03340080309015212,-0.006083889490529737
1.5097978502249432,0.04392716574129624,0.03913033737343603,0.026087173799228647,0.028715667500319456,-0.004129132723161334
1.5098693673798698,0.04649881119729661,0.034889148754596463,0.025125670272120693,0.02325820736530368,-0.0006878431550758408
1.5099408845347964,0.048782229516577,0.035022014413945875,0.025898717163670308,0.02122022548888446,0.0013499863124421133
1.510012401689723,0.04998265464348263,0.03790826635946897,0.027970420605425636,0.021255600197463972,0.0027016122092811136
1.5100839188446495,0.04939582665258717,0.03839308700129538,0.02744804663090382,0.020803968151361322,0.002691734719019453
1.5101554359995761,0.046726633743720845,0.035935230378953104,0.024915387052692306,0.019172883743403462,0.002226496930645839
1.5102269531545027,0.04221494386441091,0.03306824450875324,0.022036546886626967,0.016585459264482745,0.0022463193412057955
1.5102984703094293,0.0365554045951188,0.03145602389258968,0.019143160662124768,0.016730363819850057,0.00021438448900659802
1.510369987464356,0.030705701566729478,0.031559441478496736,0.01712115674686206,0.018668601802249555,-0.0025787393474126794
1.5104415046192825,0.025671938650474672,0.03286265224054971,0.016152578444133103,0.02191146368947623,-0.005647153537726616
1.510513021774209,0.02230380117340663,0.03461057779932005,0.01595046449902194,0.025679526778565716,-0.008599165546525171
1.5105845389291357,0.02110478427342222,0.03309240974632758,0.014310671393420193,0.026028313741524724,-0.009949945237635387
1.5106560560840623,0.022087028251984653,0.027747558436273016,0.011927341615445858,0.020818259405946754,-0.00763794033967937
1.5107275732389889,0.02474352062355467,0.019311552353432845,0.008315005741078718,0.012941392681042663,-0.0041493640121412385
1.5107990903939155,0.028206425428266402,0.012899612816318748,0.006455089330600415,0.005651075104659779,6.44222410566974e-05
1.510870607548842,0.03156791810921427,0.00995149611824498,0.006924877381908108,0.001399383866273402,0.0035544398133472194
1.5109421247037687,0.034217944840168574,0.010366080023139962,0.0085255112555674,0.002400495565138648,0.0038695845826870775
1.5110136418586952,0.036025983655989566,0.013896887227935278,0.01161661354179527,0.006570543062367425,0.002806537263537196
1.5110851590136218,0.03729532439305516,0.015771592338286892,0.013294021431409462,0.01158301402392675,0.0001745177209583744
1.5111566761685484,0.03854470610167679,0.014624010012861276,0.013163190298163863,0.016991841247529976,-0.003955800201221359
1.511228193323475,0.04022460916569971,0.013426489522096003,0.013651672900344249,0.019724101820927254,-0.005673906490949649
1.5112997104784016,0.04246467581659284,0.014373237150511302,0.01442102957265151,0.02154826339719524,-0.006526492285572408
1.5113712276333282,0.04493429586497486,0.019378812657517678,0.016921655013448497,0.024912889724038077,-0.007380273561971907
1.5114427447882548,0.04689231770787431,0.02521736960514582,0.019784155718843215,0.028271282811889786,-0.007988781382713714
1.5115142619431814,0.047454803887083834,0.027687678244124332,0.02007376929597759,0.02964747065570736,-0.008825500954737662
