freq,gls,usurper,pdc_unbiased,shape_periodogram,shift_periodogram
1.5,0.031605246424144244,0.03653494279357859,0.022003088454338578,0.04776759838917336,-0.020377592973868628
1.5000715171549266,0.028595336453250155,0.029699056723670153,0.01679692217781675,0.04191619916336075,-0.019575655713411837
1.5001430343098532,0.024797888546036324,0.023676453975737047,0.011419584810450916,0.0366893078169841,-0.019350480889084885
1.5002145514647798,0.020789812632417533,0.02124418756077655,0.008796510756732951,0.03107671376230794,-0.016980092481142975
1.5002860686197064,0.017345459787468324,0.023110607263649413,0.009479677332466734,0.02710918881135927,-0.013590898024946724
1.500357585774633,0.015271945925960987,0.026931431605996446,0.011714688134418397,0.024554321397130825,-0.0101958348206189
1.5004291029295596,0.015165201318802408,0.031776611242345154,0.01415548030345099,0.02619814707751841,-0.009759296478150024
1.5005006200844861,0.01716595655706576,0.03579172238855142,0.016954003693511403,0.025341882456917608,-0.00723618201134809
1.5005721372394127,0.02086274426290797,0.03805921403968782,0.019187221778694714,0.02155447862848369,-0.002932694664691053
1.5006436543943393,0.02544081002802935,0.04008295089491604,0.02137618975240262,0.018033913119037244,0.0011436973946607697
1.500715171549266,0.03000884122307953,0.042906714892377726,0.02421994995090846,0.01633284941283056,0.004320739873872742
1.5007866887041925,0.03391266896856934,0.047185788866477944,0.02666061786266369,0.02059152435398453,0.0028305693430262496
1.500858205859119,0.0368882624749449,0.05293929907853017,0.029368029530911475,0.03010649254801646,-0.002356603030095402
1.5009297230140457,0.0390355018056212,0.060131728760274616,0.03287087235373193,0.045358384255886064,-0.011243807622000154
1.5010012401689723,0.04067274274449097,0.0645500340167363,0.0349635290275476,0.062041902546605826,-0.022156804535548993
1.5010727573238989,0.04213722341942038,0.06709668677484096,0.036798409825528795,0.0759542946213092,-0.03121186150664228
1.5011442744788255,0.043587855733941964,0.06881144532726516,0.03793328428010061,0.08710110526369495,-0.03870662828141032
1.501215791633752,0.044880915226329254,0.06926470778920889,0.03824814004694497,0.09320043239364004,-0.0430205503883848
1.5012873087886787,0.045592465454410994,0.07021515226470366,0.03896037083855539,0.0950159352850423,-0.04388601985725994
1.5013588259436053,0.04519857422015515,0.06958686364080825,0.038338310339186395,0.09567475032325282,-0.04479721811786237
1.5014303430985318,0.04331902735671992,0.06606895457037955,0.03525172960142179,0.09477532407385289,-0.04622118405803068
1.5015018602534584,0.03989064242203222,0.05841836570614159,0.029380562295107576,0.09110381737959572,-0.04747093697488484
1.501573377408385,0.035207008956161204,0.04930414065443821,0.02275340008029923,0.0859379204119402,-0.04812083635727295
1.5016448945633116,0.029854908046904056,0.04070870758075148,0.01716592382272006,0.07869343190526228,-0.046526616175635666
1.5017164117182382,0.02460404968418353,0.033287996430822926,0.01272729457488559,0.0706722447560184,-0.04358444929706728
1.5017879288731648,0.020274028275387688,0.028514751518907956,0.010756457121333964,0.06243756184681238,-0.038822507168844854
1.5018594460280914,0.01756978332877583,0.025830177848574255,0.009814843547662735,0.05608642613391308,-0.03476246640381439
1.501930963183018,0.016887968997375314,0.02383511254335268,0.009773529530205848,0.04598535538298516,-0.02732676372398485
1.5020024803379446,0.018154766828972088,0.020778229465319084,0.009545857603491862,0.033273219733923005,-0.018094903862337745
1.5020739974928712,0.020807783027131654,0.019011361512976457,0.00997328939183271,0.02083167205424961,-0.008626170999033766
1.5021455146477978,0.023992628107040868,0.019902190035794274,0.01144212206274167,0.01305873677435483,-0.0019006737401824473
1.5022170318027244,0.026898257150269028,0.024211452672162934,0.014028974316248104,0.013779888711748959,-0.0006846475470538393
1.502288548957651,0.029041972437567,0.030015164962716202,0.016679671046279716,0.02134776330264348,-0.004475110115173916
1.5023600661125776,0.03036170293294545,0.037371152262248526,0.019990738498687276,0.035551389763857924,-0.012717401048433897
1.5024315832675041,0.031115659296329378,0.041066320084012245,0.02077896981185265,0.05277950585830085,-0.024908767363159945
1.5025031004224307,0.031680428730509906,0.04093471848612054,0.019519808615351825,0.06642028234396767,-0.03584773937755458
1.5025746175773573,0.032340192227813126,0.03903085167053449,0.018649627815208736,0.07417430101409121,-0.0421762539170814
1.502646134732284,0.033131945974426154,0.03665147797881484,0.017871043624403338,0.07427680588428845,-0.042778355557796646
1.5027176518872105,0.033797027787609374,0.03535200236702883,0.01799769758677829,0.06993341192405741,-0.039476770144915574
1.502789169042137,0.033871437590867574,0.03321211472801558,0.017486670760106647,0.06467101777047556,-0.035927699856530736
1.5028606861970637,0.03289397904446062,0.029391305311180355,0.015274482970942199,0.05909947767113692,-0.03330174535962332
1.5029322033519903,0.030638444170610023,0.02538826699993756,0.012011118949132128,0.054848780247929683,-0.03236413173964436
1.5030037205069169,0.02725242384486997,0.023177951860461808,0.009441040885373031,0.05177821449040126,-0.03183093607888291
1.5030752376618435,0.023245599290448483,0.024453050801290937,0.008606550278537486,0.050821707225944826,-0.03168779345227819
1.50314675481677,0.019358366958489085,0.027669758714789917,0.008953985446160287,0.050707743786365306,-0.031368935638880595
1.5032182719716967,0.01638051368297583,0.0319445925022927,0.010426555451109277,0.05141228405970904,-0.03089487389340643
1.5032897891266233,0.01497089818834955,0.03603400252362264,0.012350463029946239,0.051711927876702535,-0.029816603283945125
1.5033613062815498,0.015499460648454992,0.03841486658962936,0.013981854206916533,0.04785730528583205,-0.025866313188403364
1.5034328234364764,0.01793079665045714,0.03700971111811541,0.01416864675154985,0.03856711411225719,-0.018879153296010857
1.503504340591403,0.021792554285279486,0.03376484213328198,0.013806564009865633,0.024818116933560667,-0.008976916277741194
1.5035758577463296,0.026283745634476982,0.0339697407646175,0.015751292513310384,0.01350671177735908,0.0006806478421487843
1.5036473749012562,0.03053094650102892,0.03804016960677085,0.019003856556851165,0.010756273838272653,0.004906941936700243
1.5037188920561828,0.03389868374654469,0.04546202451459846,0.02304438568669538,0.017586387393392033,0.002601530579571495
1.5037904092111094,0.03619247413189749,0.05655127879707409,0.02836367437687625,0.03548117490436963,-0.007002343638723554
1.503861926366036,0.03764566473947448,0.06668197624126727,0.03246316988130233,0.05913877666187854,-0.021703399485343236
1.5039334435209626,0.038716510453014726,0.07355230627284362,0.03408384953452373,0.08232731496093366,-0.03777472940716476
1.5040049606758892,0.0398171228344044,0.07801512182610787,0.03557140334761458,0.10027569215340831,-0.050091866508411055
1.5040764778308158,0.041095739566223526,0.0828361456460091,0.037525773851031737,0.11098900642485383,-0.05673894021428474
1.5041479949857424,0.04234364882306056,0.08599123240624386,0.038887791087543686,0.11327964180192171,-0.057521983046524644
1.504219512140669,0.043051695709888996,0.08631916336755524,0.03921573232033744,0.10976815983546451,-0.054684097492029786
1.5042910292955955,0.04260283060723393,0.0807284911223069,0.036347749549566495,0.102961951167321,-0.05156322145210713
1.5043625464505221,0.04053910287302065,0.06927709429166379,0.030363706364527798,0.09325533455873848,-0.04840284457874693
1.5044340636054487,0.03679439695722014,0.055397765167077735,0.02344001313236871,0.08230905559600821,-0.04496552866075461
1.5045055807603753,0.03178229372791513,0.04343815008897393,0.01698689592080203,0.07380155068852029,-0.04302384988497948
1.504577097915302,0.026296542555493532,0.03517275430191015,0.012446934359831944,0.06655253980149159,-0.04072489162196048
1.5046486150702285,0.021278189004975218,0.032372121237913866,0.011187449324425095,0.06285162898734273,-0.03883768235297589
1.504720132225155,0.017555651134353225,0.031782847242792726,0.011283372248322305,0.06093397969351725,-0.03735464332322406
1.5047916493800817,0.01564621916050789,0.03064746217526023,0.010644076718018416,0.05845470521525602,-0.03595318622163775
1.5048631665350083,0.015656872938766518,0.0273505279454215,0.009217644422453899,0.05068377297613054,-0.031173146404982827
1.5049346836899349,0.017286051262519187,0.02348890931196122,0.008230188330603324,0.037756493596027514,-0.02229297208221062
1.5050062008448615,0.019918755698584013,0.02091921082895156,0.007905738300784866,0.02451783922046724,-0.012742313501435794
1.505077717999788,0.022804926807040774,0.020859171430200343,0.009361654152707073,0.013257852119670663,-0.0034531065680722785
1.5051492351547147,0.025289013466251117,0.024651438027652683,0.011726326065843064,0.011218970232747748,-0.00035187762904147993
1.5052207523096413,0.027015644551186973,0.030284055100140116,0.014241445734319206,0.01905779969233972,-0.004433752729327701
1.5052922694645678,0.028012475009877,0.03479648056768598,0.015961322224474977,0.0320113527991918,-0.012828455259390659
1.5053637866194944,0.028596359216805502,0.0346398518399113,0.014919408532213189,0.0470303904039602,-0.024621868058828246
1.505435303774421,0.02915112616185344,0.03118347005680587,0.013309044659559194,0.05991274596810165,-0.035231099466521004
1.5055068209293476,0.029900153036102176,0.028520691551407032,0.012321918805932341,0.06769116680587696,-0.04165187320550925
1.5055783380842742,0.030782681811496897,0.028116707235796786,0.01250866989698158,0.06898824001333732,-0.04248565049676434
1.5056498552392008,0.03146961942071043,0.029582795851169345,0.013496870470295333,0.06674736778647584,-0.04015985754764534
1.5057213723941274,0.03149161794629547,0.029747387326745322,0.013134126432083434,0.06326283377914245,-0.03782694583828388
1.505792889549054,0.030427310908792447,0.02826367268088487,0.011855838401314541,0.05754249386545636,-0.034460272099299645
1.5058644067039806,0.02809465201809536,0.02504842996181293,0.009674998552531539,0.04970759841430305,-0.030142996981981935
1.5059359238589072,0.024683284499830333,0.020592917346050586,0.006168765257997816,0.04312508299295226,-0.027649099803362866
1.5060074410138338,0.020766913938386953,0.017756080680523836,0.003987129865862614,0.03778236386264725,-0.025177827869650084
1.5060789581687604,0.017165658691511196,0.01867254629709886,0.004506773893992003,0.03480950571738835,-0.022632542796066957
1.506150475323687,0.014695536880755058,0.021264064926715072,0.005603202541494299,0.034039113804227444,-0.021323429811188017
1.5062219924786135,0.013907828977730352,0.023488554658440082,0.006474304461408025,0.03317841443411768,-0.02009982371116816
1.5062935096335401,0.014929925183180436,0.023242134963699115,0.007024475314287043,0.02827990089519464,-0.01611333710709042
1.5063650267884667,0.01746107614733839,0.02044872245165095,0.006681651925523114,0.018290173278757364,-0.008975211373316559
1.5064365439433933,0.020900617081537138,0.020034317175570172,0.008103902228742074,0.00796007200715542,-0.0003958646052586644
1.50650806109832,0.024545654709518663,0.02252604678984704,0.01119024144466396,0.00042419443225334425,0.007245921775439201
1.5065795782532465,0.027795889555703463,0.029119373522750507,0.015188716512202768,0.0017868906545709085,0.008942385054491376
1.506651095408173,0.030315638754338018,0.03905079865299414,0.02020329875354711,0.010460972088071575,0.005935324636671938
1.5067226125630997,0.03210575674634778,0.05018929524167113,0.02516307524326057,0.02569872866918519,-0.0019492785690968747
1.5067941297180263,0.03344435853615213,0.058317862906773967,0.02809340030703321,0.043679513619830676,-0.013237863387776388
1.5068656468729529,0.03469846610783441,0.06147243409957496,0.028836225363534616,0.05887126039455374,-0.02396121656800022
1.5069371640278795,0.03608805388876267,0.06240169008722627,0.029158238083419115,0.06872228916182647,-0.031031407944686586
1.507008681182806,0.03753193323000867,0.06295545074860467,0.029645090979329304,0.07266667551744503,-0.033622222459470955
1.5070801983377327,0.038657419159163646,0.0624512338105584,0.03000532215028713,0.06883045023766567,-0.03053801420482235
1.5071517154926592,0.038950459296790155,0.060397657197792214,0.029635790998015537,0.06306788952222327,-0.026523875409403718
1.5072232326475858,0.03795818995272562,0.05412628487477691,0.026170643808596194,0.05576274383414335,-0.02346685861772403
1.5072947498025124,0.035465807062779846,0.046264873037926105,0.02167628316777021,0.046378294444216796,-0.019572290669686424
1.507366266957439,0.03160750390290827,0.03970443453145267,0.01779655130545853,0.03812094269224974,-0.01609766773210969
1.5074377841123656,0.02689036393457737,0.03419683967852994,0.014369878001425985,0.03206714993680154,-0.013945208735655423
1.5075093012672922,0.022110982309926926,0.029963462789723522,0.012274203971852665,0.02890821177443392,-0.01303021063550033
1.5075808184222188,0.018158898886019043,0.02769951682933855,0.010838451012952628,0.029063984455522506,-0.014115268716756346
1.5076523355771454,0.015750547010193554,0.026521996233264275,0.009985828883372298,0.030194707231006892,-0.015525718983261156
1.507723852732072,0.015198153002695225,0.023328649558041835,0.008495434228764531,0.028039848871060688,-0.014942527181541126
1.5077953698869986,0.01632710132796861,0.017905827614693,0.006411917338543193,0.020015587419514768,-0.010430128806319982
1.5078668870419252,0.01858159605132472,0.013065427898989415,0.00521914285473996,0.010063321045166742,-0.003895609679864528
1.5079384041968518,0.02125563485920751,0.009681938557706736,0.005152249488431391,0.0007925663214120553,0.002895675285308799
1.5080099213517784,0.023737553869918368,0.008805253379460849,0.0057615299185219465,-0.0028748759616465404,0.006011554452795275
1.508081438506705,0.025680396681245936,0.010904972408606696,0.007453924502377228,-0.00038712662061029683,0.005320283343828876
1.5081529556616315,0.027059576075294776,0.013936229979180828,0.008842952470356694,0.00798773177400571,8.299889956416175e-05
1.5082244728165581,0.028112039179855254,0.015023281350074342,0.008942296206187028,0.018517371239521973,-0.007615602090419089
1.5082959899714847,0.029172386947160022,0.014606067074565746,0.008780907310022895,0.028240813957673437,-0.014897957559026878
1.5083675071264113,0.03045818310099522,0.015766477644470308,0.010026451111954632,0.03615609372511282,-0.01989810490692435
1.508439024281338,0.03190386747651281,0.020266065709072592,0.012747040105629182,0.041770482688433475,-0.022205047481576298
1.5085105414362645,0.03314377564440417,0.02597864961797405,0.01600259242207933,0.043778130226478286,-0.02148758877009148
1.508582058591191,0.03366149064758627,0.03042926040523896,0.0186299276568245,0.0440541225510663,-0.01991542034780834
1.5086535757461177,0.03301661123576188,0.029839646901646075,0.017302793300784304,0.04277830201923682,-0.019870349759985303
1.5087250929010443,0.031031763736761156,0.025278700636784078,0.013978643770450466,0.03815756722091507,-0.01870519490454973
1.5087966100559709,0.02787943173947238,0.01926673852856537,0.009773118861112214,0.03077803824020328,-0.01609989980773286
1.5088681272108975,0.024071143965329337,0.013709197938534458,0.005405399448016361,0.024228311105983804,-0.014217720150377427
1.508939644365824,0.020368522042175177,0.009567659424549372,0.002619426200917792,0.01938084502505365,-0.012523632514513156
1.5090111615207507,0.017622660517009992,0.007703281859776484,0.001280243020763253,0.016807693155800513,-0.011530221917907268
1.5090826786756772,0.016549556574789192,0.007390657797014401,0.001094148915450876,0.016099724505846954,-0.011133749409111287
1.5091541958306038,0.01749078347259404,0.007307651639753374,0.001728275756159572,0.013367002464937107,-0.008689996228191117
1.5092257129855304,0.02026609634215111,0.007057429795416585,0.002622344403247119,0.007976015657567035,-0.004110393604138291
1.509297230140457,0.024225306810832306,0.009066060064858262,0.005090188490138515,0.0010934106050638772,0.002631913776057703
1.5093687472953836,0.028505184243561566,0.01597381110969119,0.010396256019729185,-0.002831609373159017,0.009110229453360518
1.5094402644503102,0.032363241212534366,0.026693744673271697,0.017181792517199104,-0.0009789871293571033,0.012328124954363957
1.5095117816052368,0.035420479974014,0.039533005159743444,0.023785576506019895,0.007309365229362239,0.010680203514978767
1.5095832987601634,0.03772295943106026,0.05019108551201246,0.028541189697550762,0.01922814622193368,0.005107906482182772
1.50965481591509,0.039632532833370364,0.05492676322005227,0.030196375009199177,0.03131737447442116,-0.002689512119165486
1.5097263330700166,0.041605230836871475,0.05201837784977517,0.028415936049993602,0.03964173861848109,-0.010038174458513582
1.5097978502249432,0.04392716574129624,0.045590735377611845,0.026087173799228647,0.0408739171744689,-0.012523606098359431
1.5098693673798698,0.04649881119729661,0.04122497624441556,0.025125670272120693,0.03685216451741826,-0.010204942921885594
1.5099408845347964,0.048782229516577,0.040469118476397746,0.025898717163670308,0.031028224105299793,-0.005383781376541941
1.510012401689723,0.04998265464348263,0.04230158811950492,0.027970420605425636,0.02554055316137072,6.625360928046307e-05
1.5100839188446495,0.04939582665258717,0.04217179047370422,0.02744804663090382,0.021449189813253715,0.002730603387247802
1.5101554359995761,0.046726633743720845,0.0395378075341786,0.024915387052692306,0.018117549557553913,0.0034748622029603386
1.5102269531545027,0.04221494386441091,0.03658082933738859,0.022036546886626967,0.014349522996686357,0.004307161605124283
1.5102984703094293,0.0365554045951188,0.03520069604949976,0.019143160662124768,0.014460930740589698,0.0022692553017830694
1.510369987464356,0.030705701566729478,0.035601789959636906,0.01712115674686206,0.016560462414387758,-0.0006457083674773919
1.5104415046192825,0.025671938650474672,0.03746817088698885,0.016152578444133103,0.02101548845988804,-0.004586246508854478
1.510513021774209,0.02230380117340663,0.03978869586012251,0.01595046449902194,0.025907511222687713,-0.008331768528092996
1.5105845389291357,0.02110478427342222,0.038226892254623314,0.014310671393420193,0.026282678928329913,-0.009716788230574749
1.5106560560840623,0.022087028251984653,0.03217538010274442,0.011927341615445858,0.020638137835528644,-0.007163147113089741
1.5107275732389889,0.02474352062355467,0.022230029391393128,0.008315005741078718,0.010446022969904009,-0.0020865132656394648
1.5107990903939155,0.028206425428266402,0.0143047106926553,0.006455089330600415,0.001041622079766764,0.0035920570162579248
1.510870607548842,0.03156791810921427,0.010458633759826502,0.006924877381908108,-0.003343562088318352,0.007142937955472854
1.5109421247037687,0.034217944840168574,0.011058950039953183,0.0085255112555674,0.0008076683999199035,0.005163113704973189
1.5110136418586952,0.036025983655989566,0.015940113526110782,0.01161661354179527,0.01220983691025031,-0.0011567327397497807
1.5110851590136218,0.03729532439305516,0.019901175777122863,0.013294021431409462,0.02711844331509059,-0.01102046406986743
1.5111566761685484,0.03854470610167679,0.0210059013232118,0.013163190298163863,0.04235347446017063,-0.022354358096761593
1.511228193323475,0.04022460916569971,0.021224344854019434,0.013651672900344249,0.05195659014718464,-0.02911823928855787
1.5112997104784016,0.04246467581659284,0.022407317623783743,0.01442102957265151,0.05529961393731518,-0.03106915637123037
1.5113712276333282,0.04493429586497486,0.026506993605177838,0.016921655013448497,0.053772480966426506,-0.02825041938469722
1.5114427447882548,0.04689231770787431,0.03074590711634379,0.019784155718843215,0.04834440563850389,-0.022304196022751296
1.5115142619431814,0.047454803887083834,0.03186337805438665,0.02007376929597759,0.042290165771956545,-0.017636526031893515
1.511585779098108,0.04599085839647899,0.0280284728877293,0.017243949592298295,0.036468570213001955,-0.015251380269609186
