freq,gls,usurper,pdc_unbiased,shape_periodogram,shift_periodogram
1.5,0.031605246424144244,0.03061105816429627,0.022003088454338578,0.03939257462864444,-0.0028482026762157503
1.5000715171549266,0.028595336453250155,0.02416068213866529,0.01679692217781675,0.03272890843495077,-0.003615598892598886
1.5001430343098532,0.024797888546036324,0.01856096146255145,0.011419584810450916,0.027606740007916616,-0.005361303681702731
1.5002145514647798,0.020789812632417533,0.016589114644888815,0.008796510756732951,0.023563269892524195,-0.005374909126738136
1.5002860686197064,0.017345459787468324,0.01888795678073803,0.009479677332466734,0.022292741671119675,-0.0041118099061300305
1.500357585774633,0.015271945925960987,0.02299081900797532,0.011714688134418397,0.02292520471043133,-0.002575350755954702
1.5004291029295596,0.015165201318802408,0.027782214430993837,0.01415548030345099,0.026497152260618204,-0.002458928186812097
1.5005006200844861,0.01716595655706576,0.03225415909510517,0.016954003693511403,0.029035368686454305,-0.001480973710496729
1.5005721372394127,0.02086274426290797,0.035675992043817016,0.019187221778694714,0.03141845490581234,-0.0008940866462244197
1.5006436543943393,0.02544081002802935,0.038697957948937704,0.02137618975240262,0.03428978096253216,-0.0006088146761911549
1.500715171549266,0.03000884122307953,0.04190583753246953,0.02421994995090846,0.03631508439041126,0.0006866584593720241
1.5007866887041925,0.03391266896856934,0.04555515025338366,0.02666061786266369,0.04184340596243531,-0.0002560472060388437
1.500858205859119,0.0368882624749449,0.04974004373309036,0.029368029530911475,0.04905573837713247,-0.0018876755902992844
1.5009297230140457,0.0390355018056212,0.054536820295284255,0.03287087235373193,0.0580507693001709,-0.0038171538707838758
1.5010012401689723,0.04067274274449097,0.05633278306462867,0.0349635290275476,0.06473963605286062,-0.005684874456721424
1.5010727573238989,0.04213722341942038,0.056922970078202385,0.036798409825528795,0.0688504870325705,-0.006370205183075686
1.5011442744788255,0.043587855733941964,0.05729797054438788,0.03793328428010061,0.07247443174707276,-0.007382120728602
1.501215791633752,0.044880915226329254,0.05712442337976088,0.03824814004694497,0.07518906661450533,-0.008592561836982327
1.5012873087886787,0.045592465454410994,0.05811770309407926,0.03896037083855539,0.07843865412363063,-0.009758903177845791
1.5013588259436053,0.04519857422015515,0.05741980025575128,0.038338310339186395,0.0785881846355147,-0.010365832823072213
1.5014303430985318,0.04331902735671992,0.05390753365089429,0.03525172960142179,0.07780816268435103,-0.012548274344463274
1.5015018602534584,0.03989064242203222,0.04643326893453764,0.029380562295107576,0.07389096883790017,-0.015371419118768742
1.501573377408385,0.035207008956161204,0.03784426867773684,0.02275340008029923,0.06897439217962208,-0.018283564207113596
1.5016448945633116,0.029854908046904056,0.030008857967419394,0.01716592382272006,0.061773522822385754,-0.01907347245975747
1.5017164117182382,0.02460404968418353,0.02351022276488995,0.01272729457488559,0.05389030554309553,-0.018524817774653046
1.5017879288731648,0.020274028275387688,0.019760377907905892,0.010756457121333964,0.047093403140047396,-0.016491212959286457
1.5018594460280914,0.01756978332877583,0.018018156491439327,0.009814843547662735,0.04301583652126476,-0.015069610771796133
1.501930963183018,0.016887968997375314,0.017626052580357453,0.009773529530205848,0.03889473302578204,-0.012867856053492135
1.5020024803379446,0.018154766828972088,0.016853322537609017,0.009545857603491862,0.03519963938481469,-0.011054647830850434
1.5020739974928712,0.020807783027131654,0.01727209153573734,0.00997328939183271,0.03294325458406266,-0.009471318644596197
1.5021455146477978,0.023992628107040868,0.019495728314404846,0.01144212206274167,0.03282751883438643,-0.00817327247495727
1.5022170318027244,0.026898257150269028,0.023554924776957715,0.014028974316248104,0.03572401571896129,-0.007568391596603648
1.502288548957651,0.029041972437567,0.027854871223392138,0.016679671046279716,0.039960795666694034,-0.007636570689969322
1.5023600661125776,0.03036170293294545,0.03263180598606159,0.019990738498687276,0.045067084805502276,-0.007620599780021337
1.5024315832675041,0.031115659296329378,0.033335439728001126,0.02077896981185265,0.04835902216198478,-0.008743713668326039
1.5025031004224307,0.031680428730509906,0.03097820374282994,0.019519808615351825,0.04949253660222623,-0.01041914698746404
1.5025746175773573,0.032340192227813126,0.027944971852859588,0.018649627815208736,0.04783242172217422,-0.010250425405634379
1.502646134732284,0.033131945974426154,0.025703720045501012,0.017871043624403338,0.04479506682539319,-0.00925713211085707
1.5027176518872105,0.033797027787609374,0.02544889115678612,0.01799769758677829,0.043584921262150515,-0.00849381121553147
1.502789169042137,0.033871437590867574,0.024367109142291718,0.017486670760106647,0.04150997207250622,-0.007797987096828982
1.5028606861970637,0.03289397904446062,0.021466913313202305,0.015274482970942199,0.03892662440654818,-0.008257831980601949
1.5029322033519903,0.030638444170610023,0.01787870589070711,0.012011118949132128,0.03649876518163806,-0.009685977699782336
1.5030037205069169,0.02725242384486997,0.015793178061945554,0.009441040885373031,0.034877651470507205,-0.010968134435336218
1.5030752376618435,0.023245599290448483,0.01673951921318706,0.008606550278537486,0.034042053085233705,-0.011216636222869216
1.50314675481677,0.019358366958489085,0.01950735281586299,0.008953985446160287,0.033898151206152964,-0.0108464164978593
1.5032182719716967,0.01638051368297583,0.023149727020315668,0.010426555451109277,0.03401125926543416,-0.009669390982035
1.5032897891266233,0.01497089818834955,0.02676596232974937,0.012350463029946239,0.03411658019799033,-0.008108425003272211
1.5033613062815498,0.015499460648454992,0.02958961583668244,0.013981854206916533,0.03360213402846372,-0.0064572161411589534
1.5034328234364764,0.01793079665045714,0.02970979870024303,0.01416864675154985,0.03077995749771743,-0.00476973973711886
1.503504340591403,0.021792554285279486,0.028772191888694662,0.013806564009865633,0.027725970058746,-0.0034185179300466116
1.5035758577463296,0.026283745634476982,0.030942681753066515,0.015751292513310384,0.027899631856780065,-0.0018769816015296126
1.5036473749012562,0.03053094650102892,0.03555282839157069,0.019003856556851165,0.03267028567141512,-0.0017270394807319136
1.5037188920561828,0.03389868374654469,0.04184427505971705,0.02304438568669538,0.04125494618968899,-0.002981740597028401
1.5037904092111094,0.03619247413189749,0.049678346111338374,0.02836367437687625,0.05083617590859379,-0.0037000588702151747
1.503861926366036,0.03764566473947448,0.05555897345413487,0.03246316988130233,0.05963660795988257,-0.0050220866304867585
1.5039334435209626,0.038716510453014726,0.05836873859515494,0.03408384953452373,0.06765602210479148,-0.008011999578335892
1.5040049606758892,0.0398171228344044,0.059896529468566655,0.03557140334761458,0.0731164320810894,-0.009725503280298118
1.5040764778308158,0.041095739566223526,0.06297991928981549,0.037525773851031737,0.07772410052081782,-0.010581972993134556
1.5041479949857424,0.04234364882306056,0.06605045128690124,0.038887791087543686,0.08252986796569496,-0.012047389782319355
1.504219512140669,0.043051695709888996,0.0675086795060902,0.03921573232033744,0.08667160232983194,-0.014026402196466625
1.5042910292955955,0.04260283060723393,0.06359085496001432,0.036347749549566495,0.08737170393979411,-0.01683200844707666
1.5043625464505221,0.04053910287302065,0.054032246274650066,0.030363706364527798,0.08340067401539837,-0.019721259683457046
1.5044340636054487,0.03679439695722014,0.04206937831678574,0.02344001313236871,0.07487959993496243,-0.02091926864241049
1.5045055807603753,0.03178229372791513,0.03153415493531165,0.01698689592080203,0.06656455453181118,-0.021830172704152433
1.504577097915302,0.026296542555493532,0.0242616242902564,0.012446934359831944,0.05905106706690835,-0.02156562482694785
1.5046486150702285,0.021278189004975218,0.021642073734954224,0.011187449324425095,0.05298181544902482,-0.0193268747074064
1.504720132225155,0.017555651134353225,0.02094719827603152,0.011283372248322305,0.04820531444471602,-0.01665172152874183
1.5047916493800817,0.01564621916050789,0.019900798015052255,0.010644076718018416,0.04440028398710565,-0.015123614110154249
1.5048631665350083,0.015656872938766518,0.017834829471921623,0.009217644422453899,0.03950092807854102,-0.013664304965814968
1.5049346836899349,0.017286051262519187,0.01633268909415649,0.008230188330603324,0.034775940294412604,-0.011931209382334808
1.5050062008448615,0.019918755698584013,0.01602193164005797,0.007905738300784866,0.03088858212953068,-0.010095600256547557
1.505077717999788,0.022804926807040774,0.01794171778881819,0.009361654152707073,0.02839920351092339,-0.0075214887595233355
1.5051492351547147,0.025289013466251117,0.022353584889809184,0.011726326065843064,0.031933111320129375,-0.0074492011420402154
1.5052207523096413,0.027015644551186973,0.026760448601551256,0.014241445734319206,0.03629743199369393,-0.007700681017914701
1.5052922694645678,0.028012475009877,0.028964031480693552,0.015961322224474977,0.0385120633454595,-0.007455064828126012
1.5053637866194944,0.028596359216805502,0.02600093227178455,0.014919408532213189,0.03713259769723465,-0.007583356807210668
1.505435303774421,0.02915112616185344,0.02049487332074104,0.013309044659559194,0.03268555541012446,-0.006526075569226487
1.5055068209293476,0.029900153036102176,0.016643011743944492,0.012321918805932341,0.028663549188355147,-0.00517543600351172
1.5055783380842742,0.030782681811496897,0.016140687696755578,0.01250866989698158,0.02696222753732845,-0.004096015808711818
1.5056498552392008,0.03146961942071043,0.018280785956845638,0.013496870470295333,0.028889256508401552,-0.0043096477406043355
1.5057213723941274,0.03149161794629547,0.019281696545653877,0.013134126432083434,0.031506267824949793,-0.006033701309569043
1.505792889549054,0.030427310908792447,0.018832546129040652,0.011855838401314541,0.03373578919165841,-0.008317915179878115
1.5058644067039806,0.02809465201809536,0.016906291354423588,0.009674998552531539,0.03381198304435906,-0.010193347613455524
1.5059359238589072,0.024683284499830333,0.013434172801800776,0.006168765257997816,0.03281942387430877,-0.012603284305387786
1.5060074410138338,0.020766913938386953,0.011257247905739835,0.003987129865862614,0.031191933835102187,-0.013554748782107686
1.5060789581687604,0.017165658691511196,0.012269629396646784,0.004506773893992003,0.02933207568867572,-0.012109234899653636
1.506150475323687,0.014695536880755058,0.014439914570752528,0.005603202541494299,0.02862989926319706,-0.010806680166083816
1.5062219924786135,0.013907828977730352,0.016130483218496583,0.006474304461408025,0.027213874469384475,-0.00930649358764161
1.5062935096335401,0.014929925183180436,0.01626791585297437,0.007024475314287043,0.02321066507477799,-0.006673614278922057
1.5063650267884667,0.01746107614733839,0.015013240728693502,0.006681651925523114,0.01987400127127729,-0.005153186532027159
1.5064365439433933,0.020900617081537138,0.016116503445198636,0.008103902228742074,0.017862638781433342,-0.0028673889206981295
1.50650806109832,0.024545654709518663,0.019542616411341543,0.01119024144466396,0.016819641663815475,0.00029262659065597946
1.5065795782532465,0.027795889555703463,0.025729824548524783,0.015188716512202768,0.02128198707983253,0.0012366208547038738
1.506651095408173,0.030315638754338018,0.03396918452707222,0.02020329875354711,0.028564306669771472,0.0015079181881647165
1.5067226125630997,0.03210575674634778,0.04225286028627712,0.02516307524326057,0.03702956879322683,0.0010932433725538986
1.5067941297180263,0.03344435853615213,0.04697403373648619,0.02809340030703321,0.04371370906418857,-6.366439329874549e-05
1.5068656468729529,0.03469846610783441,0.0475399391982667,0.028836225363534616,0.046884475046738296,-0.0011577789394678832
1.5069371640278795,0.03608805388876267,0.04684327767454175,0.029158238083419115,0.04793947180409671,-0.0014588153767838422
1.507008681182806,0.03753193323000867,0.04692025553059667,0.029645090979329304,0.04962804606309547,-0.0019647419856144597
1.5070801983377327,0.038657419159163646,0.04727573729287966,0.03000532215028713,0.051156612358691546,-0.002490618127145748
1.5071517154926592,0.038950459296790155,0.04641872761035241,0.029635790998015537,0.05108060684705103,-0.002760779102301735
1.5072232326475858,0.03795818995272562,0.04153326727274229,0.026170643808596194,0.04989971442642356,-0.005039397396941212
1.5072947498025124,0.035465807062779846,0.03523088760382981,0.02167628316777021,0.047318202585268816,-0.007423291983212845
1.507366266957439,0.03160750390290827,0.030094626627841632,0.01779655130545853,0.04475428410497564,-0.009297693522091394
1.5074377841123656,0.02689036393457737,0.02578206951609876,0.014369878001425985,0.04270737641268853,-0.011070346612867696
1.5075093012672922,0.022110982309926926,0.022233523045562618,0.012274203971852665,0.039590478015542066,-0.011142020345875359
1.5075808184222188,0.018158898886019043,0.02014632670187089,0.010838451012952628,0.03839268781997166,-0.011699788806662233
1.5076523355771454,0.015750547010193554,0.018919521810153588,0.009985828883372298,0.036619525064693806,-0.011454889067534346
1.507723852732072,0.015198153002695225,0.016144448468507572,0.008495434228764531,0.031967378497365105,-0.010184809211245533
1.5077953698869986,0.01632710132796861,0.012324398944975293,0.006411917338543193,0.025679843336426558,-0.008527214393892545
1.5078668870419252,0.01858159605132472,0.009486447381965942,0.00521914285473996,0.01934126340668891,-0.006093904914763611
1.5079384041968518,0.02125563485920751,0.007782583456495015,0.005152249488431391,0.013056294317860736,-0.0027439732757507038
1.5080099213517784,0.023737553869918368,0.007617710606938947,0.0057615299185219465,0.009705873877262083,-0.0004163096437698273
1.508081438506705,0.025680396681245936,0.009384304699438307,0.007453924502377228,0.00863002955583702,0.0015892230954517937
1.5081529556616315,0.027059576075294776,0.010954811105691955,0.008842952470356694,0.008655894525311344,0.0027428265094525885
1.5082244728165581,0.028112039179855254,0.010196515825304602,0.008942296206187028,0.0075901253770362725,0.0034037803182179224
1.5082959899714847,0.029172386947160022,0.008409127028976926,0.008780907310022895,0.0063787721437623185,0.003924431250135364
1.5083675071264113,0.03045818310099522,0.008646735124378281,0.010026451111954632,0.006057923469176053,0.00514525956364915
1.508439024281338,0.03190386747651281,0.012480085446432976,0.012747040105629182,0.0080887480074935,0.006332039968855587
1.5085105414362645,0.03314377564440417,0.01804749047777839,0.01600259242207933,0.012575579063829724,0.006638376024773769
1.508582058591191,0.03366149064758627,0.02269802792067632,0.0186299276568245,0.01682534047009363,0.0065454041548564
1.5086535757461177,0.03301661123576188,0.022289431644296236,0.017302793300784304,0.01872489135864798,0.00440013695920372
1.5087250929010443,0.031031763736761156,0.01830132825753144,0.013978643770450466,0.018290194529455663,0.001840294417673165
1.5087966100559709,0.02787943173947238,0.013142773800010096,0.009773118861112214,0.0159807325191455,-0.000444205215616519
1.5088681272108975,0.024071143965329337,0.008315213830908786,0.005405399448016361,0.014324907578240674,-0.0032186505745567875
1.508939644365824,0.020368522042175177,0.004619155527882813,0.002619426200917792,0.011810711024269983,-0.004197983024720796
1.5090111615207507,0.017622660517009992,0.0029637486866277234,0.001280243020763253,0.011037849150304443,-0.0049047894889406255
1.5090826786756772,0.016549556574789192,0.0025335249947058005,0.001094148915450876,0.01125535100571307,-0.0051790670584849
1.5091541958306038,0.01749078347259404,0.0026170019518193277,0.001728275756159572,0.010114113292797504,-0.004027650876397815
1.5092257129855304,0.02026609634215111,0.003011898825930785,0.002622344403247119,0.007450420417023466,-0.0018328073846393047
1.509297230140457,0.024225306810832306,0.005990817659210602,0.005090188490138515,0.005883229959016664,0.0010906509974220263
1.5093687472953836,0.028505184243561566,0.013157724483024786,0.010396256019729185,0.006712698630914969,0.00510137462330322
1.5094402644503102,0.032363241212534366,0.023137476405150625,0.017181792517199104,0.010948610693977637,0.008511248480532516
1.5095117816052368,0.035420479974014,0.034002415747070976,0.023785576506019895,0.017569684078363446,0.010478573366155187
1.5095832987601634,0.03772295943106026,0.04192259952974156,0.028541189697550762,0.02269991637798536,0.011701227071695809
1.50965481591509,0.039632532833370364,0.044104301663022594,0.030196375009199177,0.025024196103553168,0.01183550845230175
1.5097263330700166,0.041605230836871475,0.0397948077194496,0.028415936049993602,0.02371082115364174,0.01104830845873005
1.5097978502249432,0.04392716574129624,0.033403611357300876,0.026087173799228647,0.018384776954839737,0.01197333829267769
1.5098693673798698,0.04649881119729661,0.02983367479357139,0.025125670272120693,0.013205682876870031,0.013969260111360963
1.5099408845347964,0.048782229516577,0.03032801562750571,0.025898717163670308,0.012237854429744555,0.015143570323892299
1.510012401689723,0.04998265464348263,0.033329447670479594,0.027970420605425636,0.013717407495391345,0.016085092406118492
1.5100839188446495,0.04939582665258717,0.033802436710347175,0.02744804663090382,0.015140643310982435,0.014875017561954869
1.5101554359995761,0.046726633743720845,0.031440791716149476,0.024915387052692306,0.015598852474578076,0.012496363143044493
1.5102269531545027,0.04221494386441091,0.02876095335265622,0.022036546886626967,0.015465269753083074,0.010147243872803807
1.5102984703094293,0.0365554045951188,0.02719017105397932,0.019143160662124768,0.017088179160133565,0.0068346423274532045
1.510369987464356,0.030705701566729478,0.027243642458794712,0.01712115674686206,0.020035766373317686,0.0035370992097757117
1.5104415046192825,0.025671938650474672,0.028517777402409714,0.016152578444133103,0.023369195319872162,0.00091610585389684
1.510513021774209,0.02230380117340663,0.030322456920035455,0.01595046449902194,0.026943071197909365,-0.001190931759942218
1.5105845389291357,0.02110478427342222,0.02908993034573588,0.014310671393420193,0.027518908903118172,-0.002882288850666677
1.5106560560840623,0.022087028251984653,0.02450601914048972,0.011927341615445858,0.022776276657539025,-0.0023158131714290826
1.5107275732389889,0.02474352062355467,0.01713389046761857,0.008315005741078718,0.015477366959359902,-0.0013972604921778176
1.5107990903939155,0.028206425428266402,0.011593692114172658,0.006455089330600415,0.0082555107672575,0.0009525483752863308
1.510870607548842,0.03156791810921427,0.009169983045478303,0.006924877381908108,0.0031089812731465807,0.004135899060309283
1.5109421247037687,0.034217944840168574,0.009602310584495836,0.0085255112555674,0.0015882284604507354,0.006305218756046915
1.5110136418586952,0.036025983655989566,0.012757870163770803,0.01161661354179527,0.002485376713060268,0.008417409384190904
1.5110851590136218,0.03729532439305516,0.014268317531910367,0.013294021431409462,0.003960382247905948,0.009028364730144815
1.5111566761685484,0.03854470610167679,0.013051367635493166,0.013163190298163863,0.0051999979328090085,0.008246846774675328
1.511228193323475,0.04022460916569971,0.011936732178072137,0.013651672900344249,0.004237808773704865,0.009178725807074047
1.5112997104784016,0.04246467581659284,0.012717546632019908,0.01442102957265151,0.0038219458441878123,0.010050749506925007
1.5113712276333282,0.04493429586497486,0.01729452624872721,0.016921655013448497,0.006118367376269328,0.010909009978449458
1.5114427447882548,0.04689231770787431,0.022710081926919232,0.019784155718843215,0.009547490104072137,0.011458365613329543
1.5115142619431814,0.047454803887083834,0.02487451569085847,0.02007376929597759,0.012220071111148353,0.01025431346565182
