freq,gls,usurper,pdc_unbiased,shape_periodogram,shift_periodogram
1.5,0.031605246424144244,0.030883011058103343,0.022003088454338578,0.027179466891871788,0.006753985256098394
1.5000715171549266,0.028595336453250155,0.024568523859376766,0.01679692217781675,0.021028075692356277,0.005023004341738619
1.5001430343098532,0.024797888546036324,0.01921811509868534,0.011419584810450916,0.01639306092409158,0.0024336492497486
1.5002145514647798,0.020789812632417533,0.017689710724090996,0.008796510756732951,0.012705391985965528,0.0018379627496291477
1.5002860686197064,0.017345459787468324,0.020437897938561846,0.009479677332466734,0.011283473003998528,0.0031066622789170167
1.500357585774633,0.015271945925960987,0.025012461586097292,0.011714688134418397,0.011908349569203868,0.0047908309300860345
1.5004291029295596,0.015165201318802408,0.03061719758114825,0.01415548030345099,0.0156964491704554,0.0051787255606449605
1.5005006200844861,0.01716595655706576,0.036056999208131504,0.016954003693511403,0.018676424827360084,0.006261080350177442
1.5005721372394127,0.02086274426290797,0.040596733547027336,0.019187221778694714,0.021151751487525308,0.0070796799379326605
1.5006436543943393,0.02544081002802935,0.04448007894031633,0.02137618975240262,0.023204957074419195,0.008056764205742688
1.500715171549266,0.03000884122307953,0.04862585197714006,0.02421994995090846,0.023765819828738967,0.010310991892875281
1.5007866887041925,0.03391266896856934,0.053227367742966956,0.02666061786266369,0.026745057376694675,0.011079052141685173
1.500858205859119,0.0368882624749449,0.0582971293774954,0.029368029530911475,0.03103024480326039,0.011473775692998716
1.5009297230140457,0.0390355018056212,0.0635946152120263,0.03287087235373193,0.037018949254915834,0.011778096924041985
1.5010012401689723,0.04067274274449097,0.06533445070404675,0.0349635290275476,0.042166911212910795,0.011226982665878703
1.5010727573238989,0.04213722341942038,0.0651179502175105,0.036798409825528795,0.045519274278166016,0.01128692269425081
1.5011442744788255,0.043587855733941964,0.06468829272726785,0.03793328428010061,0.04896272837005912,0.010683945342135109
1.501215791633752,0.044880915226329254,0.06391277314735229,0.03824814004694497,0.05236212858443599,0.00937415952307256
1.5012873087886787,0.045592465454410994,0.06482481694779638,0.03896037083855539,0.0562841865001003,0.008172153667480973
1.5013588259436053,0.04519857422015515,0.06429490770326574,0.038338310339186395,0.0571427987174187,0.007218583548036849
1.5014303430985318,0.04331902735671992,0.06097879662613403,0.03525172960142179,0.05723924439137979,0.004434936416809621
1.5015018602534584,0.03989064242203222,0.053701829027952765,0.029380562295107576,0.05512485293131937,0.00021791251429416732
1.501573377408385,0.035207008956161204,0.04479706484856793,0.02275340008029923,0.05210703846232572,-0.004242152802549742
1.5016448945633116,0.029854908046904056,0.0365570693394599,0.01716592382272006,0.047059632259013454,-0.0068270016353411764
1.5017164117182382,0.02460404968418353,0.02940901314245446,0.01272729457488559,0.04146505599459124,-0.00813646754441072
1.5017879288731648,0.020274028275387688,0.0247171532858194,0.010756457121333964,0.03666098851237313,-0.007631728737596112
1.5018594460280914,0.01756978332877583,0.022247333495043275,0.009814843547662735,0.0344023180329581,-0.007407781703526046
1.501930963183018,0.016887968997375314,0.021406497808257468,0.009773529530205848,0.032022852569462024,-0.006331017060128879
1.5020024803379446,0.018154766828972088,0.020273892812608007,0.009545857603491862,0.029685155649372,-0.0054388032745991835
1.5020739974928712,0.020807783027131654,0.02060348152593958,0.00997328939183271,0.02848835644688589,-0.004500932622969004
1.5021455146477978,0.023992628107040868,0.023130483924954353,0.01144212206274167,0.028552104770575393,-0.003231533030249327
1.5022170318027244,0.026898257150269028,0.02755722502239661,0.014028974316248104,0.030085044288525823,-0.0016601069081342932
1.502288548957651,0.029041972437567,0.03239056464826074,0.016679671046279716,0.032271437682115406,-0.0003373889930187386
1.5023600661125776,0.03036170293294545,0.03760731655063332,0.019990738498687276,0.03484211746027502,0.001390585218531597
1.5024315832675041,0.031115659296329378,0.03823286078929728,0.02077896981185265,0.03684123166064575,0.0011533357806362957
1.5025031004224307,0.031680428730509906,0.03509317466481671,0.019519808615351825,0.037231239741417545,-0.0001436626245419209
1.5025746175773573,0.032340192227813126,0.03066200796411049,0.018649627815208736,0.03481972745269326,0.0002140904824349825
1.502646134732284,0.033131945974426154,0.027146903503176414,0.017871043624403338,0.03141611664029542,0.0011168208224781786
1.5027176518872105,0.033797027787609374,0.02617289779937159,0.01799769758677829,0.029821775118681507,0.001974405996637944
1.502789169042137,0.033871437590867574,0.024607890231227503,0.017486670760106647,0.027110394032984122,0.002789947591135906
1.5028606861970637,0.03289397904446062,0.021319289697392184,0.015274482970942199,0.02437271971419121,0.0021127938490469937
1.5029322033519903,0.030638444170610023,0.01780754596364082,0.012011118949132128,0.022269484751706564,0.0002096126541167515
1.5030037205069169,0.02725242384486997,0.016232723978665337,0.009441040885373031,0.020902956663220378,-0.001424416035459263
1.5030752376618435,0.023245599290448483,0.01820612433761896,0.008606550278537486,0.021057821325120827,-0.0022347898899958253
1.50314675481677,0.019358366958489085,0.02202436404970257,0.008953985446160287,0.02143803127542853,-0.002105321398708406
1.5032182719716967,0.01638051368297583,0.026566559496176274,0.010426555451109277,0.021729759053927582,-0.0009394449138776295
1.5032897891266233,0.01497089818834955,0.030734322235744464,0.012350463029946239,0.02221817004940183,0.0005337356765392505
1.5033613062815498,0.015499460648454992,0.03410230949038121,0.013981854206916533,0.021701643512117452,0.002218135735798323
1.5034328234364764,0.01793079665045714,0.0346486184200423,0.01416864675154985,0.01861631105202369,0.00382560698283121
1.503504340591403,0.021792554285279486,0.03401890996051418,0.013806564009865633,0.015006818122650275,0.005192482096116427
1.5035758577463296,0.026283745634476982,0.03647361905216605,0.015751292513310384,0.014476721795390123,0.007160080341055289
1.5036473749012562,0.03053094650102892,0.041678651261706806,0.019003856556851165,0.01801695557212956,0.008382444858714144
1.5037188920561828,0.03389868374654469,0.048793679439270966,0.02304438568669538,0.02452956045787597,0.008913854983283785
1.5037904092111094,0.03619247413189749,0.05798325236598146,0.02836367437687625,0.031095721702911205,0.010553924115432826
1.503861926366036,0.03764566473947448,0.06508627625770051,0.03246316988130233,0.03745170830910973,0.011214719970206368
1.5039334435209626,0.038716510453014726,0.06872791269341522,0.03408384953452373,0.04391272502994294,0.009631448546170322
1.5040049606758892,0.0398171228344044,0.07048002926842134,0.03557140334761458,0.04899041666111743,0.008576566951261829
1.5040764778308158,0.041095739566223526,0.07394062478742783,0.037525773851031737,0.053901882043309715,0.008013406997152372
1.5041479949857424,0.04234364882306056,0.07734583744786656,0.038887791087543686,0.058653282761175214,0.006999657818319265
1.504219512140669,0.043051695709888996,0.07874629368978565,0.03921573232033744,0.06195832179653106,0.0057444239903136655
1.5042910292955955,0.04260283060723393,0.07421305447816791,0.036347749549566495,0.06259019025733176,0.0029029823580424886
1.5043625464505221,0.04053910287302065,0.06346393171306049,0.030363706364527798,0.0597316479841866,-0.0010673793135223858
1.5044340636054487,0.03679439695722014,0.049877049553599256,0.02344001313236871,0.05294798852737106,-0.004027656459743146
1.5045055807603753,0.03178229372791513,0.037956937115394995,0.01698689592080203,0.04682235234650087,-0.00687439805465114
1.504577097915302,0.026296542555493532,0.029680794319135537,0.012446934359831944,0.041491856274053336,-0.008397107510271486
1.5046486150702285,0.021278189004975218,0.026250431541117444,0.011187449324425095,0.03731982580610834,-0.007558750843609518
1.504720132225155,0.017555651134353225,0.024761644226986967,0.011283372248322305,0.034553150415689286,-0.006179233858727396
1.5047916493800817,0.01564621916050789,0.02316562894435488,0.010644076718018416,0.032551290628799884,-0.00580817344249123
1.5048631665350083,0.015656872938766518,0.020771497560732075,0.009217644422453899,0.02974257349673507,-0.005755965556048832
1.5049346836899349,0.017286051262519187,0.0192576292997024,0.008230188330603324,0.02627408925656374,-0.0050069513328934315
1.5050062008448615,0.019918755698584013,0.019113604448518114,0.007905738300784866,0.023598473205914888,-0.004042569630774293
1.505077717999788,0.022804926807040774,0.021251993812208308,0.009361654152707073,0.02190525028448786,-0.0019632642456093017
1.5051492351547147,0.025289013466251117,0.026095786625014432,0.011726326065843064,0.025356445226896875,-0.0014856689739109134
1.5052207523096413,0.027015644551186973,0.031148258829269634,0.014241445734319206,0.029407659463066144,-0.001155339803007947
1.5052922694645678,0.028012475009877,0.03382851009258536,0.015961322224474977,0.03107357212735277,-0.00041279172680268317
1.5053637866194944,0.028596359216805502,0.030663729655555475,0.014919408532213189,0.029600074717227223,-0.0006455329952238982
1.505435303774421,0.02915112616185344,0.023670528582696332,0.013309044659559194,0.025180665740084873,-3.5285467612180173e-06
1.5055068209293476,0.029900153036102176,0.018409568418727634,0.012321918805932341,0.021381875294356183,0.000899477940093343
1.5055783380842742,0.030782681811496897,0.01714793408997573,0.01250866989698158,0.019623048345158,0.0018868911688973455
1.5056498552392008,0.03146961942071043,0.019095558678249296,0.013496870470295333,0.020315607049107377,0.0024371262283250233
1.5057213723941274,0.03149161794629547,0.02023557266022556,0.013134126432083434,0.02128016963608143,0.001665378646484664
1.505792889549054,0.030427310908792447,0.02012362218446732,0.011855838401314541,0.022078708336109837,0.00016147236954988444
1.5058644067039806,0.02809465201809536,0.018525158553552832,0.009674998552531539,0.02118960398151351,-0.0013515416501121546
1.5059359238589072,0.024683284499830333,0.015588270476518734,0.006168765257997816,0.020087023049650318,-0.003936539113596858
1.5060074410138338,0.020766913938386953,0.013833772145574191,0.003987129865862614,0.018862913919834183,-0.005293167161996316
1.5060789581687604,0.017165658691511196,0.015145301112426011,0.004506773893992003,0.017041041395281703,-0.003981856492131519
1.506150475323687,0.014695536880755058,0.01768447681766951,0.005603202541494299,0.016467591995844886,-0.002744310977814105
1.5062219924786135,0.013907828977730352,0.019819061668202825,0.006474304461408025,0.016012338304794316,-0.0017612505101977688
1.5062935096335401,0.014929925183180436,0.020065707036445713,0.007024475314287043,0.012967434726437745,0.00014866235187335875
1.5063650267884667,0.01746107614733839,0.018705792951376168,0.006681651925523114,0.009844209325339292,0.001305510310239191
1.5064365439433933,0.020900617081537138,0.019820044213548712,0.008103902228742074,0.007754862259454754,0.003539570008555934
1.50650806109832,0.024545654709518663,0.02379279060896953,0.01119024144466396,0.006052579245692627,0.007063937875492212
1.5065795782532465,0.027795889555703463,0.03099031489626378,0.015188716512202768,0.00849416002669086,0.009458341351760319
1.506651095408173,0.030315638754338018,0.04069373765398223,0.02020329875354711,0.013140258122214176,0.011722050430329615
1.5067226125630997,0.03210575674634778,0.05075635432903064,0.02516307524326057,0.0194564757750402,0.013158806360289698
1.5067941297180263,0.03344435853615213,0.05664039569033103,0.02809340030703321,0.025645706013225626,0.012860853319094943
1.5068656468729529,0.03469846610783441,0.05723701046145481,0.028836225363534616,0.02914791729328122,0.011882340876622498
1.5069371640278795,0.03608805388876267,0.05603198140331664,0.029158238083419115,0.03085577804743696,0.011369534744211596
1.507008681182806,0.03753193323000867,0.05551675587779094,0.029645090979329304,0.033136020034835977,0.010735233014106164
1.5070801983377327,0.038657419159163646,0.055353624775127244,0.03000532215028713,0.03438942684122212,0.010468576943939722
1.5071517154926592,0.038950459296790155,0.05382295314715143,0.029635790998015537,0.033896675228450766,0.01037157403474331
1.5072232326475858,0.03795818995272562,0.048386383278431,0.026170643808596194,0.0326942331142715,0.007865307454768088
1.5072947498025124,0.035465807062779846,0.041647915598279954,0.02167628316777021,0.030506428623656445,0.0049096390541381015
1.507366266957439,0.03160750390290827,0.036250776816584084,0.01779655130545853,0.02811324676281784,0.002595259455100502
1.5074377841123656,0.02689036393457737,0.0315131413070728,0.014369878001425985,0.0264626098317802,0.000335451009762743
1.5075093012672922,0.022110982309926926,0.026944803582654175,0.012274203971852665,0.024306610881582244,-0.0005101750960332359
1.5075808184222188,0.018158898886019043,0.02380474295013228,0.010838451012952628,0.024074524106292655,-0.0016715267010752985
1.5076523355771454,0.015750547010193554,0.021903764654696765,0.009985828883372298,0.023621159522669168,-0.0022136077820054272
1.507723852732072,0.015198153002695225,0.018390279020170788,0.008495434228764531,0.020867503375332084,-0.002244063564355904
1.5077953698869986,0.01632710132796861,0.014060309879216006,0.006411917338543193,0.016694252421317498,-0.002135222111614746
1.5078668870419252,0.01858159605132472,0.010850099271782898,0.00521914285473996,0.012363352195845641,-0.001165132292101931
1.5079384041968518,0.02125563485920751,0.008825255059197455,0.005152249488431391,0.007897979695887736,0.0008630888769231592
1.5080099213517784,0.023737553869918368,0.00856654474952225,0.0057615299185219465,0.005563022828965169,0.0024931662464567905
1.508081438506705,0.025680396681245936,0.010681813997596445,0.007453924502377228,0.004336894245499281,0.0045624860388228695
1.5081529556616315,0.027059576075294776,0.012784487759650685,0.008842952470356694,0.0037573839226904228,0.006061367844927068
1.5082244728165581,0.028112039179855254,0.012033650933405065,0.008942296206187028,0.002956495284825793,0.00652351798389253
1.5082959899714847,0.029172386947160022,0.009553069014832879,0.008780907310022895,0.002751182400790536,0.0064767966010702135
1.5083675071264113,0.03045818310099522,0.00903202809858475,0.010026451111954632,0.004194411271909987,0.006903442329082688
1.508439024281338,0.03190386747651281,0.012757634928497342,0.012747040105629182,0.007902494507652198,0.007575853783842778
1.5085105414362645,0.03314377564440417,0.018758516313693324,0.01600259242207933,0.012842005020680522,0.008146269833151
1.508582058591191,0.03366149064758627,0.023654793561289512,0.0186299276568245,0.01577606640336294,0.009098850700944697
1.5086535757461177,0.03301661123576188,0.023816632629062997,0.017302793300784304,0.01659787625563808,0.007540985673888234
1.5087250929010443,0.031031763736761156,0.020256535027908418,0.013978643770450466,0.015536177783206545,0.005097246153594276
1.5087966100559709,0.02787943173947238,0.015447088190772512,0.009773118861112214,0.012679555504030259,0.0027135656044948815
1.5088681272108975,0.024071143965329337,0.011017492056606055,0.005405399448016361,0.010454523377775915,-0.00010814454359155273
1.508939644365824,0.020368522042175177,0.007283527536871517,0.002619426200917792,0.007294431913109597,-0.001093996329754558
1.5090111615207507,0.017622660517009992,0.005166624606319999,0.001280243020763253,0.0053774388639698896,-0.001381814413883874
1.5090826786756772,0.016549556574789192,0.0042412082573581806,0.001094148915450876,0.005258055324828597,-0.0014905246155125507
1.5091541958306038,0.01749078347259404,0.004043021156143448,0.001728275756159572,0.004353906141242162,-0.0005072956318876808
1.5092257129855304,0.02026609634215111,0.004704006537427889,0.002622344403247119,0.0019058770946308841,0.0014273797114354942
1.509297230140457,0.024225306810832306,0.008555198970746072,0.005090188490138515,7.716578931347691e-05,0.004463826850304267
1.5093687472953836,0.028505184243561566,0.017024604535881446,0.010396256019729185,0.0010270105176725852,0.008710725104231406
1.5094402644503102,0.032363241212534366,0.02871274726923626,0.017181792517199104,0.004975946273370735,0.01286466654135446
1.5095117816052368,0.035420479974014,0.041671627418945874,0.023785576506019895,0.010015149388634311,0.016350391992218195
1.5095832987601634,0.03772295943106026,0.05112527099425351,0.028541189697550762,0.013607782701375562,0.018879279902965156
1.50965481591509,0.039632532833370364,0.05373062014555488,0.030196375009199177,0.015488448763726723,0.019465595876844762
1.5097263330700166,0.041605230836871475,0.04840270188688043,0.028415936049993602,0.014631764711392553,0.018290293402809764
1.5097978502249432,0.04392716574129624,0.04018508860567353,0.026087173799228647,0.010381811154272393,0.018214911999063072
1.5098693673798698,0.04649881119729661,0.03499748454204303,0.025125670272120693,0.006509661174176165,0.019172953705916422
1.5099408845347964,0.048782229516577,0.034263125922804394,0.025898717163670308,0.0067608566768854565,0.0197393257282767
1.510012401689723,0.04998265464348263,0.036590734419898414,0.027970420605425636,0.008365387784555985,0.02082237529529918
1.5100839188446495,0.04939582665258717,0.036938228545524684,0.02744804663090382,0.00953591273027426,0.019813708424487254
1.5101554359995761,0.046726633743720845,0.03471513550918113,0.024915387052692306,0.009162523969105179,0.017747925192241425
1.5102269531545027,0.04221494386441091,0.03229544242324003,0.022036546886626967,0.008623154498522651,0.015453730972990114
1.5102984703094293,0.0365554045951188,0.03130617780307819,0.019143160662124768,0.009612221944784314,0.012432824443635646
1.510369987464356,0.030705701566729478,0.0320995154504797,0.01712115674686206,0.012072704598215099,0.00949497791403968
1.5104415046192825,0.025671938650474672,0.03382850302516011,0.016152578444133103,0.014991148764579935,0.007274564979518333
1.510513021774209,0.02230380117340663,0.03591735666752377,0.01595046449902194,0.018171291588656765,0.005609543044466378
1.5105845389291357,0.02110478427342222,0.03481943155012702,0.014310671393420193,0.018795744385684324,0.003867346265340437
1.5106560560840623,0.022087028251984653,0.029593631129040645,0.011927341615445858,0.015126788328600333,0.0034745628581389224
1.5107275732389889,0.02474352062355467,0.02096659186848137,0.008315005741078718,0.009161931706333157,0.003068535906039166
1.5107990903939155,0.028206425428266402,0.014103090026712287,0.006455089330600415,0.0030136178994561945,0.004297943082148862
1.510870607548842,0.03156791810921427,0.01066424061004344,0.006924877381908108,-0.0013901999854012013,0.006771621537582713
1.5109421247037687,0.034217944840168574,0.010694719003352338,0.0085255112555674,-0.002591223053606525,0.008747994358272585
1.5110136418586952,0.036025983655989566,0.01397852080641623,0.01161661354179527,-0.002001183530430241,0.011204865322954744
1.5110851590136218,0.03729532439305516,0.0155845544553169,0.013294021431409462,-0.0001640622426779313,0.01182922066512345
1.5111566761685484,0.03854470610167679,0.014057576133144772,0.013163190298163863,0.0018925007604727,0.010752459626108555
1.511228193323475,0.04022460916569971,0.012526017516688507,0.013651672900344249,0.0025052876924641534,0.01089796468590691
1.5112997104784016,0.04246467581659284,0.013322636297605502,0.01442102957265151,0.0038219644846282986,0.010962882004871869
1.5113712276333282,0.04493429586497486,0.018365203515874822,0.016921655013448497,0.007020519996044194,0.01167930028961062
1.5114427447882548,0.04689231770787431,0.024290056934807985,0.019784155718843215,0.010507404193074039,0.012581457075687499
1.5115142619431814,0.047454803887083834,0.026812703972298336,0.02007376929597759,0.013610317237786372,0.011387863172621594
