freq,gls,usurper,pdc_unbiased,shape_periodogram,shift_periodogram
1.5,0.031605246424144244,0.029998845685345447,0.022003088454338578,0.024768550390693974,0.009913445442327536
1.5000715171549266,0.028595336453250155,0.023519101568308203,0.01679692217781675,0.01950156624784594,0.007322043669833741
1.5001430343098532,0.024797888546036324,0.017924327866532586,0.011419584810450916,0.015049075456439989,0.004242235705613068
1.5002145514647798,0.020789812632417533,0.016129397079417487,0.008796510756732951,0.010844631518829384,0.0035741406168709926
1.5002860686197064,0.017345459787468324,0.018673515864274043,0.009479677332466734,0.008696768039956235,0.0050782897911443355
1.500357585774633,0.015271945925960987,0.02308804889871393,0.011714688134418397,0.008760141152948738,0.007090906689063755
1.5004291029295596,0.015165201318802408,0.02808057880771039,0.01415548030345099,0.011678133242954636,0.008120617867895969
1.5005006200844861,0.01716595655706576,0.03277745526810668,0.016954003693511403,0.01377332059259095,0.009814453547293843
1.5005721372394127,0.02086274426290797,0.036384243996384534,0.019187221778694714,0.01585859438461037,0.01099696226467714
1.5006436543943393,0.02544081002802935,0.03952130755752572,0.02137618975240262,0.01826778820595698,0.012006632342186832
1.500715171549266,0.03000884122307953,0.04289159552642241,0.02421994995090846,0.01961936279645584,0.014047871098421276
1.5007866887041925,0.03391266896856934,0.04673405260102613,0.02666061786266369,0.023644665447743126,0.014625848762780835
1.500858205859119,0.0368882624749449,0.05103756185773166,0.029368029530911475,0.02890874361157659,0.014940518079177645
1.5009297230140457,0.0390355018056212,0.05586646830803872,0.03287087235373193,0.035966008009986436,0.01524821632708845
1.5010012401689723,0.04067274274449097,0.057512335630210736,0.0349635290275476,0.04151042231046102,0.01488866302909933
1.5010727573238989,0.04213722341942038,0.05780417079516716,0.036798409825528795,0.04549540276320052,0.01493319263564487
1.5011442744788255,0.043587855733941964,0.057963777394434146,0.03793328428010061,0.049221629593470775,0.014443993354499512
1.501215791633752,0.044880915226329254,0.057665954003937536,0.03824814004694497,0.052316889963463814,0.013463248099981902
1.5012873087886787,0.045592465454410994,0.05850878124913117,0.03896037083855539,0.05480645218048614,0.013094325819224931
1.5013588259436053,0.04519857422015515,0.05770641681697681,0.038338310339186395,0.05492655363378938,0.012475777260828706
1.5014303430985318,0.04331902735671992,0.054028597148464884,0.03525172960142179,0.055519013008828146,0.009408318578903936
1.5015018602534584,0.03989064242203222,0.04625107971662025,0.029380562295107576,0.053264266002215725,0.004963293173748155
1.501573377408385,0.035207008956161204,0.03735051689942962,0.02275340008029923,0.05044677899567946,6.208448150570798e-05
1.5016448945633116,0.029854908046904056,0.02925825825229963,0.01716592382272006,0.044532783717138716,-0.0026133249254022693
1.5017164117182382,0.02460404968418353,0.022550397490848223,0.01272729457488559,0.038051952373080976,-0.004004395738375198
1.5017879288731648,0.020274028275387688,0.018701423825263422,0.010756457121333964,0.03275613797830919,-0.0036287636806728416
1.5018594460280914,0.01756978332877583,0.01687724078674374,0.009814843547662735,0.029723581627303507,-0.003243122724305942
1.501930963183018,0.016887968997375314,0.01658424211063954,0.009773529530205848,0.026638388143646528,-0.002014498601091921
1.5020024803379446,0.018154766828972088,0.015941760875244845,0.009545857603491862,0.023528844072641598,-0.0009461209710840097
1.5020739974928712,0.020807783027131654,0.016558057550526178,0.00997328939183271,0.021335389628956265,0.0003438816936129588
1.5021455146477978,0.023992628107040868,0.01895693131348096,0.01144212206274167,0.020364647216666518,0.002082234595104687
1.5022170318027244,0.026898257150269028,0.023245637568531104,0.014028974316248104,0.021901379415626324,0.003812051388384276
1.502288548957651,0.029041972437567,0.027695615228990278,0.016679671046279716,0.024270058742340655,0.005259225329856349
1.5023600661125776,0.03036170293294545,0.0325847833614845,0.019990738498687276,0.028052574827031,0.006729767810543595
1.5024315832675041,0.031115659296329378,0.033205303231362414,0.02077896981185265,0.03075027932328099,0.006342801763563178
1.5025031004224307,0.031680428730509906,0.030584630585005157,0.019519808615351825,0.0321598995552615,0.004614976928046415
1.5025746175773573,0.032340192227813126,0.027350084471998402,0.018649627815208736,0.031124252049904207,0.004245471057534694
1.502646134732284,0.033131945974426154,0.02509623218204716,0.017871043624403338,0.028854845253409898,0.0044658049203241705
1.5027176518872105,0.033797027787609374,0.02483474318152792,0.01799769758677829,0.027226670562277254,0.005249332979546385
1.502789169042137,0.033871437590867574,0.023729578797400563,0.017486670760106647,0.02480169278686966,0.005777639761342527
1.5028606861970637,0.03289397904446062,0.020775217875375864,0.015274482970942199,0.02291676571079956,0.004532032862010424
1.5029322033519903,0.030638444170610023,0.017198298783913046,0.012011118949132128,0.021387965526547675,0.0021815424959345025
1.5030037205069169,0.02725242384486997,0.015194254263196583,0.009441040885373031,0.0201406540172703,0.00034850372820382147
1.5030752376618435,0.023245599290448483,0.016328522458074382,0.008606550278537486,0.018740300556213757,0.00016177385732599612
1.50314675481677,0.019358366958489085,0.019345591996937243,0.008953985446160287,0.018033610180859073,0.0007686605818493737
1.5032182719716967,0.01638051368297583,0.02325468223526576,0.010426555451109277,0.01745594588749248,0.0023490104985968447
1.5032897891266233,0.01497089818834955,0.027151489682725793,0.012350463029946239,0.017935162622163284,0.0039075961369233435
1.5033613062815498,0.015499460648454992,0.03022708861409585,0.013981854206916533,0.01819485401555491,0.005289464655121423
1.5034328234364764,0.01793079665045714,0.030541235354431956,0.01416864675154985,0.016488489121637286,0.006159768463944358
1.503504340591403,0.021792554285279486,0.02987018368167072,0.013806564009865633,0.014013609898429558,0.006844488179499301
1.5035758577463296,0.026283745634476982,0.03231617907026825,0.015751292513310384,0.014188625435989645,0.008546880080408296
1.5036473749012562,0.03053094650102892,0.037192908898851934,0.019003856556851165,0.018130031872776828,0.009898283195033773
1.5037188920561828,0.03389868374654469,0.0436984126603114,0.02304438568669538,0.02441742077772691,0.011007919321288293
1.5037904092111094,0.03619247413189749,0.05176710246035596,0.02836367437687625,0.031614468575817296,0.012914276860435883
1.503861926366036,0.03764566473947448,0.057754424629139024,0.03246316988130233,0.03872383441610765,0.013745408894484987
1.5039334435209626,0.038716510453014726,0.060512081755319774,0.03408384953452373,0.046465611596313634,0.012053221584744513
1.5040049606758892,0.0398171228344044,0.06186898450294295,0.03557140334761458,0.051977373654469645,0.011153539368163785
1.5040764778308158,0.041095739566223526,0.06499391023664625,0.037525773851031737,0.056907297892406665,0.010919796646221076
1.5041479949857424,0.04234364882306056,0.06812870034125709,0.038887791087543686,0.06158558490872905,0.010247414896878653
1.504219512140669,0.043051695709888996,0.06947351031159561,0.03921573232033744,0.0655412587129094,0.008924409108271865
1.5042910292955955,0.04260283060723393,0.06526441510878274,0.036347749549566495,0.06769738077736075,0.005412254424923079
1.5043625464505221,0.04053910287302065,0.055180522254788325,0.030363706364527798,0.06657343927905601,0.0003953380820784892
1.5044340636054487,0.03679439695722014,0.04257644227619033,0.02344001313236871,0.06087188848015044,-0.0035945220984776967
1.5045055807603753,0.03178229372791513,0.031517185964799,0.01698689592080203,0.05460813245534297,-0.006917330911695419
1.504577097915302,0.026296542555493532,0.023931263371486152,0.012446934359831944,0.048078316505407115,-0.008379666407608628
1.5046486150702285,0.021278189004975218,0.021150547489247454,0.011187449324425095,0.0419960209958781,-0.007030105849235488
1.504720132225155,0.017555651134353225,0.020441573782654654,0.011283372248322305,0.037500771827451866,-0.005096065996275359
1.5047916493800817,0.01564621916050789,0.019441472716279662,0.010644076718018416,0.034157606479804196,-0.0043067284116371915
1.5048631665350083,0.015656872938766518,0.017370323399665204,0.009217644422453899,0.030250182086946173,-0.004004240409643592
1.5049346836899349,0.017286051262519187,0.015914882839442684,0.008230188330603324,0.02568623038611913,-0.003031861165666695
1.5050062008448615,0.019918755698584013,0.01578078630944806,0.007905738300784866,0.021743638935795586,-0.001709877263078829
1.505077717999788,0.022804926807040774,0.017913269217190476,0.009361654152707073,0.018847868298252156,0.0008064908925101616
1.5051492351547147,0.025289013466251117,0.022542475729967468,0.011726326065843064,0.020922205694712266,0.0021127871226935243
1.5052207523096413,0.027015644551186973,0.027191155415456195,0.014241445734319206,0.023543707030027367,0.0033321866605637213
1.5052922694645678,0.028012475009877,0.02954215345808566,0.015961322224474977,0.02479957090282369,0.004386453309246343
1.5053637866194944,0.028596359216805502,0.026481651788062718,0.014919408532213189,0.023879180376984232,0.003813214675685626
1.505435303774421,0.02915112616185344,0.020609734907652093,0.013309044659559194,0.020452507087690152,0.0037495254525225816
1.5055068209293476,0.029900153036102176,0.016618540762644615,0.012321918805932341,0.017500625054009573,0.004059803004363647
1.5055783380842742,0.030782681811496897,0.01617978274693251,0.01250866989698158,0.016050821107428153,0.004824870002763535
1.5056498552392008,0.03146961942071043,0.018468435745316487,0.013496870470295333,0.01722473796069947,0.005244903841287242
1.5057213723941274,0.03149161794629547,0.019586892845396275,0.013134126432083434,0.019286686790737632,0.004068166096747297
1.505792889549054,0.030427310908792447,0.01919705275878841,0.011855838401314541,0.02213046594965767,0.0017352397257516686
1.5058644067039806,0.02809465201809536,0.01725778969767199,0.009674998552531539,0.023269450892455974,-0.0007218557111374988
1.5059359238589072,0.024683284499830333,0.013639922038782934,0.006168765257997816,0.022824126474851537,-0.00373787458780202
1.5060074410138338,0.020766913938386953,0.01134212650807973,0.003987129865862614,0.020951063369761706,-0.004959292314467817
1.5060789581687604,0.017165658691511196,0.012377454872308829,0.004506773893992003,0.01873404156723104,-0.0035754851762382868
1.506150475323687,0.014695536880755058,0.014738006203511393,0.005603202541494299,0.018245167816445782,-0.002374756631350378
1.5062219924786135,0.013907828977730352,0.01671107121513142,0.006474304461408025,0.017583561340770684,-0.0013086887271638152
1.5062935096335401,0.014929925183180436,0.01706498353583661,0.007024475314287043,0.014761286789393743,0.00035108210479249273
1.5063650267884667,0.01746107614733839,0.016046569398040257,0.006681651925523114,0.01255157774908577,0.0009449079375327508
1.5064365439433933,0.020900617081537138,0.01749631004939802,0.008103902228742074,0.01104686803957511,0.0028594369940560882
1.50650806109832,0.024545654709518663,0.021356985622197282,0.01119024144466396,0.00971046692192361,0.0062227620034175125
1.5065795782532465,0.027795889555703463,0.027953523937467802,0.015188716512202768,0.012533314402219007,0.008712477628355388
1.506651095408173,0.030315638754338018,0.03662443987292352,0.02020329875354711,0.01776039305888091,0.011144346743877855
1.5067226125630997,0.03210575674634778,0.045262642212964735,0.02516307524326057,0.024567895808552676,0.012880300498333783
1.5067941297180263,0.03344435853615213,0.05010452160667645,0.02809340030703321,0.031121650332386317,0.012869448069976166
1.5068656468729529,0.03469846610783441,0.050527846899582105,0.028836225363534616,0.03534659810521051,0.011815959905220408
1.5069371640278795,0.03608805388876267,0.04964015075021122,0.029158238083419115,0.037849492204386555,0.011083972286831955
1.507008681182806,0.03753193323000867,0.04956275830600434,0.029645090979329304,0.04046312109977254,0.010457125371235576
1.5070801983377327,0.038657419159163646,0.04988036182245412,0.03000532215028713,0.04290639833459546,0.009784363702057874
1.5071517154926592,0.038950459296790155,0.04886100121416964,0.029635790998015537,0.04404621234003933,0.008979143684390872
1.5072232326475858,0.03795818995272562,0.04370550884907884,0.026170643808596194,0.04525056665762196,0.005318245770193918
1.5072947498025124,0.035465807062779846,0.03715109474642678,0.02167628316777021,0.04544299062170609,0.0011327747920640602
1.507366266957439,0.03160750390290827,0.031711779396823736,0.01779655130545853,0.044190371601222966,-0.0018967389233964433
1.5074377841123656,0.02689036393457737,0.02707786044151376,0.014369878001425985,0.04186741945763763,-0.004071809463733689
1.5075093012672922,0.022110982309926926,0.023190126043286782,0.012274203971852665,0.03791172781720464,-0.004360408166707139
1.5075808184222188,0.018158898886019043,0.0207792317654858,0.010838451012952628,0.03551383465908277,-0.004686211670356611
1.5076523355771454,0.015750547010193554,0.019338722291368092,0.009985828883372298,0.03322127986583453,-0.004523017005347443
1.507723852732072,0.015198153002695225,0.01642858647518357,0.008495434228764531,0.028847980771664287,-0.0040876228526430525
1.5077953698869986,0.01632710132796861,0.01252900733255901,0.006411917338543193,0.023323004599390594,-0.0037207973800804715
1.5078668870419252,0.01858159605132472,0.009698767232670944,0.00521914285473996,0.017163411446241155,-0.0022812150526458673
1.5079384041968518,0.02125563485920751,0.00811299019029413,0.005152249488431391,0.010888164390792513,0.00023234053475857226
1.5080099213517784,0.023737553869918368,0.008128252053537396,0.0057615299185219465,0.007070035198863009,0.002354325838740233
1.508081438506705,0.025680396681245936,0.010089791583017548,0.007453924502377228,0.004591040017926374,0.004914738966408398
1.5081529556616315,0.027059576075294776,0.011855681870154988,0.008842952470356694,0.003120471612713912,0.006784779751230908
1.5082244728165581,0.028112039179855254,0.011100691969884672,0.008942296206187028,0.0014846809661801714,0.007546338285928487
1.5082959899714847,0.029172386947160022,0.009142952594097444,0.008780907310022895,0.0004489730112078188,0.007823970349481436
1.5083675071264113,0.03045818310099522,0.009335688087902064,0.010026451111954632,0.00046630789448512107,0.008952811325092689
1.508439024281338,0.03190386747651281,0.013406975729997963,0.012747040105629182,0.0020424895356501347,0.010787613557811994
1.5085105414362645,0.03314377564440417,0.019329255997661453,0.01600259242207933,0.005657490585580794,0.012274498780138723
1.508582058591191,0.03366149064758627,0.024184157864192462,0.0186299276568245,0.009430358727940076,0.013124158324066618
1.5086535757461177,0.03301661123576188,0.023842026412985554,0.017302793300784304,0.012017227069788397,0.010852752959325161
1.5087250929010443,0.031031763736761156,0.019777690812410632,0.013978643770450466,0.013483807137749527,0.0072187593008808
1.5087966100559709,0.02787943173947238,0.014451636542080164,0.009773118861112214,0.013185872689216588,0.003504586472002305
1.5088681272108975,0.024071143965329337,0.009487703710980136,0.005405399448016361,0.012600975297888147,-0.00023943908325189137
1.508939644365824,0.020368522042175177,0.005626147290704737,0.002619426200917792,0.010113634113468363,-0.0017599913523478265
1.5090111615207507,0.017622660517009992,0.0038471810668355873,0.001280243020763253,0.008667515279632453,-0.0023880882767890847
1.5090826786756772,0.016549556574789192,0.003354511662940817,0.001094148915450876,0.008822004160227865,-0.0026211883645034842
1.5091541958306038,0.01749078347259404,0.0034945347132507125,0.001728275756159572,0.008060924159011667,-0.0017306227192972895
1.5092257129855304,0.02026609634215111,0.004037609462551047,0.002622344403247119,0.005540159207297128,0.0001188814635600089
1.509297230140457,0.024225306810832306,0.0073236887392524545,0.005090188490138515,0.003274046025680322,0.003299174798911976
1.5093687472953836,0.028505184243561566,0.01500196919322236,0.010396256019729185,0.0029491797213665083,0.008271713308870133
1.5094402644503102,0.032363241212534366,0.025619647430397224,0.017181792517199104,0.005334787347032642,0.013482432232549336
1.5095117816052368,0.035420479974014,0.037095836296629686,0.023785576506019895,0.009831500449106047,0.01766332383568383
1.5095832987601634,0.03772295943106026,0.04558455888441018,0.028541189697550762,0.014049825886642484,0.020274154880211028
1.50965481591509,0.039632532833370364,0.04793453617239123,0.030196375009199177,0.01700132787928579,0.020575643264523515
1.5097263330700166,0.041605230836871475,0.043274361978399345,0.028415936049993602,0.017385548068574157,0.018793100143526746
1.5097978502249432,0.04392716574129624,0.036367169881548325,0.026087173799228647,0.014747766709583209,0.017748607479754767
1.5098693673798698,0.04649881119729661,0.03254423858793633,0.025125670272120693,0.012080307290156524,0.017964382582208508
1.5099408845347964,0.048782229516577,0.032991005335034455,0.025898717163670308,0.012520798432652342,0.018489259941484554
1.510012401689723,0.04998265464348263,0.03604037148165459,0.027970420605425636,0.014771119753853252,0.01945771408860542
1.5100839188446495,0.04939582665258717,0.03649490063670684,0.02744804663090382,0.017258948902704754,0.017961552647365108
1.5101554359995761,0.046726633743720845,0.033981578131992624,0.024915387052692306,0.018917725471011428,0.014970183744516457
1.5102269531545027,0.04221494386441091,0.03113076502586376,0.022036546886626967,0.019741687182091933,0.012005012027851928
1.5102984703094293,0.0365554045951188,0.029334362456032353,0.019143160662124768,0.020906095104394905,0.008887054061990004
1.510369987464356,0.030705701566729478,0.02911050583103214,0.01712115674686206,0.022126692312508037,0.006541260180347632
1.5104415046192825,0.025671938650474672,0.03013902132236833,0.016152578444133103,0.023266707580452704,0.005189780519044748
1.510513021774209,0.02230380117340663,0.031787714838955615,0.01595046449902194,0.02515122846166216,0.004232285173436696
1.5105845389291357,0.02110478427342222,0.030418964689737968,0.014310671393420193,0.0249946995380415,0.0028000741231971322
1.5106560560840623,0.022087028251984653,0.025617304337529036,0.011927341615445858,0.020614486845622965,0.0024224310027451392
1.5107275732389889,0.02474352062355467,0.017958139266473386,0.008315005741078718,0.01366442866604599,0.0019782274242095012
1.5107990903939155,0.028206425428266402,0.01220970627889556,0.006455089330600415,0.006188641606282695,0.0033484354133862626
1.510870607548842,0.03156791810921427,0.00970327074110983,0.006924877381908108,0.00011648811979578267,0.006267644007113247
1.5109421247037687,0.034217944840168574,0.010153630751952537,0.0085255112555674,-0.003265723550456406,0.009114770712167862
1.5110136418586952,0.036025983655989566,0.013478201960502915,0.01161661354179527,-0.0043924367578538435,0.012395944806256942
1.5110851590136218,0.03729532439305516,0.01511631901780315,0.013294021431409462,-0.004158397485975902,0.013829698922589471
1.5111566761685484,0.03854470610167679,0.013778358120751594,0.013163190298163863,-0.0033734772107651503,0.013388441948871819
1.511228193323475,0.04022460916569971,0.01248176799099621,0.013651672900344249,-0.004187038444103113,0.014167615702805893
1.5112997104784016,0.04246467581659284,0.013334094185987716,0.01442102957265151,-0.004414595207646593,0.014962583208823219
1.5113712276333282,0.04493429586497486,0.018136459797676755,0.016921655013448497,-0.002909365497327499,0.016625793287014426
1.5114427447882548,0.04689231770787431,0.023818122463744745,0.019784155718843215,-0.0003376487868212592,0.01818193826713703
1.5115142619431814,0.047454803887083834,0.026117028657456347,0.02007376929597759,0.002960005996640092,0.01709404375468415
