freq,gls,usurper,pdc_unbiased,shape_periodogram,shift_periodogram
1.5,0.031605246424144244,0.03409691440709655,0.022003088454338578,0.05813656752550624,-0.027371997124923695
1.5000715171549266,0.028595336453250155,0.027241887447834682,0.01679692217781675,0.048701429237258044,-0.02404145797337951
1.5001430343098532,0.024797888546036324,0.021395041101008143,0.011419584810450916,0.04110088012258396,-0.02217115592161981
1.5002145514647798,0.020789812632417533,0.019578274725859903,0.008796510756732951,0.03497550086450754,-0.019494371100870267
1.5002860686197064,0.017345459787468324,0.022256360262264085,0.009479677332466734,0.032199784050037566,-0.0170008252824428
1.500357585774633,0.015271945925960987,0.026960667046636654,0.011714688134418397,0.03151288965697742,-0.014969727442199633
1.5004291029295596,0.015165201318802408,0.03245519740622052,0.01415548030345099,0.035248671163080295,-0.016025590193606606
1.5005006200844861,0.01716595655706576,0.03738068600577092,0.016954003693511403,0.037423726920602696,-0.015697271852200614
1.5005721372394127,0.02086274426290797,0.04074807669483982,0.019187221778694714,0.038202852073043025,-0.014736684100212883
1.5006436543943393,0.02544081002802935,0.04360783775765351,0.02137618975240262,0.039584917606940946,-0.01424635406187371
1.500715171549266,0.03000884122307953,0.04681863576982396,0.02421994995090846,0.04143513550528615,-0.013648943353427447
1.5007866887041925,0.03391266896856934,0.05092794310245372,0.02666061786266369,0.04871499341221659,-0.017293518024822273
1.500858205859119,0.0368882624749449,0.055865384425171305,0.029368029530911475,0.0598116089281129,-0.02354852884007267
1.5009297230140457,0.0390355018056212,0.06139668953125775,0.03287087235373193,0.07495448906007338,-0.032229273040897455
1.5010012401689723,0.04067274274449097,0.06353516629346753,0.0349635290275476,0.08878237127696062,-0.04093218376899453
1.5010727573238989,0.04213722341942038,0.06386776773157739,0.036798409825528795,0.0990408397011173,-0.047207317172780164
1.5011442744788255,0.043587855733941964,0.06384927471041112,0.03793328428010061,0.1072133195525356,-0.0524395795444386
1.501215791633752,0.044880915226329254,0.06331660579417805,0.03824814004694497,0.11158285886248244,-0.05544103097194534
1.5012873087886787,0.045592465454410994,0.06408343257086815,0.03896037083855539,0.11417810428941577,-0.05686410548398469
1.5013588259436053,0.04519857422015515,0.06324190402422082,0.038338310339186395,0.11361149560081452,-0.05687383540402266
1.5014303430985318,0.04331902735671992,0.05950699344259735,0.03525172960142179,0.11073628509074392,-0.05687495521539672
1.5015018602534584,0.03989064242203222,0.051603003424025004,0.029380562295107576,0.10401430490210466,-0.055954790098866204
1.501573377408385,0.035207008956161204,0.04225304986238033,0.02275340008029923,0.09552888368118893,-0.05425852571472275
1.5016448945633116,0.029854908046904056,0.0336544587848651,0.01716592382272006,0.08529450293211896,-0.05057208184662738
1.5017164117182382,0.02460404968418353,0.02649360047332178,0.01272729457488559,0.07458471353166082,-0.04576015981703459
1.5017879288731648,0.020274028275387688,0.02218352334084896,0.010756457121333964,0.0648283193509488,-0.039966844176436256
1.5018594460280914,0.01756978332877583,0.020160451688391933,0.009814843547662735,0.058194847154284135,-0.03575944767219598
1.501930963183018,0.016887968997375314,0.019652459358012166,0.009773529530205848,0.050185859090324726,-0.029933819595809017
1.5020024803379446,0.018154766828972088,0.01847256146754657,0.009545857603491862,0.04166562964088569,-0.02386596410008755
1.5020739974928712,0.020807783027131654,0.018767199154007153,0.00997328939183271,0.03480719502745172,-0.01856613448785281
1.5021455146477978,0.023992628107040868,0.021317587278610963,0.01144212206274167,0.03217656616234612,-0.015640677578631065
1.5022170318027244,0.026898257150269028,0.026253192158088995,0.014028974316248104,0.036182540684923374,-0.016793920167425376
1.502288548957651,0.029041972437567,0.031715359671848256,0.016679671046279716,0.044666857126764485,-0.021174361348165655
1.5023600661125776,0.03036170293294545,0.03771543831845724,0.019990738498687276,0.056903872615094366,-0.027849233660406137
1.5024315832675041,0.031115659296329378,0.03919442369331209,0.02077896981185265,0.06893694083101025,-0.03611257742461463
1.5025031004224307,0.031680428730509906,0.03689535653576556,0.019519808615351825,0.07693507287434781,-0.042832566941449574
1.5025746175773573,0.032340192227813126,0.033322204256574034,0.018649627815208736,0.07979349993667822,-0.045523135608245016
1.502646134732284,0.033131945974426154,0.030420157943883665,0.017871043624403338,0.07739684796302278,-0.04429984506345837
1.5027176518872105,0.033797027787609374,0.029571776959110826,0.01799769758677829,0.07388714434161499,-0.04164201812856509
1.502789169042137,0.033871437590867574,0.027864069183226526,0.017486670760106647,0.06901932153866597,-0.038427585304020344
1.5028606861970637,0.03289397904446062,0.02426756386442311,0.015274482970942199,0.06304189515326561,-0.03556791104954209
1.5029322033519903,0.030638444170610023,0.020381293105058266,0.012011118949132128,0.05748199963403252,-0.033735361440905144
1.5030037205069169,0.02725242384486997,0.01834075895200456,0.009441040885373031,0.053460432649550256,-0.03255430206031505
1.5030752376618435,0.023245599290448483,0.019902578711729815,0.008606550278537486,0.05196716222449597,-0.03203397348248507
1.50314675481677,0.019358366958489085,0.023514282843704288,0.008953985446160287,0.051409583091554634,-0.031388797061459174
1.5032182719716967,0.01638051368297583,0.0280879438671061,0.010426555451109277,0.051654786862628435,-0.03056033002860488
1.5032897891266233,0.01497089818834955,0.032452842987971374,0.012350463029946239,0.05147994402550639,-0.029115856330740434
1.5033613062815498,0.015499460648454992,0.03569266297915142,0.013981854206916533,0.049409108827207456,-0.026485929493641952
1.5034328234364764,0.01793079665045714,0.035555358230162634,0.01416864675154985,0.04342448502926203,-0.021986222162841476
1.503504340591403,0.021792554285279486,0.0341621693950405,0.013806564009865633,0.03558861507750882,-0.016512618037765506
1.5035758577463296,0.026283745634476982,0.036212233055407994,0.015751292513310384,0.031124336208177165,-0.01192267752442832
1.5036473749012562,0.03053094650102892,0.04136555166675565,0.019003856556851165,0.03416867650708534,-0.01191730096801078
1.5037188920561828,0.03389868374654469,0.04871734684879878,0.02304438568669538,0.04477409765744037,-0.016892989998670914
1.5037904092111094,0.03619247413189749,0.058145885247991295,0.02836367437687625,0.06179490741863154,-0.025687916528375796
1.503861926366036,0.03764566473947448,0.06548789389397003,0.03246316988130233,0.08062145863246933,-0.03666206777674527
1.5039334435209626,0.038716510453014726,0.06936395749945673,0.03408384953452373,0.09763963069412865,-0.04804108180939445
1.5040049606758892,0.0398171228344044,0.07133512822655615,0.03557140334761458,0.11052501166108439,-0.05649990100449986
1.5040764778308158,0.041095739566223526,0.07495049113585167,0.037525773851031737,0.11884785525427145,-0.061292718340526
1.5041479949857424,0.04234364882306056,0.07830127409882205,0.038887791087543686,0.12276421970545,-0.06324737778791355
1.504219512140669,0.043051695709888996,0.07950368194328761,0.03921573232033744,0.12283373266110845,-0.06307342401714014
1.5042910292955955,0.04260283060723393,0.07450128540834558,0.036347749549566495,0.11834742226739511,-0.06173244035735441
1.5043625464505221,0.04053910287302065,0.06316167849929509,0.030363706364527798,0.10862640405184076,-0.05867483450766787
1.5044340636054487,0.03679439695722014,0.0489289172818646,0.02344001313236871,0.09507211891670006,-0.05345271392808749
1.5045055807603753,0.03178229372791513,0.03655819897440475,0.01698689592080203,0.08317051452602296,-0.049137028105696014
1.504577097915302,0.026296542555493532,0.02820946105381893,0.012446934359831944,0.07288540919498715,-0.044707522160071345
1.5046486150702285,0.021278189004975218,0.02529553773121337,0.011187449324425095,0.0657512607544171,-0.04034724318418632
1.504720132225155,0.017555651134353225,0.02465262044157798,0.011283372248322305,0.060610523461147744,-0.036521080599259806
1.5047916493800817,0.01564621916050789,0.02387621943064111,0.010644076718018416,0.05633571921391357,-0.03383282443414414
1.5048631665350083,0.015656872938766518,0.021685532815444483,0.009217644422453899,0.04924767016823236,-0.02962871455058978
1.5049346836899349,0.017286051262519187,0.019773261402865613,0.008230188330603324,0.04086626029902486,-0.0241826019254497
1.5050062008448615,0.019918755698584013,0.019406752331592374,0.007905738300784866,0.033439446787292486,-0.018982777840650875
1.505077717999788,0.022804926807040774,0.021463040820859456,0.009361654152707073,0.028089589904564945,-0.014082084300686897
1.5051492351547147,0.025289013466251117,0.02662649181724369,0.011726326065843064,0.03135463905304749,-0.014846265954229554
1.5052207523096413,0.027015644551186973,0.03222483859310524,0.014241445734319206,0.040015299108334464,-0.019446756305821048
1.5052922694645678,0.028012475009877,0.035400922286413825,0.015961322224474977,0.049216946788878384,-0.024990293220668616
1.5053637866194944,0.028596359216805502,0.032675961133498556,0.014919408532213189,0.05628240548337698,-0.030867639705808237
1.505435303774421,0.02915112616185344,0.026245139543707125,0.013309044659559194,0.05969626608126604,-0.03446617303608749
1.5055068209293476,0.029900153036102176,0.021642023094599023,0.012321918805932341,0.06026554566618455,-0.03555808756143168
1.5055783380842742,0.030782681811496897,0.020799724678832326,0.01250866989698158,0.05916731219317803,-0.03462714858427907
1.5056498552392008,0.03146961942071043,0.022919619556600466,0.013496870470295333,0.058828866501146736,-0.03370330767684233
1.5057213723941274,0.03149161794629547,0.023933804058532047,0.013134126432083434,0.05856030791631513,-0.03375520965904183
1.505792889549054,0.030427310908792447,0.02332470087486782,0.011855838401314541,0.05647554421447389,-0.03310580137925492
1.5058644067039806,0.02809465201809536,0.020904367856325122,0.009674998552531539,0.05187933841136629,-0.031238717701682732
1.5059359238589072,0.024683284499830333,0.016912800484677658,0.006168765257997816,0.0473124048043858,-0.030300932218072486
1.5060074410138338,0.020766913938386953,0.01436558315416642,0.003987129865862614,0.043052142965793905,-0.028681820371148633
1.5060789581687604,0.017165658691511196,0.015407033332745354,0.004506773893992003,0.03974973019099247,-0.025914975802293988
1.506150475323687,0.014695536880755058,0.018101686425860634,0.005603202541494299,0.03805210176222786,-0.023925429348713962
1.5062219924786135,0.013907828977730352,0.020512116827703018,0.006474304461408025,0.035960945731085124,-0.02180282491608707
1.5062935096335401,0.014929925183180436,0.02082337970565724,0.007024475314287043,0.030687182687990738,-0.01757715097961795
1.5063650267884667,0.01746107614733839,0.019253978680340404,0.006681651925523114,0.023566325852503157,-0.01261588197708065
1.5064365439433933,0.020900617081537138,0.02032275894701588,0.008103902228742074,0.01770988247897219,-0.0073703258419336405
1.50650806109832,0.024545654709518663,0.024169899264094883,0.01119024144466396,0.014695823351113678,-0.0030595635678910284
1.5065795782532465,0.027795889555703463,0.031464275017542315,0.015188716512202768,0.02036573753997212,-0.0044581318653102425
1.506651095408173,0.030315638754338018,0.041393915552220446,0.02020329875354711,0.03155309439778061,-0.009186788533812324
1.5067226125630997,0.03210575674634778,0.05161393153479647,0.02516307524326057,0.04669308688618559,-0.016842842534470496
1.5067941297180263,0.03344435853615213,0.05789501285113003,0.02809340030703321,0.060931684015821476,-0.02524182070320296
1.5068656468729529,0.03469846610783441,0.05884276198520483,0.028836225363534616,0.07038995723473919,-0.031654067752073814
1.5069371640278795,0.03608805388876267,0.05799020587065803,0.029158238083419115,0.07493201746756374,-0.03475977152460731
1.507008681182806,0.03753193323000867,0.05772688622314362,0.029645090979329304,0.07664879744207512,-0.035683686720320164
1.5070801983377327,0.038657419159163646,0.057699432770918824,0.03000532215028713,0.07431776899305283,-0.033728812220962585
1.5071517154926592,0.038950459296790155,0.056153634531691476,0.029635790998015537,0.06985481794804722,-0.030713892596375237
1.5072232326475858,0.03795818995272562,0.05025467450781317,0.026170643808596194,0.0635210034946983,-0.028454261567765
1.5072947498025124,0.035465807062779846,0.042856182672866096,0.02167628316777021,0.05523727646904177,-0.02547608565676924
1.507366266957439,0.03160750390290827,0.036744008553680436,0.01779655130545853,0.04814267014340942,-0.022948662327714663
1.5074377841123656,0.02689036393457737,0.03158405039790056,0.014369878001425985,0.04313268228957964,-0.021635337660794667
1.5075093012672922,0.022110982309926926,0.02716952961580433,0.012274203971852665,0.03908870153230119,-0.02011691121319315
1.5075808184222188,0.018158898886019043,0.024607391491421157,0.010838451012952628,0.03797823428942919,-0.020288898073093413
1.5076523355771454,0.015750547010193554,0.023225226555800935,0.009985828883372298,0.03704482890669212,-0.020191014883770342
1.507723852732072,0.015198153002695225,0.020173667696246345,0.008495434228764531,0.032808152474115226,-0.018118451551325594
1.5077953698869986,0.01632710132796861,0.015620745593767806,0.006411917338543193,0.024954079502099605,-0.01381294952717871
1.5078668870419252,0.01858159605132472,0.012052968944963945,0.00521914285473996,0.01664557091791866,-0.00856816398189757
1.5079384041968518,0.02125563485920751,0.00987696240390568,0.005152249488431391,0.009072189552517044,-0.0030903776670795145
1.5080099213517784,0.023737553869918368,0.009699576689525877,0.0057615299185219465,0.00637971924488434,-0.0007099021066359569
1.508081438506705,0.025680396681245936,0.011861060995466532,0.007453924502377228,0.008850627874036624,-0.0013537073219899566
1.5081529556616315,0.027059576075294776,0.014106619089243922,0.008842952470356694,0.014962796824155434,-0.004860819711248519
1.5082244728165581,0.028112039179855254,0.01367764832757784,0.008942296206187028,0.020662711759678064,-0.008950497194354378
1.5082959899714847,0.029172386947160022,0.011561559250281421,0.008780907310022895,0.025295393167061666,-0.012440737044690614
1.5083675071264113,0.03045818310099522,0.01152816137916508,0.010026451111954632,0.029264718826809654,-0.01448459951155301
1.508439024281338,0.03190386747651281,0.015743303974594936,0.012747040105629182,0.03364299915822471,-0.015817747661042034
1.5085105414362645,0.03314377564440417,0.021977222311242085,0.01600259242207933,0.03778098976090741,-0.01660958473671779
1.508582058591191,0.03366149064758627,0.0269346870294128,0.0186299276568245,0.04064408288010822,-0.01690085650746986
1.5086535757461177,0.03301661123576188,0.026575464858012356,0.017302793300784304,0.04059213813582395,-0.017771810662949698
1.5087250929010443,0.031031763736761156,0.022129975578661035,0.013978643770450466,0.036728517531867254,-0.01722695554949554
1.5087966100559709,0.02787943173947238,0.01633989967021045,0.009773118861112214,0.030228346698149892,-0.015361207652477999
1.5088681272108975,0.024071143965329337,0.011039896450326497,0.005405399448016361,0.024860724925742175,-0.014433601579576679
1.508939644365824,0.020368522042175177,0.006886127288221038,0.002619426200917792,0.020381104218778538,-0.01307190805715997
1.5090111615207507,0.017622660517009992,0.004976316819299344,0.001280243020763253,0.018609495030542607,-0.012695914096098106
1.5090826786756772,0.016549556574789192,0.004443314639344326,0.001094148915450876,0.018180982353706944,-0.012510676593215295
1.5091541958306038,0.01749078347259404,0.004481107831156448,0.001728275756159572,0.016065021499892963,-0.010533414111397443
1.5092257129855304,0.02026609634215111,0.004817419027368496,0.002622344403247119,0.012002369509706895,-0.006958550505622861
1.509297230140457,0.024225306810832306,0.008006243898427823,0.005090188490138515,0.00863505045150802,-0.0028140479184841573
1.5093687472953836,0.028505184243561566,0.016139379139635972,0.010396256019729185,0.008624076380206461,0.0008251466406917372
1.5094402644503102,0.032363241212534366,0.027788628348622425,0.017181792517199104,0.014045750564029938,0.0015159917711431495
1.5095117816052368,0.035420479974014,0.04095238968945975,0.023785576506019895,0.024333780786990583,-0.0014654413707238085
1.5095832987601634,0.03772295943106026,0.05102034021668688,0.028541189697550762,0.0348067163747001,-0.0058482914777945
1.50965481591509,0.039632532833370364,0.05429273045375709,0.030196375009199177,0.04259362208156254,-0.01039818924460423
1.5097263330700166,0.041605230836871475,0.04953420760229022,0.028415936049993602,0.04570556210070876,-0.013891693057817615
1.5097978502249432,0.04392716574129624,0.041711443207507956,0.026087173799228647,0.04210220161162621,-0.01285640002897032
1.5098693673798698,0.04649881119729661,0.03705017167270829,0.025125670272120693,0.03565345288245473,-0.00880721090763109
1.5099408845347964,0.048782229516577,0.03702372229579267,0.025898717163670308,0.031051092727379364,-0.004918565607566565
1.510012401689723,0.04998265464348263,0.03988557016675876,0.027970420605425636,0.028061061800146735,-0.0013171975409261394
1.5100839188446495,0.04939582665258717,0.040415938265668416,0.02744804663090382,0.025351924869394582,0.000301171900697366
1.5101554359995761,0.046726633743720845,0.037928802255960646,0.024915387052692306,0.02214100166310172,0.000908044011278307
1.5102269531545027,0.04221494386441091,0.03507114163590149,0.022036546886626967,0.018510330828789875,0.0015842097442550604
1.5102984703094293,0.0365554045951188,0.03364923220607558,0.019143160662124768,0.018605027707441674,-0.00046628636466361257
1.510369987464356,0.030705701566729478,0.03411250403492748,0.01712115674686206,0.021358259949991857,-0.0038590790910199434
1.5104415046192825,0.025671938650474672,0.03590153844960072,0.016152578444133103,0.02611028333551916,-0.007989088694307313
1.510513021774209,0.02230380117340663,0.03819491876442646,0.01595046449902194,0.031308678701578385,-0.011920838536821294
1.5105845389291357,0.02110478427342222,0.0369522989461136,0.014310671393420193,0.03239760572002995,-0.013838298535092058
1.5106560560840623,0.022087028251984653,0.031295552778042406,0.011927341615445858,0.027080568358912496,-0.011589682169091215
1.5107275732389889,0.02474352062355467,0.02196518367334531,0.008315005741078718,0.017621963087094312,-0.007161720087783444
1.5107990903939155,0.028206425428266402,0.014630810247940046,0.006455089330600415,0.008867800980192641,-0.002049767474371505
1.510870607548842,0.03156791810921427,0.01097523474353504,0.006924877381908108,0.004201725539115278,0.001674481211220335
1.5109421247037687,0.034217944840168574,0.011117199831321879,0.0085255112555674,0.00663312802579511,0.0009967658858014803
1.5110136418586952,0.036025983655989566,0.01487105171174764,0.01161661354179527,0.01454808939642374,-0.002659980130152063
1.5110851590136218,0.03729532439305516,0.017066029596676087,0.013294021431409462,0.024151793087624412,-0.008517222797689952
1.5111566761685484,0.03854470610167679,0.015943085141652043,0.013163190298163863,0.03347000879768785,-0.015406597971255685
1.511228193323475,0.04022460916569971,0.014491349095025014,0.013651672900344249,0.038512365119388145,-0.018753150974178293
1.5112997104784016,0.04246467581659284,0.015311020138007125,0.01442102957265151,0.04039676755217122,-0.019602354510814206
1.5113712276333282,0.04493429586497486,0.0203266303897867,0.016921655013448497,0.04175504797358445,-0.018882022111894683
1.5114427447882548,0.04689231770787431,0.02616880433136965,0.019784155718843215,0.04165084331445349,-0.01684547210681942
1.5115142619431814,0.047454803887083834,0.028659799372795676,0.02007376929597759,0.03963346573820106,-0.015173981005030382
1.511585779098108,0.04599085839647899,0.0254030146398766,0.017243949592298295,0.0349350647320055,-0.01368196698694546
