freq,gls,usurper,pdc_unbiased,shape_periodogram,shift_periodogram
1.5,0.031605246424144244,0.02939567145973063,0.022003088454338578,0.033961179471641595,0.003493572153594689
1.5000715171549266,0.028595336453250155,0.023056355160662102,0.01679692217781675,0.027591552102574503,0.0018826446610492678
1.5001430343098532,0.024797888546036324,0.01744912128488282,0.011419584810450916,0.022860564651908038,-0.0006470324476263463
1.5002145514647798,0.020789812632417533,0.015394471749189847,0.008796510756732951,0.019036760443290862,-0.0011686562188614785
1.5002860686197064,0.017345459787468324,0.017569508957839687,0.009479677332466734,0.01823121128192862,-0.00018704811901766838
1.500357585774633,0.015271945925960987,0.021580123320286956,0.011714688134418397,0.01977528305619569,0.0010622093732523478
1.5004291029295596,0.015165201318802408,0.02629108664439775,0.01415548030345099,0.02403886170181679,0.0012167367121318229
1.5005006200844861,0.01716595655706576,0.03080059397769941,0.016954003693511403,0.026983163798118166,0.0023071044454804064
1.5005721372394127,0.02086274426290797,0.03434424715873486,0.019187221778694714,0.02935758618164161,0.0031659199311635097
1.5006436543943393,0.02544081002802935,0.03749433415180363,0.02137618975240262,0.031999844004302024,0.0038602518796669754
1.500715171549266,0.03000884122307953,0.040869006949842836,0.02421994995090846,0.03374174946190537,0.005556681067262718
1.5007866887041925,0.03391266896856934,0.04462771996483065,0.02666061786266369,0.039008112071902454,0.005242637541817057
1.500858205859119,0.0368882624749449,0.048976922265188676,0.029368029530911475,0.04583761966815765,0.004430958218766664
1.5009297230140457,0.0390355018056212,0.05388941809944072,0.03287087235373193,0.054153271410313446,0.003625701201041581
1.5010012401689723,0.04067274274449097,0.05578215731337437,0.0349635290275476,0.06052344151711567,0.0024857498447632626
1.5010727573238989,0.04213722341942038,0.05648092754755149,0.036798409825528795,0.06447562818816897,0.0022540190929504628
1.5011442744788255,0.043587855733941964,0.05683492280428539,0.03793328428010061,0.06779582531277326,0.0016989072580979204
1.501215791633752,0.044880915226329254,0.056569492600769704,0.03824814004694497,0.0700132539094267,0.0009350449588680778
1.5012873087886787,0.045592465454410994,0.057516323391719845,0.03896037083855539,0.07271358377690768,0.0002962875583119778
1.5013588259436053,0.04519857422015515,0.05685887368272917,0.038338310339186395,0.07268089249970372,-0.0002402892235473599
1.5014303430985318,0.04331902735671992,0.05346543289377023,0.03525172960142179,0.07165558419575792,-0.0024957262388416433
1.5015018602534584,0.03989064242203222,0.0461952652401353,0.029380562295107576,0.06753423201086858,-0.005760096185814423
1.501573377408385,0.035207008956161204,0.03772732916552545,0.02275340008029923,0.06280419034409246,-0.00940256821429226
1.5016448945633116,0.029854908046904056,0.029967262391718555,0.01716592382272006,0.05532052940527031,-0.010824126798299577
1.5017164117182382,0.02460404968418353,0.023493473706086756,0.01272729457488559,0.04693707102417772,-0.010804799139310836
1.5017879288731648,0.020274028275387688,0.019699362504786676,0.010756457121333964,0.04002748029702835,-0.009297762693911475
1.5018594460280914,0.01756978332877583,0.01783819540614901,0.009814843547662735,0.03606440968588617,-0.00826709086960434
1.501930963183018,0.016887968997375314,0.01731172545775308,0.009773529530205848,0.032332819366989285,-0.006550142727677321
1.5020024803379446,0.018154766828972088,0.016313098330862565,0.009545857603491862,0.029127989757981594,-0.005245712656217777
1.5020739974928712,0.020807783027131654,0.01640898545081464,0.00997328939183271,0.027036728458139824,-0.0038858355148370847
1.5021455146477978,0.023992628107040868,0.018356407099110843,0.01144212206274167,0.026677454363632853,-0.0024194749931809364
1.5022170318027244,0.026898257150269028,0.022204750964800627,0.014028974316248104,0.029237189183519505,-0.0013360331056971573
1.502288548957651,0.029041972437567,0.02639852728635002,0.016679671046279716,0.033222049503543225,-0.0008650955568707978
1.5023600661125776,0.03036170293294545,0.031166094677367896,0.019990738498687276,0.03811069507307276,-0.00023443823701211372
1.5024315832675041,0.031115659296329378,0.031978647729725695,0.02077896981185265,0.04145058170338024,-0.0011065431872177307
1.5025031004224307,0.031680428730509906,0.029697720618951283,0.019519808615351825,0.04275792316244718,-0.0028343408197281333
1.5025746175773573,0.032340192227813126,0.026610226615765183,0.018649627815208736,0.04102252018370174,-0.0027882676917862738
1.502646134732284,0.033131945974426154,0.02412437594056662,0.017871043624403338,0.03765735980042082,-0.0018954756368891692
1.5027176518872105,0.033797027787609374,0.023687666004125352,0.01799769758677829,0.035952408209165995,-0.0009825717309319968
1.502789169042137,0.033871437590867574,0.02259121302293707,0.017486670760106647,0.03381559926079109,-0.0004305991485572462
1.5028606861970637,0.03289397904446062,0.019781123145963586,0.015274482970942199,0.03161395867929111,-0.0013516830951515822
1.5029322033519903,0.030638444170610023,0.01617926666367373,0.012011118949132128,0.029313594096805017,-0.0031548555617515422
1.5030037205069169,0.02725242384486997,0.013937527999231706,0.009441040885373031,0.02795677319188225,-0.0047881664773847255
1.5030752376618435,0.023245599290448483,0.01467633803363055,0.008606550278537486,0.02755231501731068,-0.005335377061191562
1.50314675481677,0.019358366958489085,0.017232832126130096,0.008953985446160287,0.02756729631985515,-0.005035494564314401
1.5032182719716967,0.01638051368297583,0.02075307499770296,0.010426555451109277,0.027839238327823097,-0.003862324418322964
1.5032897891266233,0.01497089818834955,0.024305623986957223,0.012350463029946239,0.02823956073790566,-0.0023505894195489877
1.5033613062815498,0.015499460648454992,0.027263096130963994,0.013981854206916533,0.028344033527025584,-0.0009582158336273287
1.5034328234364764,0.01793079665045714,0.027575831393916606,0.01416864675154985,0.026675849694120346,-9.799626335898597e-06
1.503504340591403,0.021792554285279486,0.02674819340969741,0.013806564009865633,0.02460521726519305,0.000642553337156746
1.5035758577463296,0.026283745634476982,0.028893951463451754,0.015751292513310384,0.025500528708023974,0.0019404512435687862
1.5036473749012562,0.03053094650102892,0.03330722757036053,0.019003856556851165,0.030610288686659447,0.002415676086366974
1.5037188920561828,0.03389868374654469,0.03942233881052011,0.02304438568669538,0.038897384349072285,0.0020962369589621836
1.5037904092111094,0.03619247413189749,0.04725337592094078,0.02836367437687625,0.04778266828636185,0.0026283858764919988
1.503861926366036,0.03764566473947448,0.05315751844504305,0.03246316988130233,0.055762694320571626,0.00250825917378804
1.5039334435209626,0.038716510453014726,0.056022406629463964,0.03408384953452373,0.06339534870163552,0.00035569919751023214
1.5040049606758892,0.0398171228344044,0.05768598403482031,0.03557140334761458,0.0688893807125475,-0.0009102164737929388
1.5040764778308158,0.041095739566223526,0.06071705543521878,0.037525773851031737,0.07319393359822099,-0.0012027099876632836
1.5041479949857424,0.04234364882306056,0.06364789224393112,0.038887791087543686,0.07709986585697463,-0.001833119020763
1.504219512140669,0.043051695709888996,0.06501796584690467,0.03921573232033744,0.08014830388874954,-0.0029779496696934935
1.5042910292955955,0.04260283060723393,0.061292479983834136,0.036347749549566495,0.08031708776649332,-0.005603442249446057
1.5043625464505221,0.04053910287302065,0.05220683618143108,0.030363706364527798,0.07586369282930157,-0.008812710684817385
1.5044340636054487,0.03679439695722014,0.040679579481036544,0.02344001313236871,0.06715409157284777,-0.010843367903060846
1.5045055807603753,0.03178229372791513,0.030312769866623276,0.01698689592080203,0.058725543950233126,-0.012585383245248266
1.504577097915302,0.026296542555493532,0.023057486306927527,0.012446934359831944,0.05100460655621414,-0.012966236404554979
1.5046486150702285,0.021278189004975218,0.02033589210314584,0.011187449324425095,0.044771942690008414,-0.011147638723230824
1.504720132225155,0.017555651134353225,0.01945617589117102,0.011283372248322305,0.04006470386760496,-0.008849602637404435
1.5047916493800817,0.01564621916050789,0.01831810964796928,0.010644076718018416,0.036839342799360984,-0.00789855237279178
1.5048631665350083,0.015656872938766518,0.016229061909180827,0.009217644422453899,0.033119958850885554,-0.0074111108914110485
1.5049346836899349,0.017286051262519187,0.014676783123256194,0.008230188330603324,0.029123936707650802,-0.006406095042480603
1.5050062008448615,0.019918755698584013,0.014230982064907605,0.007905738300784866,0.026113906168109883,-0.00527882892549524
1.505077717999788,0.022804926807040774,0.015950577989937396,0.009361654152707073,0.02430889609583778,-0.0031450438355743295
1.5051492351547147,0.025289013466251117,0.02009885372030537,0.011726326065843064,0.028367318726528774,-0.0029620302005699093
1.5052207523096413,0.027015644551186973,0.02433028765557507,0.014241445734319206,0.0330000831138287,-0.0029156893303986606
1.5052922694645678,0.028012475009877,0.026438089377729988,0.015961322224474977,0.03471241507809743,-0.0022000656355109145
1.5053637866194944,0.028596359216805502,0.023695766875112628,0.014919408532213189,0.03300869685291514,-0.0023205942020975063
1.505435303774421,0.02915112616185344,0.018535531017388543,0.013309044659559194,0.028720131223179436,-0.0017293295548724337
1.5055068209293476,0.029900153036102176,0.01477019505229918,0.012321918805932341,0.025001125908067464,-0.0008550025849973325
1.5055783380842742,0.030782681811496897,0.014194535314436759,0.01250866989698158,0.023585794426950153,-2.5444847383997612e-05
1.5056498552392008,0.03146961942071043,0.016175691805736622,0.013496870470295333,0.0254472938200278,-2.645415578485906e-05
1.5057213723941274,0.03149161794629547,0.0170784930913274,0.013134126432083434,0.028301770554142392,-0.001687402809757522
1.505792889549054,0.030427310908792447,0.016647724965803124,0.011855838401314541,0.03097846432169142,-0.0040740724640349005
1.5058644067039806,0.02809465201809536,0.014731539304817938,0.009674998552531539,0.03161034926013443,-0.006297764441589911
1.5059359238589072,0.024683284499830333,0.011363120592822008,0.006168765257997816,0.03119472167214068,-0.009199976579156884
1.5060074410138338,0.020766913938386953,0.00925920928391324,0.003987129865862614,0.02959888262948255,-0.010377208402895258
1.5060789581687604,0.017165658691511196,0.010222285837714597,0.004506773893992003,0.02751213490834298,-0.00893787024334931
1.506150475323687,0.014695536880755058,0.012322182379642131,0.005603202541494299,0.026723938479862087,-0.007599190437165627
1.5062219924786135,0.013907828977730352,0.014005131623115659,0.006474304461408025,0.025744462330471996,-0.0063696972158433125
1.5062935096335401,0.014929925183180436,0.014299883343579818,0.007024475314287043,0.022516676967824372,-0.004367822019186368
1.5063650267884667,0.01746107614733839,0.013136618517142038,0.006681651925523114,0.01994142800786487,-0.0034613217779307986
1.5064365439433933,0.020900617081537138,0.014188406564204177,0.008103902228742074,0.018552454822167958,-0.0015530035404384564
1.50650806109832,0.024545654709518663,0.017487156046301175,0.01119024144466396,0.01779331517876216,0.0015294162073799585
1.5065795782532465,0.027795889555703463,0.02348455393066725,0.015188716512202768,0.02259394861221086,0.0028079646195032955
1.506651095408173,0.030315638754338018,0.03158597655911493,0.02020329875354711,0.030168142959867385,0.00368344647290936
1.5067226125630997,0.03210575674634778,0.03978991585966886,0.02516307524326057,0.039198837109870474,0.003828467669448233
1.5067941297180263,0.03344435853615213,0.04450133622407094,0.02809340030703321,0.046672463454927565,0.002910753255063713
1.5068656468729529,0.03469846610783441,0.045146649546430974,0.028836225363534616,0.05015713760918326,0.0019310026853754964
1.5069371640278795,0.03608805388876267,0.04456493492223536,0.029158238083419115,0.05092366535515849,0.0018558606952321917
1.507008681182806,0.03753193323000867,0.04467613613124235,0.029645090979329304,0.05165818550686107,0.0019416997678021071
1.5070801983377327,0.038657419159163646,0.04497094876868342,0.03000532215028713,0.05219098710926607,0.0020102508192600854
1.5071517154926592,0.038950459296790155,0.04412217637661277,0.029635790998015537,0.05114688426683654,0.0021737349232513656
1.5072232326475858,0.03795818995272562,0.0394815740396976,0.026170643808596194,0.04939135291571093,-6.838614922672382e-05
1.5072947498025124,0.035465807062779846,0.033401999365077366,0.02167628316777021,0.04652680352147221,-0.002698452599675507
1.507366266957439,0.03160750390290827,0.028301342279629455,0.01779655130545853,0.043464486735285725,-0.004690208064594128
1.5074377841123656,0.02689036393457737,0.023863802372798528,0.014369878001425985,0.04044258957821662,-0.006299242624781043
1.5075093012672922,0.022110982309926926,0.020309832073161952,0.012274203971852665,0.03661865089334401,-0.006354317121622664
1.5075808184222188,0.018158898886019043,0.01820983498542079,0.010838451012952628,0.0350963805269961,-0.006907716327881388
1.5076523355771454,0.015750547010193554,0.016963796144406275,0.009985828883372298,0.033354896857271416,-0.006842788311572931
1.507723852732072,0.015198153002695225,0.01438368419490595,0.008495434228764531,0.02927538657045009,-0.006242921930694204
1.5077953698869986,0.01632710132796861,0.01072069077645274,0.006411917338543193,0.023923610416476854,-0.005569598894809775
1.5078668870419252,0.01858159605132472,0.008007234367819298,0.00521914285473996,0.018215335615913143,-0.003942484600051208
1.5079384041968518,0.02125563485920751,0.006347559027129251,0.005152249488431391,0.012496430974901034,-0.0013165570486329365
1.5080099213517784,0.023737553869918368,0.0060855066463124385,0.0057615299185219465,0.009361634010061437,0.0006930682867788832
1.508081438506705,0.025680396681245936,0.007765614831364487,0.007453924502377228,0.00803383820528336,0.002810845065247283
1.5081529556616315,0.027059576075294776,0.009304541601763503,0.008842952470356694,0.008298733696218839,0.003913138996593927
1.5082244728165581,0.028112039179855254,0.00862193001592055,0.008942296206187028,0.007803203267573871,0.004233458193518433
1.5082959899714847,0.029172386947160022,0.006936754925153737,0.008780907310022895,0.007706934416477835,0.004136123070035236
1.5083675071264113,0.03045818310099522,0.007069575287388972,0.010026451111954632,0.008438915621225547,0.004892497809353966
1.508439024281338,0.03190386747651281,0.010569792619064374,0.012747040105629182,0.010459766486737632,0.006346712495827962
1.5085105414362645,0.03314377564440417,0.015863659703984297,0.01600259242207933,0.01493303416953635,0.007122834063739235
1.508582058591191,0.03366149064758627,0.020376746319181755,0.0186299276568245,0.01901146145542252,0.007529880149952993
1.5086535757461177,0.03301661123576188,0.020101066549454018,0.017302793300784304,0.021056083932329685,0.005397691821140286
1.5087250929010443,0.031031763736761156,0.016351075164462034,0.013978643770450466,0.020808442052913215,0.0025771155975343523
1.5087966100559709,0.02787943173947238,0.011388137225857941,0.009773118861112214,0.01872820141404061,-0.00016119408122741087
1.5088681272108975,0.024071143965329337,0.006690509552822197,0.005405399448016361,0.01713878048352974,-0.003272517006525324
1.508939644365824,0.020368522042175177,0.0030968628768163744,0.002619426200917792,0.014316437842691942,-0.004407676222323498
1.5090111615207507,0.017622660517009992,0.0014217685198175654,0.001280243020763253,0.012809006001392762,-0.004882499915213741
1.5090826786756772,0.016549556574789192,0.0009896391250353968,0.001094148915450876,0.01282335230032938,-0.005053561171872572
1.5091541958306038,0.01749078347259404,0.0011471444346998463,0.001728275756159572,0.01211188353711107,-0.004159587966538602
1.5092257129855304,0.02026609634215111,0.0015583355545383583,0.002622344403247119,0.009722866683598551,-0.0022485527627681065
1.509297230140457,0.024225306810832306,0.00444747642242642,0.005090188490138515,0.00832023479064975,0.0005890850112608246
1.5093687472953836,0.028505184243561566,0.011386346815548572,0.010396256019729185,0.00931689224765212,0.004806992765552534
1.5094402644503102,0.032363241212534366,0.020995414159000535,0.017181792517199104,0.013251903674583789,0.008953421255703123
1.5095117816052368,0.035420479974014,0.03150713833231939,0.023785576506019895,0.019468418638883978,0.01187109135396371
1.5095832987601634,0.03772295943106026,0.039211661242381464,0.028541189697550762,0.02475132393830539,0.013596228982538826
1.50965481591509,0.039632532833370364,0.04149509854892722,0.030196375009199177,0.02735929069248273,0.013836381861684609
1.5097263330700166,0.041605230836871475,0.03758730640486769,0.028415936049993602,0.026595232745136026,0.012620510452557493
1.5097978502249432,0.04392716574129624,0.03157645880304156,0.026087173799228647,0.02229323830940642,0.012580000197429391
1.5098693673798698,0.04649881119729661,0.02809394679502843,0.025125670272120693,0.017622918255824623,0.013921118804707729
1.5099408845347964,0.048782229516577,0.028429454670575862,0.025898717163670308,0.016990205234597728,0.014901054938765645
1.510012401689723,0.04998265464348263,0.031170180351979385,0.027970420605425636,0.01828040253516086,0.016126806907246577
1.5100839188446495,0.04939582665258717,0.031522004315587125,0.02744804663090382,0.019333216625421833,0.015171324757284057
1.5101554359995761,0.046726633743720845,0.02924823296299056,0.024915387052692306,0.019124929448824546,0.013030682410634006
1.5102269531545027,0.04221494386441091,0.026589818021507238,0.022036546886626967,0.01831996842416829,0.010864364402737728
1.5102984703094293,0.0365554045951188,0.02493175849676778,0.019143160662124768,0.019332582544391526,0.007832639955063541
1.510369987464356,0.030705701566729478,0.024871780452782145,0.01712115674686206,0.021300057655746725,0.005122693193249314
1.5104415046192825,0.025671938650474672,0.02610938745963046,0.016152578444133103,0.02355624392904804,0.0032078158553255276
1.510513021774209,0.02230380117340663,0.027944827084249044,0.01595046449902194,0.026314063774437384,0.0017344775983059375
1.5105845389291357,0.02110478427342222,0.026945201056744514,0.014310671393420193,0.026577425257242368,0.00016190543323706352
1.5106560560840623,0.022087028251984653,0.02275453555062275,0.011927341615445858,0.021853646814680806,0.00027428546026262487
1.5107275732389889,0.02474352062355467,0.01579766464188823,0.008315005741078718,0.01479203418635635,0.00039887993165987396
1.5107990903939155,0.028206425428266402,0.01056031694204708,0.006455089330600415,0.007555782961448649,0.0021532033866927965
1.510870607548842,0.03156791810921427,0.008308376899596025,0.006924877381908108,0.0020566119258560007,0.0051492627783059075
1.5109421247037687,0.034217944840168574,0.008801996623617556,0.0085255112555674,0.0002876882416520367,0.007392918122555588
1.5110136418586952,0.036025983655989566,0.011968539233659958,0.01161661354179527,0.001470775467262876,0.009567158776573392
1.5110851590136218,0.03729532439305516,0.013549675396352396,0.013294021431409462,0.003859447720717715,0.009927389096416953
1.5111566761685484,0.03854470610167679,0.012533923369461734,0.013163190298163863,0.005984855740803775,0.00881439374538087
1.511228193323475,0.04022460916569971,0.0116333752099492,0.013651672900344249,0.0063138465079763595,0.009091392925054618
1.5112997104784016,0.04246467581659284,0.012384579058368914,0.01442102957265151,0.006948346523666022,0.00947308484301756
1.5113712276333282,0.04493429586497486,0.016750794046984624,0.016921655013448497,0.00962363594798402,0.010426234183981385
1.5114427447882548,0.04689231770787431,0.02191163158036517,0.019784155718843215,0.013204617045607282,0.011274481235247266
1.5115142619431814,0.047454803887083834,0.0239372643111261,0.02007376929597759,0.01614732140284684,0.010149576148990824
