freq,gls,usurper,pdc_unbiased,shape_periodogram,shift_periodogram
1.5,0.031605246424144244,0.03307388070202032,0.022003088454338578,0.052835914747642716,-0.017037213261486165
1.5000715171549266,0.028595336453250155,0.026238728857880575,0.01679692217781675,0.04356965980279914,-0.015079309046608928
1.5001430343098532,0.024797888546036324,0.020462401255695973,0.011419584810450916,0.03631088992863265,-0.014543787880407916
1.5002145514647798,0.020789812632417533,0.018790359083002053,0.008796510756732951,0.030846467033701905,-0.01304741927026438
1.5002860686197064,0.017345459787468324,0.02165484685995563,0.009479677332466734,0.029038041930583867,-0.011362052053884257
1.500357585774633,0.015271945925960987,0.026537876079411195,0.011714688134418397,0.029429454578892067,-0.00989822217865392
1.5004291029295596,0.015165201318802408,0.03215600520443586,0.01415548030345099,0.033711998405597264,-0.010774738422802091
1.5005006200844861,0.01716595655706576,0.03730838839924181,0.016954003693511403,0.03714105080412654,-0.010828609425210578
1.5005721372394127,0.02086274426290797,0.04106537200628686,0.019187221778694714,0.040432337254787405,-0.011227961673728129
1.5006436543943393,0.02544081002802935,0.04424295246924841,0.02137618975240262,0.0442513785571502,-0.012000430588689338
1.500715171549266,0.03000884122307953,0.047643952238342654,0.02421994995090846,0.04764451448382107,-0.01199616815613471
1.5007866887041925,0.03391266896856934,0.05177203972495076,0.02666061786266369,0.05538132819912411,-0.015094568933240743
1.500858205859119,0.0368882624749449,0.056512313966580935,0.029368029530911475,0.06554200676359145,-0.019550976059295757
1.5009297230140457,0.0390355018056212,0.06159540239306997,0.03287087235373193,0.07809707725978667,-0.02494521463573638
1.5010012401689723,0.04067274274449097,0.06313511316590183,0.0349635290275476,0.08804319871659974,-0.029752306190054038
1.5010727573238989,0.04213722341942038,0.06291062561518648,0.036798409825528795,0.09466453464720828,-0.032616918217886176
1.5011442744788255,0.043587855733941964,0.06250145061793484,0.03793328428010061,0.10005973903113366,-0.03523180250240403
1.501215791633752,0.044880915226329254,0.06180693118544013,0.03824814004694497,0.10332014849967468,-0.037099627269908446
1.5012873087886787,0.045592465454410994,0.0626328404415828,0.03896037083855539,0.10672137535169646,-0.03875341674321765
1.5013588259436053,0.04519857422015515,0.06184054768170934,0.038338310339186395,0.1066010374622474,-0.03915532299695419
1.5014303430985318,0.04331902735671992,0.05811308962050304,0.03525172960142179,0.10421022675448928,-0.039986538500273776
1.5015018602534584,0.03989064242203222,0.05016674188866595,0.029380562295107576,0.09782253091322847,-0.04037402753207224
1.501573377408385,0.035207008956161204,0.04077806170570274,0.02275340008029923,0.0896903861725533,-0.040214195785191774
1.5016448945633116,0.029854908046904056,0.032180833454180616,0.01716592382272006,0.07962648966621678,-0.03800971197838322
1.5017164117182382,0.02460404968418353,0.025054574812337166,0.01272729457488559,0.0689753686472652,-0.034550577891144435
1.5017879288731648,0.020274028275387688,0.020793839625986976,0.010756457121333964,0.05957569056599483,-0.030010236937719544
1.5018594460280914,0.01756978332877583,0.018849446153900384,0.009814843547662735,0.05342103952103418,-0.026772845213895047
1.501930963183018,0.016887968997375314,0.01861239316793624,0.009773529530205848,0.0471778831264976,-0.022789953612892225
1.5020024803379446,0.018154766828972088,0.017897631939917533,0.009545857603491862,0.041702273297209234,-0.019445423435797877
1.5020739974928712,0.020807783027131654,0.018700738944135657,0.00997328939183271,0.03823347371056131,-0.01688873828058344
1.5021455146477978,0.023992628107040868,0.021619072610449666,0.01144212206274167,0.037834445093598755,-0.015505145355978881
1.5022170318027244,0.026898257150269028,0.026607823036653985,0.014028974316248104,0.042001756599507,-0.016196916135280345
1.502288548957651,0.029041972437567,0.031836574014998224,0.016679671046279716,0.04877797740343327,-0.018517037498535734
1.5023600661125776,0.03036170293294545,0.037299158527118695,0.019990738498687276,0.057147313018285566,-0.021356604903372885
1.5024315832675041,0.031115659296329378,0.0380545964088099,0.02077896981185265,0.06370453458026483,-0.024971412755976526
1.5025031004224307,0.031680428730509906,0.035097833598514566,0.019519808615351825,0.06680074640367258,-0.027932855904086555
1.5025746175773573,0.032340192227813126,0.031059631876449438,0.018649627815208736,0.066054510967788,-0.02812074797987657
1.502646134732284,0.033131945974426154,0.02808416945966897,0.017871043624403338,0.06259470511680318,-0.02649092541450113
1.5027176518872105,0.033797027787609374,0.027467574339388134,0.01799769758677829,0.06046841082751967,-0.025024866684826005
1.502789169042137,0.033871437590867574,0.02602150881326984,0.017486670760106647,0.05734685724864898,-0.023408506064099104
1.5028606861970637,0.03289397904446062,0.022611747450932976,0.015274482970942199,0.053082035258053696,-0.022363739607727546
1.5029322033519903,0.030638444170610023,0.01882684453380833,0.012011118949132128,0.048707559212780166,-0.022056013310699618
1.5030037205069169,0.02725242384486997,0.016855183869864274,0.009441040885373031,0.045522543128964574,-0.02198103584740773
1.5030752376618435,0.023245599290448483,0.018470275896505867,0.008606550278537486,0.044233970421427904,-0.021793195901265928
1.50314675481677,0.019358366958489085,0.0221357789105386,0.008953985446160287,0.04360232419524681,-0.021120634893282798
1.5032182719716967,0.01638051368297583,0.02672052037208715,0.010426555451109277,0.04356670269601244,-0.019967664912757213
1.5032897891266233,0.01497089818834955,0.0310970996317436,0.012350463029946239,0.0433548856223581,-0.018354904775630194
1.5033613062815498,0.015499460648454992,0.034516307678594454,0.013981854206916533,0.04256039187328227,-0.016592055046812288
1.5034328234364764,0.01793079665045714,0.03477322386769399,0.01416864675154985,0.039296439886702283,-0.014351540850296853
1.503504340591403,0.021792554285279486,0.03397031453629354,0.013806564009865633,0.03575448952731234,-0.01235431253820634
1.5035758577463296,0.026283745634476982,0.03658362577238902,0.015751292513310384,0.03546737130542899,-0.010677033395211354
1.5036473749012562,0.03053094650102892,0.042075234056734086,0.019003856556851165,0.0410196289115825,-0.01174608159286591
1.5037188920561828,0.03389868374654469,0.049455204274355846,0.02304438568669538,0.05191823823440902,-0.015646970791466736
1.5037904092111094,0.03619247413189749,0.05840685576764617,0.02836367437687625,0.06542208165260784,-0.020246330694050466
1.503861926366036,0.03764566473947448,0.06499368280924661,0.03246316988130233,0.07855086597379088,-0.025551772058173293
1.5039334435209626,0.038716510453014726,0.06807142966234676,0.03408384953452373,0.0897658805487353,-0.03154279296218072
1.5040049606758892,0.0398171228344044,0.06940605801707021,0.03557140334761458,0.09804492669171265,-0.03574900995534709
1.5040764778308158,0.041095739566223526,0.07273950775561706,0.037525773851031737,0.10414230902719893,-0.038189197237134646
1.5041479949857424,0.04234364882306056,0.07619599977502364,0.038887791087543686,0.10893153820134356,-0.0402418701532688
1.504219512140669,0.043051695709888996,0.07773507082326722,0.03921573232033744,0.11186872634359125,-0.041893491122204654
1.5042910292955955,0.04260283060723393,0.07302487726178995,0.036347749549566495,0.11047122780292022,-0.04319946219347372
1.5043625464505221,0.04053910287302065,0.061831627765242675,0.030363706364527798,0.10331077058737763,-0.043170035344555914
1.5044340636054487,0.03679439695722014,0.047616687828661935,0.02344001313236871,0.09129222501199184,-0.04072151669104449
1.5045055807603753,0.03178229372791513,0.03520132403395987,0.01698689592080203,0.07986663971757181,-0.03830219811237391
1.504577097915302,0.026296542555493532,0.026808166074412613,0.012446934359831944,0.0694543035467476,-0.03507441537497057
1.5046486150702285,0.021278189004975218,0.02377635196612271,0.011187449324425095,0.061218509699646866,-0.03073689938294544
1.504720132225155,0.017555651134353225,0.022970902780099636,0.011283372248322305,0.054626316820712326,-0.026421058570335755
1.5047916493800817,0.01564621916050789,0.022107638948852464,0.010644076718018416,0.04944958299749681,-0.023582365910790753
1.5048631665350083,0.015656872938766518,0.02008138113295934,0.009217644422453899,0.04311089258114507,-0.020602485174397087
1.5049346836899349,0.017286051262519187,0.01862968305554044,0.008230188330603324,0.037617954394929126,-0.01783092873818481
1.5050062008448615,0.019918755698584013,0.01876759900217425,0.007905738300784866,0.03346978557998471,-0.015415515808299552
1.505077717999788,0.022804926807040774,0.021303502591608327,0.009361654152707073,0.03117935523988797,-0.01282751635294421
1.5051492351547147,0.025289013466251117,0.026734393959898524,0.011726326065843064,0.03605492219260882,-0.014143957639993276
1.5052207523096413,0.027015644551186973,0.03220901801308165,0.014241445734319206,0.0431469069173096,-0.01676966935031391
1.5052922694645678,0.028012475009877,0.03492228948719681,0.015961322224474977,0.048248188426347746,-0.018728043229945587
1.5053637866194944,0.028596359216805502,0.03144492295848877,0.014919408532213189,0.049408567556232436,-0.02027407704778693
1.505435303774421,0.02915112616185344,0.024273215631471143,0.013309044659559194,0.04700482966802168,-0.019965036262082885
1.5055068209293476,0.029900153036102176,0.019213149245717095,0.012321918805932341,0.04368508118983887,-0.018589015632417712
1.5055783380842742,0.030782681811496897,0.018312184915942397,0.01250866989698158,0.04175979667422414,-0.017208460479850092
1.5056498552392008,0.03146961942071043,0.020686448649293733,0.013496870470295333,0.043091014664909784,-0.017305338335917037
1.5057213723941274,0.03149161794629547,0.022017130487553806,0.013134126432083434,0.045276971673075685,-0.018988668190957212
1.505792889549054,0.030427310908792447,0.021693413124827338,0.011855838401314541,0.046230598105759226,-0.020582843768078285
1.5058644067039806,0.02809465201809536,0.019555500248621297,0.009674998552531539,0.044804996524020445,-0.021340289632250712
1.5059359238589072,0.024683284499830333,0.015758277356697215,0.006168765257997816,0.042563659472180194,-0.02259022854698648
1.5060074410138338,0.020766913938386953,0.013351185433073951,0.003987129865862614,0.03996552277709765,-0.022594449298944774
1.5060789581687604,0.017165658691511196,0.014451019879335591,0.004506773893992003,0.03727347613378789,-0.020466357846875935
1.506150475323687,0.014695536880755058,0.017125706121566307,0.005603202541494299,0.03558967331950869,-0.018543641841923062
1.5062219924786135,0.013907828977730352,0.0194991877882047,0.006474304461408025,0.03331963606853118,-0.016417373437517393
1.5062935096335401,0.014929925183180436,0.01991300360261777,0.007024475314287043,0.028621067317017867,-0.012978197823031832
1.5063650267884667,0.01746107614733839,0.018698828065204006,0.006681651925523114,0.0241540529789571,-0.010373537848913532
1.5064365439433933,0.020900617081537138,0.020179685536850678,0.008103902228742074,0.02140258836261912,-0.00751627810878579
1.50650806109832,0.024545654709518663,0.0243857161313732,0.01119024144466396,0.02065925112574789,-0.00467105264459319
1.5065795782532465,0.027795889555703463,0.031869055829079854,0.015188716512202768,0.02725075344504957,-0.005833164248240286
1.506651095408173,0.030315638754338018,0.04179025951295518,0.02020329875354711,0.037743703539407314,-0.008720577464060096
1.5067226125630997,0.03210575674634778,0.051723864140444206,0.02516307524326057,0.050190904913017455,-0.012908181122142837
1.5067941297180263,0.03344435853615213,0.05748011576526699,0.02809340030703321,0.06027837077655135,-0.0171432852137359
1.5068656468729529,0.03469846610783441,0.05790297233360159,0.028836225363534616,0.06545665881204299,-0.019905111102746557
1.5069371640278795,0.03608805388876267,0.05665728841313734,0.029158238083419115,0.06693921869936588,-0.020612065672439638
1.507008681182806,0.03753193323000867,0.056254240193112384,0.029645090979329304,0.06792562703802782,-0.020872788502862685
1.5070801983377327,0.038657419159163646,0.056426041727700674,0.03000532215028713,0.06755310995612149,-0.02035572309284448
1.5071517154926592,0.038950459296790155,0.05511129159786359,0.029635790998015537,0.06526804734570825,-0.019168601455539565
1.5072232326475858,0.03795818995272562,0.04937499167030541,0.026170643808596194,0.06116672124813908,-0.019193485787723216
1.5072947498025124,0.035465807062779846,0.0421213685101034,0.02167628316777021,0.055212338392810555,-0.018816758022863433
1.507366266957439,0.03160750390290827,0.03612364622486582,0.01779655130545853,0.04982252550923609,-0.018330900390116422
1.5074377841123656,0.02689036393457737,0.031032759623775805,0.014369878001425985,0.045816475411413884,-0.018386773635434363
1.5075093012672922,0.022110982309926926,0.026521422444715607,0.012274203971852665,0.04138929343480838,-0.017150360628369086
1.5075808184222188,0.018158898886019043,0.02377689706656377,0.010838451012952628,0.039228159788601,-0.016863794796792196
1.5076523355771454,0.015750547010193554,0.022179127957236054,0.009985828883372298,0.03682325337974497,-0.015973221920010015
1.507723852732072,0.015198153002695225,0.019018080264368315,0.008495434228764531,0.03162339918432066,-0.013777330255928144
1.5077953698869986,0.01632710132796861,0.014619143804199168,0.006411917338543193,0.024582519917185876,-0.010855518550088542
1.5078668870419252,0.01858159605132472,0.011332618809955926,0.00521914285473996,0.01781166314012255,-0.007424873074740479
1.5079384041968518,0.02125563485920751,0.00941661585455952,0.005152249488431391,0.011494563210225123,-0.003422573552675445
1.5080099213517784,0.023737553869918368,0.009364873425658534,0.0057615299185219465,0.00902807885821269,-0.0013726263571151415
1.508081438506705,0.025680396681245936,0.011496085111026493,0.007453924502377228,0.010297774199714596,-0.0008889489672157742
1.5081529556616315,0.027059576075294776,0.01348469250880128,0.008842952470356694,0.013511148784170628,-0.0018850843303942675
1.5082244728165581,0.028112039179855254,0.012648767492989129,0.008942296206187028,0.015365444411785003,-0.0029986996722230993
1.5082959899714847,0.029172386947160022,0.01015043049208935,0.008780907310022895,0.016435455464947894,-0.003809140954371982
1.5083675071264113,0.03045818310099522,0.009874708026655542,0.010026451111954632,0.01772526458584051,-0.003681165151844963
1.508439024281338,0.03190386747651281,0.014052516020093376,0.012747040105629182,0.020920945540482083,-0.003644349521539376
1.5085105414362645,0.03314377564440417,0.0204553076501578,0.01600259242207933,0.026013823444438963,-0.004414449116041465
1.508582058591191,0.03366149064758627,0.025621714212534303,0.0186299276568245,0.030525739343431186,-0.005293840148783387
1.5086535757461177,0.03301661123576188,0.025398822266592555,0.017302793300784304,0.03195855337978747,-0.00723269333556177
1.5087250929010443,0.031031763736761156,0.021051005120115,0.013978643770450466,0.029927528475149484,-0.008480425603469647
1.5087966100559709,0.02787943173947238,0.01538363607896066,0.009773118861112214,0.0255102483322172,-0.008872093921218235
1.5088681272108975,0.024071143965329337,0.010189474692206319,0.005405399448016361,0.021885043729155444,-0.00989625691506946
1.508939644365824,0.020368522042175177,0.006042412048283868,0.002619426200917792,0.018122406841096967,-0.009618600978141354
1.5090111615207507,0.017622660517009992,0.00410229160170747,0.001280243020763253,0.01672439657224982,-0.009748697311500767
1.5090826786756772,0.016549556574789192,0.0034497398401076886,0.001094148915450876,0.016321561048482876,-0.009632933984719044
1.5091541958306038,0.01749078347259404,0.0034583659169030124,0.001728275756159572,0.014565804438424156,-0.008019835259684638
1.5092257129855304,0.02026609634215111,0.0039632294856748115,0.002622344403247119,0.011664949634745507,-0.005472623445297158
1.509297230140457,0.024225306810832306,0.007505181080211492,0.005090188490138515,0.010411472991922167,-0.0027752385146405803
1.5093687472953836,0.028505184243561566,0.01597881751410766,0.010396256019729185,0.012182528635310256,0.00015914871608050345
1.5094402644503102,0.032363241212534366,0.027856440008797004,0.017181792517199104,0.018355944339377647,0.0014051823966705036
1.5095117816052368,0.035420479974014,0.041054601970215585,0.023785576506019895,0.027858391840631127,0.0003773913323385624
1.5095832987601634,0.03772295943106026,0.05089172988245437,0.028541189697550762,0.03575210393454401,-0.0010361351223633574
1.50965481591509,0.039632532833370364,0.053723126612644084,0.030196375009199177,0.04004454356075721,-0.0025200942764781365
1.5097263330700166,0.041605230836871475,0.04850971727598623,0.028415936049993602,0.04000600209098963,-0.0038638954670430566
1.5097978502249432,0.04392716574129624,0.040436060395950914,0.026087173799228647,0.034532739793307905,-0.0021389432346741078
1.5098693673798698,0.04649881119729661,0.0357981742056759,0.025125670272120693,0.02805284351599622,0.0012818586806943072
1.5099408845347964,0.048782229516577,0.036026776103335635,0.025898717163670308,0.025209471337546956,0.003700278992561006
1.510012401689723,0.04998265464348263,0.03922176918691951,0.027970420605425636,0.02452227423585761,0.005732507556894376
1.5100839188446495,0.04939582665258717,0.03995505139759269,0.02744804663090382,0.023485758879254807,0.005996261054167124
1.5101554359995761,0.046726633743720845,0.03748374095302257,0.024915387052692306,0.02127066346739793,0.005472284966267717
1.5102269531545027,0.04221494386441091,0.034603744656225,0.022036546886626967,0.018488094851339686,0.005047041641188007
1.5102984703094293,0.0365554045951188,0.033090426715016504,0.019143160662124768,0.018453757778284473,0.0028479119397533262
1.510369987464356,0.030705701566729478,0.03344128444395403,0.01712115674686206,0.020537237298501935,-4.104052176564207e-05
1.5104415046192825,0.025671938650474672,0.035056330356260386,0.016152578444133103,0.023963214135770145,-0.002983143360989235
1.510513021774209,0.02230380117340663,0.0371457849449253,0.01595046449902194,0.02782268059900761,-0.005615588502867563
1.5105845389291357,0.02110478427342222,0.035807917517607056,0.014310671393420193,0.028467126173196234,-0.007287981512591603
1.5106560560840623,0.022087028251984653,0.030183015008792204,0.011927341615445858,0.023626617195483594,-0.006009923209497166
1.5107275732389889,0.02474352062355467,0.02105744916492179,0.008315005741078718,0.015776055820690922,-0.0037434610404919093
1.5107990903939155,0.028206425428266402,0.01393554349480319,0.006455089330600415,0.008371842531615608,-0.0004195304185593512
1.510870607548842,0.03156791810921427,0.010386791121868773,0.006924877381908108,0.003886492242148998,0.0028185322732437353
1.5109421247037687,0.034217944840168574,0.010457270448828592,0.0085255112555674,0.004684307377351505,0.003534589664401426
1.5110136418586952,0.036025983655989566,0.013898168182437701,0.01161661354179527,0.00908689415196652,0.0030815737785534333
1.5110851590136218,0.03729532439305516,0.015606051100943218,0.013294021431409462,0.014164845389367416,0.0011107068429205458
1.5111566761685484,0.03854470610167679,0.013915004001846486,0.013163190298163863,0.018887139210069702,-0.00201981290604478
1.511228193323475,0.04022460916569971,0.012094173258413917,0.013651672900344249,0.020758751986095007,-0.002846024696977412
1.5112997104784016,0.04246467581659284,0.012885988164511968,0.01442102957265151,0.021907216756511933,-0.0029926231545432847
1.5113712276333282,0.04493429586497486,0.018210997069456548,0.016921655013448497,0.025063922501103827,-0.003099262417149376
1.5114427447882548,0.04689231770787431,0.024577689528556247,0.019784155718843215,0.028553308761134426,-0.003141405161122645
1.5115142619431814,0.047454803887083834,0.027526446220813936,0.02007376929597759,0.02997520137267467,-0.0038317883323468267
