freq,gls,usurper,pdc_unbiased,shape_periodogram,shift_periodogram
1.5,0.031605246424144244,0.032212755231804995,0.022003088454338578,0.02967685557254411,0.0005246430698306344
1.5000715171549266,0.028595336453250155,0.02486386952247015,0.01679692217781675,0.02328494901519304,3.093297415009229e-05
1.5001430343098532,0.024797888546036324,0.0187734024294151,0.011419584810450916,0.01833929027801771,-0.0014455627231510601
1.5002145514647798,0.020789812632417533,0.01690973464496346,0.008796510756732951,0.014076322303837908,-0.0010841596043735546
1.5002860686197064,0.017345459787468324,0.01972375207608808,0.009479677332466734,0.012400093672054656,0.00044978458697279573
1.500357585774633,0.015271945925960987,0.024561202072477493,0.011714688134418397,0.012631285946721622,0.002129090987405714
1.5004291029295596,0.015165201318802408,0.030188064859731738,0.01415548030345099,0.015907411029366488,0.0021966878665589254
1.5005006200844861,0.01716595655706576,0.03529863799969449,0.016954003693511403,0.0184387867054744,0.0029901548144196386
1.5005721372394127,0.02086274426290797,0.03917837903057816,0.019187221778694714,0.0212850648174064,0.0031408909781569195
1.5006436543943393,0.02544081002802935,0.04267449421903015,0.02137618975240262,0.0246386568640626,0.002959530933956951
1.500715171549266,0.03000884122307953,0.0465727859451582,0.02421994995090846,0.027095795420388546,0.003834330313569659
1.5007866887041925,0.03391266896856934,0.0513230058696928,0.02666061786266369,0.032902496008067675,0.002424675743065591
1.500858205859119,0.0368882624749449,0.05661898629924448,0.029368029530911475,0.04019557356086958,0.0003628756601524941
1.5009297230140457,0.0390355018056212,0.062271372461973167,0.03287087235373193,0.04912428279978183,-0.0020090651135980316
1.5010012401689723,0.04067274274449097,0.06429408519528787,0.0349635290275476,0.05599431539121241,-0.00432561933757822
1.5010727573238989,0.04213722341942038,0.06445496998397009,0.036798409825528795,0.060451165644669444,-0.005440424150676408
1.5011442744788255,0.043587855733941964,0.06452208893821475,0.03793328428010061,0.06446402577161496,-0.006866044850438312
1.501215791633752,0.044880915226329254,0.06442939468900599,0.03824814004694497,0.06781547079837333,-0.00857321269985772
1.5012873087886787,0.045592465454410994,0.06569015134859803,0.03896037083855539,0.071042368122847,-0.009884138920901044
1.5013588259436053,0.04519857422015515,0.0650386466807196,0.038338310339186395,0.07124303157292182,-0.010508998900320716
1.5014303430985318,0.04331902735671992,0.06103122947593151,0.03525172960142179,0.07085799503425266,-0.012799224768906837
1.5015018602534584,0.03989064242203222,0.052476999218888716,0.029380562295107576,0.06726924964213554,-0.01547724788873949
1.501573377408385,0.035207008956161204,0.0425004419874463,0.02275340008029923,0.06277782544261686,-0.018237155135835764
1.5016448945633116,0.029854908046904056,0.03342636886519183,0.01716592382272006,0.05552072753900552,-0.01852744287099173
1.5017164117182382,0.02460404968418353,0.02588755893668793,0.01272729457488559,0.04741451797984087,-0.01738682107790867
1.5017879288731648,0.020274028275387688,0.02122631841075908,0.010756457121333964,0.040329988025663795,-0.014841318380227432
1.5018594460280914,0.01756978332877583,0.018832536101899843,0.009814843547662735,0.035967745958302835,-0.013054066396647683
1.501930963183018,0.016887968997375314,0.018078005285951073,0.009773529530205848,0.031774984967954376,-0.010635568399262363
1.5020024803379446,0.018154766828972088,0.017039120482539066,0.009545857603491862,0.02811513268911887,-0.008680573111205344
1.5020739974928712,0.020807783027131654,0.0176505709298342,0.00997328939183271,0.02570027879374756,-0.006921845658297254
1.5021455146477978,0.023992628107040868,0.020511803157790692,0.01144212206274167,0.024986104707295793,-0.005311768387348561
1.5022170318027244,0.026898257150269028,0.025596582336263066,0.014028974316248104,0.027215439273450152,-0.004514216415543157
1.502288548957651,0.029041972437567,0.030853755636883952,0.016679671046279716,0.03058948623575028,-0.004333672970171605
1.5023600661125776,0.03036170293294545,0.036238107670681176,0.019990738498687276,0.03509166193721704,-0.004275890086285654
1.5024315832675041,0.031115659296329378,0.036887224713301206,0.02077896981185265,0.037971026261095026,-0.005319092264419784
1.5025031004224307,0.031680428730509906,0.03373653537701534,0.019519808615351825,0.03906799385397869,-0.006983914582523838
1.5025746175773573,0.032340192227813126,0.029680910318356023,0.018649627815208736,0.03769537395097235,-0.00688820702761195
1.502646134732284,0.033131945974426154,0.026992925693362774,0.017871043624403338,0.035251126451369845,-0.006091400483587087
1.5027176518872105,0.033797027787609374,0.026661449804672152,0.01799769758677829,0.03395852076075427,-0.0052326742646837026
1.502789169042137,0.033871437590867574,0.025504727205010336,0.017486670760106647,0.031669324533084804,-0.004309415475163407
1.5028606861970637,0.03289397904446062,0.02202010333565328,0.015274482970942199,0.02921737549726944,-0.004672911752697235
1.5029322033519903,0.030638444170610023,0.017899963438878532,0.012011118949132128,0.026992316400247695,-0.006022432867074226
1.5030037205069169,0.02725242384486997,0.015602350449170948,0.009441040885373031,0.025528208587501523,-0.007253406456551853
1.5030752376618435,0.023245599290448483,0.017019089849712097,0.008606550278537486,0.024484470182942364,-0.007320821250379824
1.50314675481677,0.019358366958489085,0.020660375421798376,0.008953985446160287,0.02411280513861759,-0.006821504654357968
1.5032182719716967,0.01638051368297583,0.025434430785901803,0.010426555451109277,0.024197196573524028,-0.005675246329342885
1.5032897891266233,0.01497089818834955,0.02996935168601605,0.012350463029946239,0.024860252191427477,-0.00450063948744947
1.5033613062815498,0.015499460648454992,0.033397848584169165,0.013981854206916533,0.02507818857638685,-0.0033032544177806467
1.5034328234364764,0.01793079665045714,0.03367468001465935,0.01416864675154985,0.023202785464913497,-0.0020555008846457473
1.503504340591403,0.021792554285279486,0.03306257099860242,0.013806564009865633,0.02101131475328499,-0.001068853071037803
1.5035758577463296,0.026283745634476982,0.03607702147332856,0.015751292513310384,0.021689282303555504,0.0001141910443333138
1.5036473749012562,0.03053094650102892,0.042179901723463066,0.019003856556851165,0.026699058912443237,-0.00017169535623355093
1.5037188920561828,0.03389868374654469,0.050280097136539685,0.02304438568669538,0.035073576326473184,-0.0017837591652995377
1.5037904092111094,0.03619247413189749,0.059855749169065685,0.02836367437687625,0.04426433163226163,-0.0028333613142978924
1.503861926366036,0.03764566473947448,0.06704946670943998,0.03246316988130233,0.05278186564171134,-0.0044810759107765585
1.5039334435209626,0.038716510453014726,0.07052069686899307,0.03408384953452373,0.060977211539126774,-0.007959734771939236
1.5040049606758892,0.0398171228344044,0.07225627218929405,0.03557140334761458,0.06674381847808893,-0.01012666811261514
1.5040764778308158,0.041095739566223526,0.0760716596075779,0.037525773851031737,0.07177325956245498,-0.011482379428091482
1.5041479949857424,0.04234364882306056,0.07990770101667516,0.038887791087543686,0.0766463972767089,-0.013230400248280734
1.504219512140669,0.043051695709888996,0.0817466271405826,0.03921573232033744,0.08074245484780483,-0.015367205613315517
1.5042910292955955,0.04260283060723393,0.07692230399173086,0.036347749549566495,0.08179889579607953,-0.018327025974477117
1.5043625464505221,0.04053910287302065,0.06515541316594903,0.030363706364527798,0.07835078476843245,-0.021179404305226784
1.5044340636054487,0.03679439695722014,0.05027252496716955,0.02344001313236871,0.07043442087202398,-0.022169218258963282
1.5045055807603753,0.03178229372791513,0.037258579229558456,0.01698689592080203,0.062497014433399084,-0.022761652826908254
1.504577097915302,0.026296542555493532,0.02835659014358802,0.012446934359831944,0.054806966246369854,-0.02194395930553302
1.5046486150702285,0.021278189004975218,0.024985697506131832,0.011187449324425095,0.048190028270798074,-0.019091666927661274
1.504720132225155,0.017555651134353225,0.02385365646113949,0.011283372248322305,0.04306476359906516,-0.016013652090812295
1.5047916493800817,0.01564621916050789,0.022494772811491013,0.010644076718018416,0.03910674840794568,-0.014216907178338609
1.5048631665350083,0.015656872938766518,0.019926327516336443,0.009217644422453899,0.03431528356606398,-0.012572504633376204
1.5049346836899349,0.017286051262519187,0.01808134162908496,0.008230188330603324,0.029659979273403737,-0.01065199503507206
1.5050062008448615,0.019918755698584013,0.017896228802632638,0.007905738300784866,0.025578176294769297,-0.008529098114990096
1.505077717999788,0.022804926807040774,0.02030329083639706,0.009361654152707073,0.022836791100818148,-0.005744713166394178
1.5051492351547147,0.025289013466251117,0.02576065852406693,0.011726326065843064,0.02598714882366081,-0.005666124674916592
1.5052207523096413,0.027015644551186973,0.03126280699313116,0.014241445734319206,0.029748118700289667,-0.005822200385611663
1.5052922694645678,0.028012475009877,0.0339211919569871,0.015961322224474977,0.03143520534745868,-0.005411606369041741
1.5053637866194944,0.028596359216805502,0.030292174337121208,0.014919408532213189,0.030067974535113586,-0.005458562976190551
1.505435303774421,0.02915112616185344,0.023186246781500646,0.013309044659559194,0.025864325618868367,-0.004309111789950361
1.5055068209293476,0.029900153036102176,0.01838007012810611,0.012321918805932341,0.022258961833920957,-0.003003487537736401
1.5055783380842742,0.030782681811496897,0.017818864536113595,0.01250866989698158,0.020779406812984735,-0.001987203833683581
1.5056498552392008,0.03146961942071043,0.02056849592284071,0.013496870470295333,0.022457848311897684,-0.002165660829693642
1.5057213723941274,0.03149161794629547,0.022084104382079632,0.013134126432083434,0.02490465032182355,-0.0038902330407827503
1.505792889549054,0.030427310908792447,0.02141314975523534,0.011855838401314541,0.027270836639187026,-0.00631133726772501
1.5058644067039806,0.02809465201809536,0.01887752587835511,0.009674998552531539,0.02778430145570073,-0.008382308831644657
1.5059359238589072,0.024683284499830333,0.014833467561316108,0.006168765257997816,0.027185231574229276,-0.010878690819912582
1.5060074410138338,0.020766913938386953,0.012363678690706323,0.003987129865862614,0.025764550837876623,-0.01181911592638126
1.5060789581687604,0.017165658691511196,0.013562909550883507,0.004506773893992003,0.024103456032692854,-0.010426291808207934
1.506150475323687,0.014695536880755058,0.01633625424130414,0.005603202541494299,0.02381908686606518,-0.009370048355882996
1.5062219924786135,0.013907828977730352,0.01872338781983857,0.006474304461408025,0.023114007288451022,-0.008250782638345515
1.5062935096335401,0.014929925183180436,0.01912182221472563,0.007024475314287043,0.020150335354215437,-0.006072013705170148
1.5063650267884667,0.01746107614733839,0.018072622047080232,0.006681651925523114,0.018125461126839763,-0.00516696886876093
1.5064365439433933,0.020900617081537138,0.019956226339192275,0.008103902228742074,0.016997626967156468,-0.00335336537520922
1.50650806109832,0.024545654709518663,0.02476805990501278,0.01119024144466396,0.016257203542078193,-0.00041516356159540855
1.5065795782532465,0.027795889555703463,0.03303878466291852,0.015188716512202768,0.020670102137450828,0.0002528863372943127
1.506651095408173,0.030315638754338018,0.04368615845144296,0.02020329875354711,0.027504488466581656,0.0003319775272867578
1.5067226125630997,0.03210575674634778,0.05416816618273157,0.02516307524326057,0.03557536224227877,-0.0003550102208876497
1.5067941297180263,0.03344435853615213,0.060230414892864584,0.02809340030703321,0.04229507808016317,-0.0019014460213022523
1.5068656468729529,0.03469846610783441,0.06090408761250689,0.028836225363534616,0.045698057679158105,-0.0032876210614475273
1.5069371640278795,0.03608805388876267,0.059964040684763464,0.029158238083419115,0.04729565872738552,-0.0039602695862765306
1.507008681182806,0.03753193323000867,0.05988163458266356,0.029645090979329304,0.049544524791073206,-0.004879978939621535
1.5070801983377327,0.038657419159163646,0.06025159409547586,0.03000532215028713,0.05137750674971833,-0.005659526563841881
1.5071517154926592,0.038950459296790155,0.05901493803864883,0.029635790998015537,0.05146861602373017,-0.006013543513261609
1.5072232326475858,0.03795818995272562,0.052815341176099484,0.026170643808596194,0.05050643189599132,-0.008269437909749279
1.5072947498025124,0.035465807062779846,0.0448489032045128,0.02167628316777021,0.04832659839802463,-0.010648282914062866
1.507366266957439,0.03160750390290827,0.03814343526902057,0.01779655130545853,0.0456193754434917,-0.01221729384400149
1.5074377841123656,0.02689036393457737,0.032522899059394136,0.014369878001425985,0.042921158202518954,-0.013422483182439295
1.5075093012672922,0.022110982309926926,0.027658711378510337,0.012274203971852665,0.038999194426497484,-0.012830066063069233
1.5075808184222188,0.018158898886019043,0.024607650016578917,0.010838451012952628,0.0370037795058845,-0.012828834437860186
1.5076523355771454,0.015750547010193554,0.022516816314219278,0.009985828883372298,0.03489201614541444,-0.012286037792143807
1.507723852732072,0.015198153002695225,0.018678148752337528,0.008495434228764531,0.030204608720706225,-0.01075508180281412
1.5077953698869986,0.01632710132796861,0.013648078781183109,0.006411917338543193,0.02409454070977489,-0.008874563530652
1.5078668870419252,0.01858159605132472,0.009905113757195123,0.00521914285473996,0.01791267089451138,-0.006229788499044517
1.5079384041968518,0.02125563485920751,0.007798629816713854,0.005152249488431391,0.011629937807057,-0.0026129130484494893
1.5080099213517784,0.023737553869918368,0.007780190827189498,0.0057615299185219465,0.008135880635915521,-7.695834453464809e-05
1.508081438506705,0.025680396681245936,0.010069036558692866,0.007453924502377228,0.0065968498697740645,0.002195847162920251
1.5081529556616315,0.027059576075294776,0.012199566992283264,0.008842952470356694,0.006120589276406709,0.0036015343323716276
1.5082244728165581,0.028112039179855254,0.011484464838000271,0.008942296206187028,0.0048352751108711785,0.004433033311687695
1.5082959899714847,0.029172386947160022,0.00921050019053258,0.008780907310022895,0.0036222250779317823,0.005010676549036819
1.5083675071264113,0.03045818310099522,0.009288236781518088,0.010026451111954632,0.0033569215605795586,0.006176635127797536
1.508439024281338,0.03190386747651281,0.013894187750430217,0.012747040105629182,0.005275851541913162,0.007264024449538717
1.5085105414362645,0.03314377564440417,0.020661185840932572,0.01600259242207933,0.00956942784673753,0.007398915076830629
1.508582058591191,0.03366149064758627,0.026216786872229992,0.0186299276568245,0.013906580084554825,0.006998767984144207
1.5086535757461177,0.03301661123576188,0.02589072196926176,0.017302793300784304,0.01603434091916032,0.00467812199812479
1.5087250929010443,0.031031763736761156,0.021131678265593017,0.013978643770450466,0.016354121724803286,0.001792114452399092
1.5087966100559709,0.02787943173947238,0.014991740973229634,0.009773118861112214,0.014884953989803338,-0.0007638330068097268
1.5088681272108975,0.024071143965329337,0.009426665117028265,0.005405399448016361,0.013806933385160852,-0.003679436159358847
1.508939644365824,0.020368522042175177,0.005150249424694298,0.002619426200917792,0.011370073910360974,-0.004516862811222856
1.5090111615207507,0.017622660517009992,0.0033315629672290726,0.001280243020763253,0.010586675452108903,-0.0051460527541779865
1.5090826786756772,0.016549556574789192,0.002821057916302241,0.001094148915450876,0.011204793458088778,-0.00565824430846417
1.5091541958306038,0.01749078347259404,0.0028837969194980898,0.001728275756159572,0.010549560532361795,-0.004760735822946309
1.5092257129855304,0.02026609634215111,0.003513877132709851,0.002622344403247119,0.00843499008420867,-0.002799621530283452
1.509297230140457,0.024225306810832306,0.0073717947960934465,0.005090188490138515,0.007220817932613905,-8.725090732337501e-05
1.5093687472953836,0.028505184243561566,0.01648111259149818,0.010396256019729185,0.008214827278552835,0.0036389434132440687
1.5094402644503102,0.032363241212534366,0.029155677742922936,0.017181792517199104,0.012320081987370552,0.006749602419419235
1.5095117816052368,0.035420479974014,0.04315535849694246,0.023785576506019895,0.018647059109050738,0.008417139393571867
1.5095832987601634,0.03772295943106026,0.05359198239964966,0.028541189697550762,0.02372532108019795,0.009315036041794511
1.50965481591509,0.039632532833370364,0.05675982927790563,0.030196375009199177,0.026421219135668916,0.009085723745108609
1.5097263330700166,0.041605230836871475,0.05165376691114299,0.028415936049993602,0.025638787771070152,0.008095561356957973
1.5097978502249432,0.04392716574129624,0.04372149675226434,0.026087173799228647,0.02102445524304733,0.008898403122010541
1.5098693673798698,0.04649881119729661,0.03930300255275,0.025125670272120693,0.016589083322794178,0.01070772772694654
1.5099408845347964,0.048782229516577,0.039701354592557005,0.025898717163670308,0.0158759269429772,0.01175219119310682
1.510012401689723,0.04998265464348263,0.043041406349898156,0.027970420605425636,0.017217190842829404,0.012652026749440127
1.5100839188446495,0.04939582665258717,0.043549218785719,0.02744804663090382,0.018495500372743914,0.011481118095327642
1.5101554359995761,0.046726633743720845,0.040445852747635264,0.024915387052692306,0.018867665718354933,0.009206111949677465
1.5102269531545027,0.04221494386441091,0.03686513045606483,0.022036546886626967,0.01871203117672374,0.006958434901617749
1.5102984703094293,0.0365554045951188,0.03469949591318144,0.019143160662124768,0.01978975241391146,0.00397874455057013
1.510369987464356,0.030705701566729478,0.03446866641377667,0.01712115674686206,0.021574494187044334,0.0012937577749260387
1.5104415046192825,0.025671938650474672,0.03560679094494531,0.016152578444133103,0.023557200611919238,-0.0006514715145007428
1.510513021774209,0.02230380117340663,0.03716641401454064,0.01595046449902194,0.02602107325611589,-0.0022555756153332927
1.5105845389291357,0.02110478427342222,0.03513935494010812,0.014310671393420193,0.02601615517495209,-0.0035844483457956877
1.5106560560840623,0.022087028251984653,0.028840161644184244,0.011927341615445858,0.021245826698195452,-0.0027317856336244685
1.5107275732389889,0.02474352062355467,0.019189264716976913,0.008315005741078718,0.014115736291903696,-0.0014980589905579842
1.5107990903939155,0.028206425428266402,0.011813694663278888,0.006455089330600415,0.0068754586167233305,0.00122235210210575
1.510870607548842,0.03156791810921427,0.00840497839735288,0.006924877381908108,0.0014803139414731159,0.0047554974659460535
1.5109421247037687,0.034217944840168574,0.008905197401992412,0.0085255112555674,-0.0006045607419320073,0.007272558147230211
1.5110136418586952,0.036025983655989566,0.012763982762548242,0.01161661354179527,-0.0003524061266334114,0.009634113899257035
1.5110851590136218,0.03729532439305516,0.014822878199278553,0.013294021431409462,0.0008429174142817837,0.01029739558041918
1.5111566761685484,0.03854470610167679,0.013409408402427755,0.013163190298163863,0.002038136704957239,0.009493056192281392
1.511228193323475,0.04022460916569971,0.011838504942131815,0.013651672900344249,0.0011538882982616763,0.010406056992624167
1.5112997104784016,0.04246467581659284,0.012959470873760216,0.01442102957265151,0.001107295015547432,0.011057759144694304
1.5113712276333282,0.04493429586497486,0.018647364247565874,0.016921655013448497,0.0034653467849927438,0.011710347239787278
1.5114427447882548,0.04689231770787431,0.025447860628885207,0.019784155718843215,0.0068794365708976955,0.012040317035308975
1.5115142619431814,0.047454803887083834,0.028551104337056845,0.02007376929597759,0.010066821334600117,0.010413945217140064
