freq,gls,usurper,pdc_unbiased,shape_periodogram,shift_periodogram
1.5,0.031605246424144244,0.03032428960879745,0.022003088454338578,0.03479712282778105,-0.004575381048283689
1.5000715171549266,0.028595336453250155,0.023885963582271637,0.01679692217781675,0.028099395967429882,-0.0044536754433433835
1.5001430343098532,0.024797888546036324,0.01830502595968549,0.011419584810450916,0.02274766388115194,-0.005306499182587847
1.5002145514647798,0.020789812632417533,0.016413642682599424,0.008796510756732951,0.018168267894579204,-0.004491118428801642
1.5002860686197064,0.017345459787468324,0.018757903771406657,0.009479677332466734,0.016061303536688283,-0.0026403955424205918
1.500357585774633,0.015271945925960987,0.02288613589653734,0.011714688134418397,0.016236861762633597,-0.001005099155391026
1.5004291029295596,0.015165201318802408,0.02781560319259409,0.01415548030345099,0.020190714507864346,-0.0015711587738005237
1.5005006200844861,0.01716595655706576,0.03246803790234234,0.016954003693511403,0.023040174018336336,-0.0011671331757762424
1.5005721372394127,0.02086274426290797,0.036156939959296246,0.019187221778694714,0.025238777644869745,-0.0007974074555210767
1.5006436543943393,0.02544081002802935,0.03944342233955535,0.02137618975240262,0.02749012994341235,-0.0004949819337200093
1.500715171549266,0.03000884122307953,0.04300886700636622,0.02421994995090846,0.028985408233701843,0.0007922889544315642
1.5007866887041925,0.03391266896856934,0.047098117534733176,0.02666061786266369,0.034272238189702854,-0.0006062293289656257
1.500858205859119,0.0368882624749449,0.051779527068100684,0.029368029530911475,0.041792973728980914,-0.0031940244901296835
1.5009297230140457,0.0390355018056212,0.05701804629304845,0.03287087235373193,0.051585489291869714,-0.0065829545589715325
1.5010012401689723,0.04067274274449097,0.05913883359648226,0.0349635290275476,0.059811718039852704,-0.010097787775108438
1.5010727573238989,0.04213722341942038,0.059768470442820326,0.036798409825528795,0.06516314252795057,-0.012015031162747433
1.5011442744788255,0.043587855733941964,0.06006824726528887,0.03793328428010061,0.06974167389173522,-0.01399738640605658
1.501215791633752,0.044880915226329254,0.059804942032659965,0.03824814004694497,0.07310753796902496,-0.015862803401019775
1.5012873087886787,0.045592465454410994,0.06078526839552933,0.03896037083855539,0.07629036245378036,-0.01730256595725479
1.5013588259436053,0.04519857422015515,0.06017514276236817,0.038338310339186395,0.07660808892659987,-0.017989935696800196
1.5014303430985318,0.04331902735671992,0.05669768078288415,0.03525172960142179,0.07616364566805274,-0.020130699087714685
1.5015018602534584,0.03989064242203222,0.04919005715765564,0.029380562295107576,0.07270101202743338,-0.022555754730971708
1.501573377408385,0.035207008956161204,0.04041700483893288,0.02275340008029923,0.06822197295126167,-0.024930484934321283
1.5016448945633116,0.029854908046904056,0.03235760557027121,0.01716592382272006,0.06115183741229058,-0.024863453809330627
1.5017164117182382,0.02460404968418353,0.025539254405056944,0.01272729457488559,0.053214450715592894,-0.02335548539125226
1.5017879288731648,0.020274028275387688,0.021392992640819626,0.010756457121333964,0.046200294629641744,-0.02050051645395215
1.5018594460280914,0.01756978332877583,0.019214840421840094,0.009814843547662735,0.04204815294647409,-0.018635806836725055
1.501930963183018,0.016887968997375314,0.01840737549739486,0.009773529530205848,0.03746737063006727,-0.015800528566978403
1.5020024803379446,0.018154766828972088,0.017267009420078295,0.009545857603491862,0.0327384601095557,-0.013019016666808218
1.5020739974928712,0.020807783027131654,0.01739218152448203,0.00997328939183271,0.029073474983496668,-0.010392343184871367
1.5021455146477978,0.023992628107040868,0.019478775183351827,0.01144212206274167,0.027863675693047037,-0.008488568945063361
1.5022170318027244,0.026898257150269028,0.023595090008884635,0.014028974316248104,0.030121693535848516,-0.00788071143521084
1.502288548957651,0.029041972437567,0.02807012994216271,0.016679671046279716,0.03418591697088698,-0.008352740679579572
1.5023600661125776,0.03036170293294545,0.03308234566435525,0.019990738498687276,0.03984465255873995,-0.009306594913465013
1.5024315832675041,0.031115659296329378,0.03402525586203704,0.02077896981185265,0.04480681035551129,-0.011796796006122491
1.5025031004224307,0.031680428730509906,0.031641028252230745,0.019519808615351825,0.04719773823899298,-0.014278213553958719
1.5025746175773573,0.032340192227813126,0.02836839752385741,0.018649627815208736,0.046243098991105736,-0.01436049485920796
1.502646134732284,0.033131945974426154,0.02587804952582368,0.017871043624403338,0.043218408855209306,-0.013075034416123676
1.5027176518872105,0.033797027787609374,0.025519317750963975,0.01799769758677829,0.041382120059320064,-0.011826483340929995
1.502789169042137,0.033871437590867574,0.024424469324895785,0.017486670760106647,0.03858142178478081,-0.01047278264758161
1.5028606861970637,0.03289397904446062,0.021507064783604958,0.015274482970942199,0.03538826459218986,-0.010202828800780134
1.5029322033519903,0.030638444170610023,0.017918328106382664,0.012011118949132128,0.03258983154416305,-0.011000811323085957
1.5030037205069169,0.02725242384486997,0.01585051414906086,0.009441040885373031,0.030453869396231688,-0.011671508431215269
1.5030752376618435,0.023245599290448483,0.016904023085777292,0.008606550278537486,0.02931133529343359,-0.011608350461015748
1.50314675481677,0.019358366958489085,0.019790786944509805,0.008953985446160287,0.02886570468073089,-0.01105829444345771
1.5032182719716967,0.01638051368297583,0.023570207250800966,0.010426555451109277,0.028745555042406716,-0.009833266639799314
1.5032897891266233,0.01497089818834955,0.0272456836269125,0.012350463029946239,0.029020919784937975,-0.00850307804030243
1.5033613062815498,0.015499460648454992,0.03017215058668566,0.013981854206916533,0.02856658126932333,-0.006944750701741436
1.5034328234364764,0.01793079665045714,0.030383481499321102,0.01416864675154985,0.02534269664797955,-0.004782499338431828
1.503504340591403,0.021792554285279486,0.029494974777398784,0.013806564009865633,0.021013627395801374,-0.0023581771767777924
1.5035758577463296,0.026283745634476982,0.031732273495805326,0.015751292513310384,0.020155992027866193,-0.000303164785333139
1.5036473749012562,0.03053094650102892,0.036531912680342435,0.019003856556851165,0.02453267297390849,-0.0004991285591415596
1.5037188920561828,0.03389868374654469,0.043172807504209716,0.02304438568669538,0.033129666644619325,-0.0027184228556758716
1.5037904092111094,0.03619247413189749,0.05162874861628248,0.02836367437687625,0.043787750726362346,-0.005228042605937502
1.503861926366036,0.03764566473947448,0.05817307269456836,0.03246316988130233,0.05450567506559099,-0.008731104056709096
1.5039334435209626,0.038716510453014726,0.061456463768939776,0.03408384953452373,0.06455979402556619,-0.013763479711588228
1.5040049606758892,0.0398171228344044,0.06324576234432262,0.03557140334761458,0.07190453995640156,-0.017205970146732016
1.5040764778308158,0.041095739566223526,0.06652085025288788,0.037525773851031737,0.07772688478518086,-0.01932979642652303
1.5041479949857424,0.04234364882306056,0.06971278814448442,0.038887791087543686,0.08271856593715794,-0.02139816549366719
1.504219512140669,0.043051695709888996,0.07119891758878096,0.03921573232033744,0.08623588518566164,-0.02335244690043772
1.5042910292955955,0.04260283060723393,0.06727718598095449,0.036347749549566495,0.08662615453409064,-0.025847724956834992
1.5043625464505221,0.04053910287302065,0.057516585875007194,0.030363706364527798,0.08243426973056835,-0.027901673695060403
1.5044340636054487,0.03679439695722014,0.045174937087957605,0.02344001313236871,0.0735446379744889,-0.027735382413572367
1.5045055807603753,0.03178229372791513,0.034228357919681415,0.01698689592080203,0.06507194157237499,-0.027462684223285367
1.504577097915302,0.026296542555493532,0.026541755239305808,0.012446934359831944,0.057244902239256955,-0.026100963968700368
1.5046486150702285,0.021278189004975218,0.023552915694259283,0.011187449324425095,0.05087602482518203,-0.02309296885053777
1.504720132225155,0.017555651134353225,0.022423897035589245,0.011283372248322305,0.04617209960482297,-0.02007131278997802
1.5047916493800817,0.01564621916050789,0.02097243720455962,0.010644076718018416,0.042706494200183964,-0.018400395604560464
1.5048631665350083,0.015656872938766518,0.018484492455951424,0.009217644422453899,0.037780642697196665,-0.01643069885384023
1.5049346836899349,0.017286051262519187,0.01665400011760741,0.008230188330603324,0.031883964555646474,-0.013511710009027176
1.5050062008448615,0.019918755698584013,0.016067785676437595,0.007905738300784866,0.026775427462791587,-0.01056924662679459
1.505077717999788,0.022804926807040774,0.01771828070192747,0.009361654152707073,0.02295102544322374,-0.007040582991112278
1.5051492351547147,0.025289013466251117,0.022086325485230925,0.011726326065843064,0.02580185868480249,-0.006977027965070963
1.5052207523096413,0.027015644551186973,0.02666141009881991,0.014241445734319206,0.030818965531078005,-0.008150945058991317
1.5052922694645678,0.028012475009877,0.029084477174498902,0.015961322224474977,0.034188285497649976,-0.008915420579546786
1.5053637866194944,0.028596359216805502,0.0263529833388278,0.014919408532213189,0.03490999396601342,-0.010180933362141422
1.505435303774421,0.02915112616185344,0.020819839475538456,0.013309044659559194,0.03260779660463183,-0.009998338138229469
1.5055068209293476,0.029900153036102176,0.016844274174043168,0.012321918805932341,0.030142775505257353,-0.009227151268955113
1.5055783380842742,0.030782681811496897,0.016291584837215097,0.01250866989698158,0.028897426722295543,-0.008302273325109532
1.5056498552392008,0.03146961942071043,0.018482796300983654,0.013496870470295333,0.03016415017909611,-0.008322871166810648
1.5057213723941274,0.03149161794629547,0.0196441018254122,0.013134126432083434,0.03200243381786578,-0.00975621561903424
1.505792889549054,0.030427310908792447,0.019335323892613446,0.011855838401314541,0.03327890713210979,-0.011553227130031728
1.5058644067039806,0.02809465201809536,0.01750540661585466,0.009674998552531539,0.03215471047638324,-0.012552931360160934
1.5059359238589072,0.024683284499830333,0.014149592292334753,0.006168765257997816,0.030116996455747978,-0.014015712597250549
1.5060074410138338,0.020766913938386953,0.012024048274582633,0.003987129865862614,0.02737177573091512,-0.014001538573976489
1.5060789581687604,0.017165658691511196,0.013059892275841607,0.004506773893992003,0.02465089178588468,-0.011894017647505929
1.506150475323687,0.014695536880755058,0.015213125273267738,0.005603202541494299,0.02354921246468568,-0.010349058148130827
1.5062219924786135,0.013907828977730352,0.016871644408237265,0.006474304461408025,0.022414490548567614,-0.008959351666655724
1.5062935096335401,0.014929925183180436,0.016927678486434786,0.007024475314287043,0.018765283314550896,-0.006247885584305554
1.5063650267884667,0.01746107614733839,0.015547953879318384,0.006681651925523114,0.014894573409501042,-0.004095391636469726
1.5064365439433933,0.020900617081537138,0.016540123589804293,0.008103902228742074,0.012099565614853987,-0.001237695638889183
1.50650806109832,0.024545654709518663,0.02006396763481038,0.01119024144466396,0.010245154091513909,0.0023310730644996933
1.5065795782532465,0.027795889555703463,0.026578514279364265,0.015188716512202768,0.014281008436746066,0.0029303050434116317
1.506651095408173,0.030315638754338018,0.03528592549648446,0.02020329875354711,0.021522214525829853,0.0023201302635915415
1.5067226125630997,0.03210575674634778,0.04419811214574993,0.02516307524326057,0.03097598753827221,0.0002846316763937202
1.5067941297180263,0.03344435853615213,0.04949697274643166,0.02809340030703321,0.0400759576864444,-0.003116595043909171
1.5068656468729529,0.03469846610783441,0.050314926823842906,0.028836225363534616,0.045500290963632194,-0.005930327184892088
1.5069371640278795,0.03608805388876267,0.049694168721031294,0.029158238083419115,0.04826309466512982,-0.007408058135640519
1.507008681182806,0.03753193323000867,0.04978136401094288,0.029645090979329304,0.05085420737067874,-0.008649671033741684
1.5070801983377327,0.038657419159163646,0.05008031958799165,0.03000532215028713,0.05205487617990924,-0.009119760434681889
1.5071517154926592,0.038950459296790155,0.04917534010796407,0.029635790998015537,0.05151574859737121,-0.009071266692825292
1.5072232326475858,0.03795818995272562,0.04426781431296081,0.026170643808596194,0.04993798096023289,-0.010794078633886196
1.5072947498025124,0.035465807062779846,0.03786452579267416,0.02167628316777021,0.04672568410967293,-0.012296867951677868
1.507366266957439,0.03160750390290827,0.032580951343417236,0.01779655130545853,0.043052725128518446,-0.013029515754666758
1.5074377841123656,0.02689036393457737,0.028042069136520464,0.014369878001425985,0.03977002095343286,-0.013651818532957412
1.5075093012672922,0.022110982309926926,0.02415923227652519,0.012274203971852665,0.035953760272377254,-0.012900265606387747
1.5075808184222188,0.018158898886019043,0.021671975594896944,0.010838451012952628,0.03420615050775947,-0.012927972795558733
1.5076523355771454,0.015750547010193554,0.020031307107289974,0.009985828883372298,0.03253024107055308,-0.012545168067012927
1.507723852732072,0.015198153002695225,0.01685908192838312,0.008495434228764531,0.028232309697683908,-0.011020120523693014
1.5077953698869986,0.01632710132796861,0.012624351624642571,0.006411917338543193,0.02175472692821292,-0.008595464127395034
1.5078668870419252,0.01858159605132472,0.009438398065148018,0.00521914285473996,0.01503194165456408,-0.005322990477985539
1.5079384041968518,0.02125563485920751,0.007441819389369356,0.005152249488431391,0.008411206187077754,-0.0012361608395428142
1.5080099213517784,0.023737553869918368,0.0070579475127923955,0.0057615299185219465,0.004859072935085967,0.001459900447992521
1.508081438506705,0.025680396681245936,0.0088486624468735,0.007453924502377228,0.0038025360516908855,0.003441409736151872
1.5081529556616315,0.027059576075294776,0.010627427522224127,0.008842952470356694,0.004626889640992838,0.0040104365220790875
1.5082244728165581,0.028112039179855254,0.010042565135359486,0.008942296206187028,0.005309943124953671,0.003661034465541722
1.5082959899714847,0.029172386947160022,0.00827360977875042,0.008780907310022895,0.005854474041779906,0.0031946772056255703
1.5083675071264113,0.03045818310099522,0.008459054954703038,0.010026451111954632,0.007082202581168961,0.003399602999989963
1.508439024281338,0.03190386747651281,0.012294971927970383,0.012747040105629182,0.010113976030984838,0.0036285406153944858
1.5085105414362645,0.03314377564440417,0.017971922648879028,0.01600259242207933,0.014616013031650733,0.0033564543202685166
1.508582058591191,0.03366149064758627,0.022797790682762286,0.0186299276568245,0.018446358948597648,0.003013994959451087
1.5086535757461177,0.03301661123576188,0.022722958636747337,0.017302793300784304,0.020087206414879804,0.0009516091843435935
1.5087250929010443,0.031031763736761156,0.018952376262321876,0.013978643770450466,0.019296587639679265,-0.0011502142284006214
1.5087966100559709,0.02787943173947238,0.013943071290250068,0.009773118861112214,0.016094395222260065,-0.002431979101659622
1.5088681272108975,0.024071143965329337,0.009230092767665397,0.005405399448016361,0.013576419683061799,-0.0042675961249061985
1.508939644365824,0.020368522042175177,0.005557529191942724,0.002619426200917792,0.010378897988634946,-0.004443346307487399
1.5090111615207507,0.017622660517009992,0.0038372504612004883,0.001280243020763253,0.008829287503970164,-0.004519941394892441
1.5090826786756772,0.016549556574789192,0.003254887032861278,0.001094148915450876,0.00888235681843982,-0.00469837443298528
1.5091541958306038,0.01749078347259404,0.003183178101105227,0.001728275756159572,0.007625606282853104,-0.0034177664921166977
1.5092257129855304,0.02026609634215111,0.0035132518044914615,0.002622344403247119,0.00448036876888952,-0.0007537627439905155
1.509297230140457,0.024225306810832306,0.0065498148165561805,0.005090188490138515,0.001914271072672942,0.0027766083590323853
1.5093687472953836,0.028505184243561566,0.01386375674602953,0.010396256019729185,0.002052151006173383,0.006832329412635547
1.5094402644503102,0.032363241212534366,0.024109183406244232,0.017181792517199104,0.0059719387269582085,0.009679974167651591
1.5095117816052368,0.035420479974014,0.03545169552911485,0.023785576506019895,0.012631201574200147,0.010675723026720015
1.5095832987601634,0.03772295943106026,0.043817110870327386,0.028541189697550762,0.018594619779566883,0.010664866035556454
1.50965481591509,0.039632532833370364,0.046309586035299555,0.030196375009199177,0.022687276054325946,0.009400982055814763
1.5097263330700166,0.041605230836871475,0.04208707292177658,0.028415936049993602,0.02327984586202568,0.007638897245643796
1.5097978502249432,0.04392716574129624,0.03552076092291205,0.026087173799228647,0.01920696696101365,0.008364472533522146
1.5098693673798698,0.04649881119729661,0.03168733549648419,0.025125670272120693,0.014583314040548806,0.010502721416619613
1.5099408845347964,0.048782229516577,0.03189853353475483,0.025898717163670308,0.013620993027558736,0.011707998525092378
1.510012401689723,0.04998265464348263,0.03473159553971727,0.027970420605425636,0.014559129327796717,0.012740444767310318
1.5100839188446495,0.04939582665258717,0.035198165730625515,0.02744804663090382,0.015449183772973666,0.011776142257166347
1.5101554359995761,0.046726633743720845,0.032897445557891744,0.024915387052692306,0.01529357308931867,0.0098945888943033
1.5102269531545027,0.04221494386441091,0.0302253734762337,0.022036546886626967,0.014331988614187472,0.008246615114668473
1.5102984703094293,0.0365554045951188,0.028687444660802707,0.019143160662124768,0.01542436091787573,0.0053038954413720096
1.510369987464356,0.030705701566729478,0.02877096026273266,0.01712115674686206,0.01789457086779858,0.0021805185745524596
1.5104415046192825,0.025671938650474672,0.03006241274716732,0.016152578444133103,0.020907378322380567,-0.00045954434697250356
1.510513021774209,0.02230380117340663,0.03177793418762718,0.01595046449902194,0.02445749032845728,-0.002837245759187789
1.5105845389291357,0.02110478427342222,0.03040712463911049,0.014310671393420193,0.025051290850290477,-0.0044893351858375004
1.5106560560840623,0.022087028251984653,0.025547441499712026,0.011927341615445858,0.020184763513383257,-0.0033073989455703074
1.5107275732389889,0.02474352062355467,0.01776037435340333,0.008315005741078718,0.012240698826309944,-0.0011611193938810428
1.5107990903939155,0.028206425428266402,0.011806377846853,0.006455089330600415,0.004399328599580064,0.0022886724049771515
1.510870607548842,0.03156791810921427,0.009073069528200759,0.006924877381908108,-0.0008513282056044212,0.005937410707280301
1.5109421247037687,0.034217944840168574,0.009399245459101696,0.0085255112555674,-0.0017668011713825244,0.007759035696914673
1.5110136418586952,0.036025983655989566,0.012678067796080897,0.01161661354179527,0.0003031221327591733,0.008878152867220554
1.5110851590136218,0.03729532439305516,0.01436914397019598,0.013294021431409462,0.0036103395321699185,0.00812058472061747
1.5111566761685484,0.03854470610167679,0.013311548225949035,0.013163190298163863,0.007018972708531937,0.005887989266743401
1.511228193323475,0.04022460916569971,0.012268263480759467,0.013651672900344249,0.007627200709045929,0.0058892064606632715
1.5112997104784016,0.04246467581659284,0.01308273328176148,0.01442102957265151,0.007908765262146789,0.0063139057754907435
1.5113712276333282,0.04493429586497486,0.017723347700131876,0.016921655013448497,0.009857971659230837,0.007048158829687803
1.5114427447882548,0.04689231770787431,0.02318061405171393,0.019784155718843215,0.012271948639174133,0.007774848516616382
1.5115142619431814,0.047454803887083834,0.025390103880581393,0.02007376929597759,0.014418057017611625,0.006659722697937961
