freq,gls,usurper,pdc_unbiased,shape_periodogram,shift_periodogram
1.5,0.031605246424144244,0.032160651915843226,0.022003088454338578,0.04996270522254941,-0.01620268242318318
1.5000715171549266,0.028595336453250155,0.02554695926802669,0.01679692217781675,0.042341257396647534,-0.015124840416252514
1.5001430343098532,0.024797888546036324,0.019832805011596524,0.011419584810450916,0.035795666460991846,-0.01488354986214253
1.5002145514647798,0.020789812632417533,0.017924066901660367,0.008796510756732951,0.02925882083846795,-0.012569407345988725
1.5002860686197064,0.017345459787468324,0.020403595602581242,0.009479677332466734,0.025794544763351922,-0.009778711670608878
1.500357585774633,0.015271945925960987,0.02481864699676998,0.011714688134418397,0.024846725509308606,-0.007469359721521705
1.5004291029295596,0.015165201318802408,0.0300313111018088,0.01415548030345099,0.028534650291511445,-0.008048571826233183
1.5005006200844861,0.01716595655706576,0.03486343333642195,0.016954003693511403,0.030796746604903318,-0.007421189255570283
1.5005721372394127,0.02086274426290797,0.03850829894198327,0.019187221778694714,0.032368229355778745,-0.006766808001863297
1.5006436543943393,0.02544081002802935,0.041664663714397414,0.02137618975240262,0.03374404177973068,-0.006017055086377513
1.500715171549266,0.03000884122307953,0.04504829757226591,0.02421994995090846,0.03437397541836168,-0.004282333936930761
1.5007866887041925,0.03391266896856934,0.04903300221030951,0.02666061786266369,0.0400677056240775,-0.006178138465247901
1.500858205859119,0.0368882624749449,0.05362273906985165,0.029368029530911475,0.048952986868890644,-0.009970915357286456
1.5009297230140457,0.0390355018056212,0.0587486859615179,0.03287087235373193,0.06115411086869777,-0.015347098561233124
1.5010012401689723,0.04067274274449097,0.06066491238406907,0.0349635290275476,0.07235675007353033,-0.021141419932454227
1.5010727573238989,0.04213722341942038,0.0610467573327337,0.036798409825528795,0.08088340343978236,-0.025374568591076715
1.5011442744788255,0.043587855733941964,0.06116234272111311,0.03793328428010061,0.08845275112332511,-0.02951207213624448
1.501215791633752,0.044880915226329254,0.06081973360130355,0.03824814004694497,0.09389528623358252,-0.03287054094148432
1.5012873087886787,0.045592465454410994,0.06176724749806677,0.03896037083855539,0.09867647091065342,-0.035493231768784654
1.5013588259436053,0.04519857422015515,0.06112959017865702,0.038338310339186395,0.10036397119415902,-0.03708201496442332
1.5014303430985318,0.04331902735671992,0.057603976061592316,0.03525172960142179,0.10035635974489165,-0.039417259515852475
1.5015018602534584,0.03989064242203222,0.04997143262628269,0.029380562295107576,0.09648971621081738,-0.04130554512025431
1.501573377408385,0.035207008956161204,0.04097900215267659,0.02275340008029923,0.09074038670357719,-0.04251714585989418
1.5016448945633116,0.029854908046904056,0.03270014321694451,0.01716592382272006,0.08156927291965624,-0.04068144650200764
1.5017164117182382,0.02460404968418353,0.025736541003805416,0.01272729457488559,0.07123735778617088,-0.03721765812688813
1.5017879288731648,0.020274028275387688,0.02156297241277595,0.010756457121333964,0.06196742823115299,-0.03259773334778809
1.5018594460280914,0.01756978332877583,0.01954874612817316,0.009814843547662735,0.05603178606513704,-0.02940093682753453
1.501930963183018,0.016887968997375314,0.01900665608427989,0.009773529530205848,0.04882750256270686,-0.024692441059674313
1.5020024803379446,0.018154766828972088,0.018019705493843692,0.009545857603491862,0.04122231823193502,-0.019864066284836692
1.5020739974928712,0.020807783027131654,0.01833684028752999,0.00997328939183271,0.034459514726049564,-0.015097429454575663
1.5021455146477978,0.023992628107040868,0.02061622148681406,0.01144212206274167,0.030420680454798475,-0.011335613003623063
1.5022170318027244,0.026898257150269028,0.024987411612559594,0.014028974316248104,0.03169841643038946,-0.010221988398085446
1.502288548957651,0.029041972437567,0.029731827890800977,0.016679671046279716,0.03643562304312552,-0.011332490360550004
1.5023600661125776,0.03036170293294545,0.03494946656372582,0.019990738498687276,0.04430036870519376,-0.014000141405081738
1.5024315832675041,0.031115659296329378,0.03588889384936229,0.02077896981185265,0.05203768937760753,-0.01849250316736256
1.5025031004224307,0.031680428730509906,0.03339951301565213,0.019519808615351825,0.057227404991541365,-0.02285869446701632
1.5025746175773573,0.032340192227813126,0.02996122463633278,0.018649627815208736,0.05856966638351928,-0.024399661447139794
1.502646134732284,0.033131945974426154,0.027365994919362428,0.017871043624403338,0.056631160185477036,-0.023711941380137
1.5027176518872105,0.033797027787609374,0.026845380284054084,0.01799769758677829,0.05526762791136518,-0.02271893168227747
1.502789169042137,0.033871437590867574,0.02557318090770017,0.017486670760106647,0.05305157945625568,-0.021646863804108574
1.5028606861970637,0.03289397904446062,0.022454363332341982,0.015274482970942199,0.050168965107591376,-0.021421461953032538
1.5029322033519903,0.030638444170610023,0.018860455155657593,0.012011118949132128,0.047625247618941775,-0.02221263104032043
1.5030037205069169,0.02725242384486997,0.016907223530481498,0.009441040885373031,0.04548753533258115,-0.022747083383989373
1.5030752376618435,0.023245599290448483,0.018253926396090258,0.008606550278537486,0.044090075246327014,-0.022458163783036215
1.50314675481677,0.019358366958489085,0.021482681726766255,0.008953985446160287,0.0429667767011928,-0.021457479976146124
1.5032182719716967,0.01638051368297583,0.025631357624312876,0.010426555451109277,0.042534148955427134,-0.02006156985324475
1.5032897891266233,0.01497089818834955,0.02968147451930263,0.012350463029946239,0.04258905248142926,-0.018645274155596945
1.5033613062815498,0.015499460648454992,0.03282273340693999,0.013981854206916533,0.041313829664732266,-0.016575336686984923
1.5034328234364764,0.01793079665045714,0.032990926622273854,0.01416864675154985,0.03650621313371124,-0.013274964952965086
1.503504340591403,0.021792554285279486,0.03200150023609175,0.013806564009865633,0.029826596649614658,-0.00916047684947423
1.5035758577463296,0.026283745634476982,0.034195477282626084,0.015751292513310384,0.026003526735863022,-0.00518162653166962
1.5036473749012562,0.03053094650102892,0.03909590481949472,0.019003856556851165,0.028651862124727985,-0.004464612252821871
1.5037188920561828,0.03389868374654469,0.04595566672456356,0.02304438568669538,0.037648795722955306,-0.007321789246579358
1.5037904092111094,0.03619247413189749,0.05461857837892343,0.02836367437687625,0.050638524142665224,-0.01183876134435494
1.503861926366036,0.03764566473947448,0.06130470926875462,0.03246316988130233,0.06482207913825323,-0.018070602066258268
1.5039334435209626,0.038716510453014726,0.06467356097906399,0.03408384953452373,0.07869062986737865,-0.02598432764643755
1.5040049606758892,0.0398171228344044,0.06641720878244961,0.03557140334761458,0.08932846956863902,-0.03188091083438756
1.5040764778308158,0.041095739566223526,0.06982281998963759,0.037525773851031737,0.09727606348447208,-0.03565451328431311
1.5041479949857424,0.04234364882306056,0.0730641196453356,0.038887791087543686,0.10305099752994,-0.038444513992175536
1.504219512140669,0.043051695709888996,0.07440705443728596,0.03921573232033744,0.1067481255498289,-0.04064534029577981
1.5042910292955955,0.04260283060723393,0.06996639127514438,0.036347749549566495,0.10699968562860954,-0.042987418587449325
1.5043625464505221,0.04053910287302065,0.059537945132372996,0.030363706364527798,0.10254167069663893,-0.04456782645521226
1.5044340636054487,0.03679439695722014,0.046417567760030094,0.02344001313236871,0.0932830367635211,-0.04367922958605715
1.5045055807603753,0.03178229372791513,0.03491311014388267,0.01698689592080203,0.08411599118165772,-0.04249832296922351
1.504577097915302,0.026296542555493532,0.026973397070065724,0.012446934359831944,0.07456476995166932,-0.03962342595320216
1.5046486150702285,0.021278189004975218,0.024076201331976712,0.011187449324425095,0.06679634406939503,-0.03545324365176006
1.504720132225155,0.017555651134353225,0.02326174135107919,0.011283372248322305,0.06082978709287882,-0.031450832606243595
1.5047916493800817,0.01564621916050789,0.02221117697603387,0.010644076718018416,0.05600490632214964,-0.02875729632660427
1.5048631665350083,0.015656872938766518,0.019948753022014556,0.009217644422453899,0.04848133931360076,-0.024884365781413998
1.5049346836899349,0.017286051262519187,0.018198930137369645,0.008230188330603324,0.039753320759966425,-0.019891599147495366
1.5050062008448615,0.019918755698584013,0.017796773837725648,0.007905738300784866,0.03130640834710942,-0.014586596031571693
1.505077717999788,0.022804926807040774,0.01966996511236485,0.009361654152707073,0.024462890882280017,-0.008993361507675176
1.5051492351547147,0.025289013466251117,0.024317023381041126,0.011726326065843064,0.025935394094612787,-0.008175439948451635
1.5052207523096413,0.027015644551186973,0.029213530457553552,0.014241445734319206,0.031613722990472805,-0.010005943200024653
1.5052922694645678,0.028012475009877,0.03185048201195265,0.015961322224474977,0.037113335462806284,-0.012320239335429568
1.5053637866194944,0.028596359216805502,0.028973296127140665,0.014919408532213189,0.04065139496793516,-0.015432016664891733
1.505435303774421,0.02915112616185344,0.022964438877235333,0.013309044659559194,0.04143826637835419,-0.01716512551602256
1.5055068209293476,0.029900153036102176,0.018716689412694203,0.012321918805932341,0.040921575158176515,-0.01757079387267105
1.5055783380842742,0.030782681811496897,0.01806829108654207,0.01250866989698158,0.04036706722549225,-0.017065356368696504
1.5056498552392008,0.03146961942071043,0.02025988641352093,0.013496870470295333,0.041949737170550686,-0.01735949583713539
1.5057213723941274,0.03149161794629547,0.021367222328333563,0.013134126432083434,0.04416683936168948,-0.019090812381671485
1.505792889549054,0.030427310908792447,0.020959370718715495,0.011855838401314541,0.04545223481209081,-0.020900996257571997
1.5058644067039806,0.02809465201809536,0.018917568323912854,0.009674998552531539,0.044267592957799355,-0.021768419579316852
1.5059359238589072,0.024683284499830333,0.015339656534907641,0.006168765257997816,0.04222324461747707,-0.023070717061090484
1.5060074410138338,0.020766913938386953,0.013090646277114149,0.003987129865862614,0.03919391537330663,-0.022725877793094297
1.5060789581687604,0.017165658691511196,0.014202178486786413,0.004506773893992003,0.0362607989171113,-0.020406389957296604
1.506150475323687,0.014695536880755058,0.01668156402815008,0.005603202541494299,0.035032873011813286,-0.018772261254819872
1.5062219924786135,0.013907828977730352,0.01880088956331826,0.006474304461408025,0.033668937472455626,-0.017218827191250435
1.5062935096335401,0.014929925183180436,0.019092951848437175,0.007024475314287043,0.02906817831183253,-0.013781557070891178
1.5063650267884667,0.01746107614733839,0.017758389777205556,0.006681651925523114,0.023381797456425876,-0.010306070969965027
1.5064365439433933,0.020900617081537138,0.018900338591973313,0.008103902228742074,0.01812099511041502,-0.005778847253812073
1.50650806109832,0.024545654709518663,0.02257707939604334,0.01119024144466396,0.013647082917540673,-0.0005128585821921959
1.5065795782532465,0.027795889555703463,0.02935492080809666,0.015188716512202768,0.016878953395527287,0.000383868568206277
1.506651095408173,0.030315638754338018,0.038496926558481304,0.02020329875354711,0.025054181190674815,-0.0011965614778599938
1.5067226125630997,0.03210575674634778,0.04782026969491544,0.02516307524326057,0.03659983258572988,-0.005031714240111511
1.5067941297180263,0.03344435853615213,0.05339059617000571,0.02809340030703321,0.048246651781048845,-0.010470424227306785
1.5068656468729529,0.03469846610783441,0.05419666411924411,0.028836225363534616,0.056446459638313295,-0.015301725556890364
1.5069371640278795,0.03608805388876267,0.053449006616300115,0.029158238083419115,0.06143267017505852,-0.01833981702402908
1.507008681182806,0.03753193323000867,0.05335850889138413,0.029645090979329304,0.06534299238877782,-0.020546337367290533
1.5070801983377327,0.038657419159163646,0.0535150092996491,0.03000532215028713,0.06686694680447909,-0.021277567669233412
1.5071517154926592,0.038950459296790155,0.05231156042458584,0.029635790998015537,0.06624644017988572,-0.02114844343553884
1.5072232326475858,0.03795818995272562,0.046928256886182323,0.026170643808596194,0.06408830326607853,-0.022348252172920125
1.5072947498025124,0.035465807062779846,0.04004785602827272,0.02167628316777021,0.05970336972609577,-0.02285885081967789
1.507366266957439,0.03160750390290827,0.03435074134184481,0.01779655130545853,0.05476126741414108,-0.022537684153770506
1.5074377841123656,0.02689036393457737,0.029465126668106346,0.014369878001425985,0.05002826988489328,-0.022012052058658433
1.5075093012672922,0.022110982309926926,0.025258366686868705,0.012274203971852665,0.04511464497154562,-0.020363185785285818
1.5075808184222188,0.018158898886019043,0.02263605839897679,0.010838451012952628,0.04280533677351828,-0.01992890734543412
1.5076523355771454,0.015750547010193554,0.021087370903216468,0.009985828883372298,0.0408867529552937,-0.01931141042430817
1.507723852732072,0.015198153002695225,0.0180399670157556,0.008495434228764531,0.03603078268461542,-0.017245222686527582
1.5077953698869986,0.01632710132796861,0.013799826657155049,0.006411917338543193,0.02801716563968445,-0.013553558296726428
1.5078668870419252,0.01858159605132472,0.010575473861483674,0.00521914285473996,0.018975048396437547,-0.008516447148755098
1.5079384041968518,0.02125563485920751,0.008597005793704393,0.005152249488431391,0.009771000076817242,-0.0025252718566497836
1.5080099213517784,0.023737553869918368,0.008375743204205833,0.0057615299185219465,0.00484949066970298,0.0011645246420494012
1.508081438506705,0.025680396681245936,0.01032185929002116,0.007453924502377228,0.0038936168361960624,0.0030688609083882276
1.5081529556616315,0.027059576075294776,0.012227720830400619,0.008842952470356694,0.005847216855084397,0.0028348952714979513
1.5082244728165581,0.028112039179855254,0.011647910986975154,0.008942296206187028,0.008056180255143259,0.001460145054839712
1.5082959899714847,0.029172386947160022,0.00970711398242389,0.008780907310022895,0.010393676422869449,-0.00019577324484982818
1.5083675071264113,0.03045818310099522,0.009819517202282428,0.010026451111954632,0.013196526646121776,-0.0010954465105633433
1.508439024281338,0.03190386747651281,0.01390092920945518,0.012747040105629182,0.01755677591215134,-0.0019041292138151727
1.5085105414362645,0.03314377564440417,0.01990402149195162,0.01600259242207933,0.023240726465082302,-0.0031779050255164197
1.508582058591191,0.03366149064758627,0.024831617454327774,0.0186299276568245,0.02826950649369863,-0.004495920657321853
1.5086535757461177,0.03301661123576188,0.024650063503442357,0.017302793300784304,0.030737498377019532,-0.00711889247698887
1.5087250929010443,0.031031763736761156,0.020592321466336203,0.013978643770450466,0.030052466872193224,-0.009178908405395156
1.5087966100559709,0.02787943173947238,0.015235384177043254,0.009773118861112214,0.026443074986792603,-0.00998310902002945
1.5088681272108975,0.024071143965329337,0.010220997885878698,0.005405399448016361,0.02273035021225586,-0.010841420645524433
1.508939644365824,0.020368522042175177,0.00622556173278505,0.002619426200917792,0.018146270597122177,-0.009934001395793793
1.5090111615207507,0.017622660517009992,0.004275880971386225,0.001280243020763253,0.01575317367716837,-0.00937346838029258
1.5090826786756772,0.016549556574789192,0.0036673030119669953,0.001094148915450876,0.015432756514675293,-0.00930354507760061
1.5091541958306038,0.01749078347259404,0.0037287116882778384,0.001728275756159572,0.013744608585720882,-0.00771696712417823
1.5092257129855304,0.02026609634215111,0.004245932555889207,0.002622344403247119,0.00989153373432881,-0.00451331680544253
1.509297230140457,0.024225306810832306,0.0075387611437811065,0.005090188490138515,0.006135765092418874,-0.00018621709194847468
1.5093687472953836,0.028505184243561566,0.015388025541997467,0.010396256019729185,0.004659272646511072,0.0047866351629242306
1.5094402644503102,0.032363241212534366,0.02637227575050071,0.017181792517199104,0.007882417096336379,0.00779255078176393
1.5095117816052368,0.035420479974014,0.0385308017942976,0.023785576506019895,0.015453130105958304,0.007810416633319454
1.5095832987601634,0.03772295943106026,0.0475986398343377,0.028541189697550762,0.023184468849602385,0.006329130274071617
1.50965481591509,0.039632532833370364,0.05033635538036006,0.030196375009199177,0.029176424002080717,0.003647083934720629
1.5097263330700166,0.041605230836871475,0.04575248933992623,0.028415936049993602,0.031730161730219114,0.0006247864068383606
1.5097978502249432,0.04392716574129624,0.03856903656929405,0.026087173799228647,0.02899696202319307,0.0006594951366552494
1.5098693673798698,0.04649881119729661,0.03442007504384735,0.025125670272120693,0.024868690169707153,0.0026431992106641035
1.5099408845347964,0.048782229516577,0.03461306286751522,0.025898717163670308,0.023653392410364172,0.004024913536186439
1.510012401689723,0.04998265464348263,0.03753412409129995,0.027970420605425636,0.02420625555130726,0.005227260412110655
1.5100839188446495,0.04939582665258717,0.0380431960626349,0.02744804663090382,0.024662753357849773,0.00453294733169232
1.5101554359995761,0.046726633743720845,0.035598471989589806,0.024915387052692306,0.024192897280088645,0.002927943007099749
1.5102269531545027,0.04221494386441091,0.03275339177239603,0.022036546886626967,0.022494684264425042,0.0018681845309312807
1.5102984703094293,0.0365554045951188,0.031115262203318086,0.019143160662124768,0.02252341421976986,-0.0003356984799727083
1.510369987464356,0.030705701566729478,0.031117338445157825,0.01712115674686206,0.02347176175673645,-0.002485053337832814
1.5104415046192825,0.025671938650474672,0.0323394660585056,0.016152578444133103,0.025452565931380594,-0.004516881495366737
1.510513021774209,0.02230380117340663,0.03408586424746284,0.01595046449902194,0.028473563659343244,-0.006653224607854324
1.5105845389291357,0.02110478427342222,0.03266617238112262,0.014310671393420193,0.028489949248670862,-0.007902050709121516
1.5106560560840623,0.022087028251984653,0.027476370136819705,0.011927341615445858,0.022980813183084852,-0.00608369180199024
1.5107275732389889,0.02474352062355467,0.019100535636733744,0.008315005741078718,0.01406853571135823,-0.0029593856061662445
1.5107990903939155,0.028206425428266402,0.012657265341825678,0.006455089330600415,0.004801249747739109,0.001719514283700744
1.510870607548842,0.03156791810921427,0.009606230169276581,0.006924877381908108,-0.0016285089825265624,0.006293657903897514
1.5109421247037687,0.034217944840168574,0.00991956994841861,0.0085255112555674,-0.002272197366737506,0.00792379192165708
1.5110136418586952,0.036025983655989566,0.013411790017412955,0.01161661354179527,0.0013534176177985198,0.007876941326274476
1.5110851590136218,0.03729532439305516,0.01532879606486321,0.013294021431409462,0.007039048860933323,0.0054117150015721635
1.5111566761685484,0.03854470610167679,0.01422316529270349,0.013163190298163863,0.013125160269078397,0.0013187716345991678
1.511228193323475,0.04022460916569971,0.013039537865664618,0.013651672900344249,0.016249671726415615,-0.00036331520829492955
1.5112997104784016,0.04246467581659284,0.013981271397383508,0.01442102957265151,0.01806754213642682,-0.0009758215277280536
1.5113712276333282,0.04493429586497486,0.01896050267683341,0.016921655013448497,0.02087325517743655,-0.0009297922965504803
1.5114427447882548,0.04689231770787431,0.024750605752213713,0.019784155718843215,0.02354196955273629,-0.0005203158536315918
1.5115142619431814,0.047454803887083834,0.027198591173453485,0.02007376929597759,0.025288293960789413,-0.001448084926915674
