freq,gls,usurper,pdc_unbiased,shape_periodogram,shift_periodogram
1.5,0.031605246424144244,0.034313982533878996,0.022003088454338578,0.057388288760275206,-0.026972867083076606
1.5000715171549266,0.028595336453250155,0.02754690847513296,0.01679692217781675,0.04888204745928203,-0.024295677022726947
1.5001430343098532,0.024797888546036324,0.021738808019518406,0.011419584810450916,0.041760311756786225,-0.02275139075362676
1.5002145514647798,0.020789812632417533,0.019821395247016132,0.008796510756732951,0.03537575619050374,-0.019868421444532585
1.5002860686197064,0.017345459787468324,0.022316802846742416,0.009479677332466734,0.0316755234093168,-0.016694652320787488
1.500357585774633,0.015271945925960987,0.02680819972984526,0.011714688134418397,0.02990022958165353,-0.013870391431656188
1.5004291029295596,0.015165201318802408,0.03207344249773936,0.01415548030345099,0.03268380615744444,-0.014240883706057906
1.5005006200844861,0.01716595655706576,0.03665648519068481,0.016954003693511403,0.0332867941073416,-0.012771436228323283
1.5005721372394127,0.02086274426290797,0.03957029926989682,0.019187221778694714,0.031467662123273135,-0.009915430771457831
1.5006436543943393,0.02544081002802935,0.042080828031882324,0.02137618975240262,0.030252377155415303,-0.007531318257294562
1.500715171549266,0.03000884122307953,0.04503953466213417,0.02421994995090846,0.030153235718364285,-0.005516200515937394
1.5007866887041925,0.03391266896856934,0.0490238449862363,0.02666061786266369,0.036201026892730234,-0.008273355690577877
1.500858205859119,0.0368882624749449,0.05398500187959782,0.029368029530911475,0.0471107329078011,-0.01440898503058208
1.5009297230140457,0.0390355018056212,0.059788602245314106,0.03287087235373193,0.063363336144689,-0.0239239719370694
1.5010012401689723,0.04067274274449097,0.06241990484831159,0.0349635290275476,0.07966537510632019,-0.034459426779549523
1.5010727573238989,0.04213722341942038,0.06330536019433343,0.036798409825528795,0.09258398077446871,-0.04270490623236921
1.5011442744788255,0.043587855733941964,0.06374137552677275,0.03793328428010061,0.1028984137298561,-0.04952725969613813
1.501215791633752,0.044880915226329254,0.0634750854074471,0.03824814004694497,0.1083196574244437,-0.053311095579253495
1.5012873087886787,0.045592465454410994,0.06424136680958464,0.03896037083855539,0.1102373765797598,-0.054238924905126676
1.5013588259436053,0.04519857422015515,0.0633924891034351,0.038338310339186395,0.1096376883061834,-0.0542222707545493
1.5014303430985318,0.04331902735671992,0.059756997075758544,0.03525172960142179,0.10729860430415752,-0.05460918159712007
1.5015018602534584,0.03989064242203222,0.05202332649785096,0.029380562295107576,0.10150511553365875,-0.05435253876082489
1.501573377408385,0.035207008956161204,0.04290151885068958,0.02275340008029923,0.09410303151198655,-0.053427832190164525
1.5016448945633116,0.029854908046904056,0.034452488373640344,0.01716592382272006,0.08463152120787426,-0.05027411892051678
1.5017164117182382,0.02460404968418353,0.02739017375907369,0.01272729457488559,0.07459179587410972,-0.04592655771471803
1.5017879288731648,0.020274028275387688,0.0231373519455265,0.010756457121333964,0.06507656217787013,-0.04028844212143996
1.5018594460280914,0.01756978332877583,0.021087674769443666,0.009814843547662735,0.058435612485465194,-0.03606149276076535
1.501930963183018,0.016887968997375314,0.020326373554738687,0.009773529530205848,0.04934530981054469,-0.029428987944393487
1.5020024803379446,0.018154766828972088,0.018715534323241443,0.009545857603491862,0.038489075398609206,-0.021635572124180782
1.5020739974928712,0.020807783027131654,0.018496838729947365,0.00997328939183271,0.028784100327567966,-0.0142423919389676
1.5021455146477978,0.023992628107040868,0.02060124109590346,0.01144212206274167,0.023764603251658512,-0.009568244962255753
1.5022170318027244,0.026898257150269028,0.025337271897405284,0.014028974316248104,0.02680261740947477,-0.010024615279500626
1.502288548957651,0.029041972437567,0.030807465694597844,0.016679671046279716,0.03571727011933598,-0.01473730261075079
1.5023600661125776,0.03036170293294545,0.037086652649695795,0.019990738498687276,0.050199007289970475,-0.02307927199261352
1.5024315832675041,0.031115659296329378,0.039095872581817286,0.02077896981185265,0.06608064013522455,-0.03418347264293617
1.5025031004224307,0.031680428730509906,0.037410646773501754,0.019519808615351825,0.07801112087020438,-0.0438018752462521
1.5025746175773573,0.032340192227813126,0.03439834898320221,0.018649627815208736,0.08407908316521256,-0.04885527070182614
1.502646134732284,0.033131945974426154,0.03172123211172884,0.017871043624403338,0.08302804588462467,-0.0486141058273802
1.5027176518872105,0.033797027787609374,0.03072364341397348,0.01799769758677829,0.07855316379801251,-0.045239275169208004
1.502789169042137,0.033871437590867574,0.028844787384446274,0.017486670760106647,0.07254332191335468,-0.041174577062976656
1.5028606861970637,0.03289397904446062,0.025198163251192732,0.015274482970942199,0.06584592762354659,-0.03776975813267135
1.5029322033519903,0.030638444170610023,0.021317210803900224,0.012011118949132128,0.06014050216213098,-0.03581276686265869
1.5030037205069169,0.02725242384486997,0.01927965534249068,0.009441040885373031,0.056010205912469274,-0.03453888104474412
1.5030752376618435,0.023245599290448483,0.020776914464517435,0.008606550278537486,0.05435841368840143,-0.03389778070671013
1.50314675481677,0.019358366958489085,0.024311389648180394,0.008953985446160287,0.053797980071962744,-0.033250109485644885
1.5032182719716967,0.01638051368297583,0.028847931290545015,0.010426555451109277,0.05417039862163836,-0.03251826994588839
1.5032897891266233,0.01497089818834955,0.03320139002151443,0.012350463029946239,0.05427489279845059,-0.03128196238009898
1.5033613062815498,0.015499460648454992,0.03622532673805394,0.013981854206916533,0.05128746139200209,-0.02797961726971511
1.5034328234364764,0.01793079665045714,0.03569904774577795,0.01416864675154985,0.04313063147856434,-0.02187818759275686
1.503504340591403,0.021792554285279486,0.03376125154400966,0.013806564009865633,0.03173339906854471,-0.01378367802726036
1.5035758577463296,0.026283745634476982,0.03524797045116065,0.015751292513310384,0.023464231458494498,-0.0064070273429174636
1.5036473749012562,0.03053094650102892,0.03998603534030945,0.019003856556851165,0.0238047153432379,-0.004435273007692206
1.5037188920561828,0.03389868374654469,0.04716905253843418,0.02304438568669538,0.033219567535885584,-0.008562648975952084
1.5037904092111094,0.03619247413189749,0.056835571340257435,0.02836367437687625,0.05193214174043081,-0.018627295522140996
1.503861926366036,0.03764566473947448,0.06471746613571783,0.03246316988130233,0.07444420413245274,-0.03233506691873039
1.5039334435209626,0.038716510453014726,0.06928627404281884,0.03408384953452373,0.0959047512916616,-0.04700857148447473
1.5040049606758892,0.0398171228344044,0.0718736700674692,0.03557140334761458,0.11237688144609131,-0.05813947496406496
1.5040764778308158,0.041095739566223526,0.07579039946050566,0.037525773851031737,0.12256339001832464,-0.06433244120432145
1.5041479949857424,0.04234364882306056,0.07906250821816165,0.038887791087543686,0.12586255445894307,-0.06584206205737585
1.504219512140669,0.043051695709888996,0.08000094239331236,0.03921573232033744,0.12393576731484775,-0.06419089212939656
1.5042910292955955,0.04260283060723393,0.07484039210276387,0.036347749549566495,0.11770502223190893,-0.06154532493204586
1.5043625464505221,0.04053910287302065,0.06354183576733012,0.030363706364527798,0.10705794758146822,-0.057775578429012445
1.5044340636054487,0.03679439695722014,0.049536419468642644,0.02344001313236871,0.09357666569467481,-0.05257136132397238
1.5045055807603753,0.03178229372791513,0.03741143798636946,0.01698689592080203,0.0822999340671037,-0.04868239117844014
1.504577097915302,0.026296542555493532,0.029256527059369916,0.012446934359831944,0.07277261536894541,-0.0447822690319307
1.5046486150702285,0.021278189004975218,0.026549397414907416,0.011187449324425095,0.06693774433539565,-0.0413596586418009
1.504720132225155,0.017555651134353225,0.02612462354124499,0.011283372248322305,0.06339729952384318,-0.03869736945018417
1.5047916493800817,0.01564621916050789,0.025430926978792224,0.010644076718018416,0.06027654515008631,-0.036845271486656304
1.5048631665350083,0.015656872938766518,0.023099260317368912,0.009217644422453899,0.05288799148570138,-0.03240349495893154
1.5049346836899349,0.017286051262519187,0.020742148994634148,0.008230188330603324,0.04208025894301819,-0.02516211892711056
1.5050062008448615,0.019918755698584013,0.019810084081436016,0.007905738300784866,0.03150661653001548,-0.017645162085197206
1.505077717999788,0.022804926807040774,0.02129894080146594,0.009361654152707073,0.023124340005424685,-0.010519882643908173
1.5051492351547147,0.025289013466251117,0.026023253106394223,0.011726326065843064,0.02432630275115886,-0.00978509486150358
1.5052207523096413,0.027015644551186973,0.03148462912921038,0.014241445734319206,0.033418273868359674,-0.014719619132164076
1.5052922694645678,0.028012475009877,0.03489638511444484,0.015961322224474977,0.04536518089678204,-0.022290511993551584
1.5053637866194944,0.028596359216805502,0.03280210678601975,0.014919408532213189,0.05708726508076036,-0.03158965289684874
1.505435303774421,0.02915112616185344,0.027158060505085745,0.013309044659559194,0.06535524098304916,-0.03875119919613874
1.5055068209293476,0.029900153036102176,0.023130520745816383,0.012321918805932341,0.06950322067844036,-0.04246800002971199
1.5055783380842742,0.030782681811496897,0.0224347338831028,0.01250866989698158,0.06934143495812504,-0.04222186392013964
1.5056498552392008,0.03146961942071043,0.024348096053748203,0.013496870470295333,0.06764443537312655,-0.040302399620243096
1.5057213723941274,0.03149161794629547,0.02509111822360379,0.013134126432083434,0.06537934858411076,-0.03888824722052721
1.505792889549054,0.030427310908792447,0.024244625150258173,0.011855838401314541,0.06116861505209521,-0.03667251280058698
1.5058644067039806,0.02809465201809536,0.021611292895652907,0.009674998552531539,0.05443027105843066,-0.03322148610864586
1.5059359238589072,0.024683284499830333,0.01748801051727103,0.006168765257997816,0.048298167633676,-0.03112138723958851
1.5060074410138338,0.020766913938386953,0.014886478949781384,0.003987129865862614,0.04293422685323316,-0.0286819861768598
1.5060789581687604,0.017165658691511196,0.01593946739998883,0.004506773893992003,0.039335789341884496,-0.02569347514985519
1.506150475323687,0.014695536880755058,0.01869384560102029,0.005603202541494299,0.03793553181800252,-0.02392063444424042
1.5062219924786135,0.013907828977730352,0.021149306502873864,0.006474304461408025,0.03640968257549063,-0.02220961949641433
1.5062935096335401,0.014929925183180436,0.021367951401917593,0.007024475314287043,0.03097307427100154,-0.01785615525905404
1.5063650267884667,0.01746107614733839,0.019518103945019058,0.006681651925523114,0.021993053302744356,-0.011521386351258189
1.5064365439433933,0.020900617081537138,0.020221984503916737,0.008103902228742074,0.01355648252948188,-0.004381537122192519
1.50650806109832,0.024545654709518663,0.023655943001202242,0.01119024144466396,0.008112717583746886,0.0017047572462552106
1.5065795782532465,0.027795889555703463,0.03060342591962593,0.015188716512202768,0.012061642170272913,0.0015467857461310796
1.506651095408173,0.030315638754338018,0.040314804377816586,0.02020329875354711,0.022898065141923465,-0.00295314080507769
1.5067226125630997,0.03210575674634778,0.05055266845100878,0.02516307524326057,0.039332881445597934,-0.011588813449930966
1.5067941297180263,0.03344435853615213,0.05717993237294868,0.02809340030703321,0.05663075339764618,-0.0222552290016154
1.5068656468729529,0.03469846610783441,0.05864393729301265,0.028836225363534616,0.06974468962452392,-0.0313657103861658
1.5069371640278795,0.03608805388876267,0.058300226278478244,0.029158238083419115,0.07743753736048409,-0.036794361000545985
1.507008681182806,0.03753193323000867,0.05830509288430628,0.029645090979329304,0.08039248561115418,-0.03863265819151109
1.5070801983377327,0.038657419159163646,0.05818006960757167,0.03000532215028713,0.07702852451780962,-0.0359145768013577
1.5071517154926592,0.038950459296790155,0.0565151138968808,0.029635790998015537,0.07140532544299824,-0.03203788879305496
1.5072232326475858,0.03795818995272562,0.05056498717095409,0.026170643808596194,0.06406414883219909,-0.029020097653271442
1.5072947498025124,0.035465807062779846,0.043133003370347825,0.02167628316777021,0.05476288891675824,-0.02527187404099505
1.507366266957439,0.03160750390290827,0.03698377020636054,0.01779655130545853,0.0468113751815116,-0.022096472036442612
1.5074377841123656,0.02689036393457737,0.03181043380822267,0.014369878001425985,0.041064077358914125,-0.020227854891296995
1.5075093012672922,0.022110982309926926,0.027568522824940805,0.012274203971852665,0.03727260567350047,-0.018883137212206233
1.5075808184222188,0.018158898886019043,0.025260816717174926,0.010838451012952628,0.036942222611067964,-0.019621285821423137
1.5076523355771454,0.015750547010193554,0.024118436899305432,0.009985828883372298,0.037338428175137196,-0.020493153094658226
1.507723852732072,0.015198153002695225,0.02116655902531771,0.008495434228764531,0.034086063311157336,-0.01913012022470753
1.5077953698869986,0.01632710132796861,0.016463930819689162,0.006411917338543193,0.025710683539295412,-0.014424522185711545
1.5078668870419252,0.01858159605132472,0.01259761763345875,0.00521914285473996,0.016004124721431527,-0.008139760629487543
1.5079384041968518,0.02125563485920751,0.010112163341761444,0.005152249488431391,0.0070383974097490325,-0.0016301223275871361
1.5080099213517784,0.023737553869918368,0.00971489383202653,0.0057615299185219465,0.003736427981084864,0.0011996183220397349
1.508081438506705,0.025680396681245936,0.011733161787816884,0.007453924502377228,0.0064545755405526406,0.00036727701394118805
1.5081529556616315,0.027059576075294776,0.014025909243917131,0.008842952470356694,0.014124106436120804,-0.0042922237168592095
1.5082244728165581,0.028112039179855254,0.013890334866706232,0.008942296206187028,0.0225645328290096,-0.010396646638835983
1.5082959899714847,0.029172386947160022,0.012152153613305669,0.008780907310022895,0.029872254570323508,-0.015852208140840676
1.5083675071264113,0.03045818310099522,0.012383297433263116,0.010026451111954632,0.03585826925568634,-0.0193821737441131
1.508439024281338,0.03190386747651281,0.016638604934485466,0.012747040105629182,0.04093946625132904,-0.02124442633416218
1.5085105414362645,0.03314377564440417,0.022677998011316834,0.01600259242207933,0.04402693608292219,-0.021282400841976506
1.508582058591191,0.03366149064758627,0.027439676363410343,0.0186299276568245,0.04542343640847951,-0.020510921909423763
1.5086535757461177,0.03301661123576188,0.02697770453930918,0.017302793300784304,0.044487662092321426,-0.020731972352352527
1.5087250929010443,0.031031763736761156,0.02251978404665968,0.013978643770450466,0.03987505874182415,-0.01962452951963991
1.5087966100559709,0.02787943173947238,0.016724678142121866,0.009773118861112214,0.032534723910316046,-0.017123044683826926
1.5088681272108975,0.024071143965329337,0.011419523139015406,0.005405399448016361,0.026316063521324203,-0.015554122064085815
1.508939644365824,0.020368522042175177,0.007346648589363159,0.002619426200917792,0.0213278758503013,-0.013806675005119786
1.5090111615207507,0.017622660517009992,0.00554492312547557,0.001280243020763253,0.019039764233148525,-0.013047079836892555
1.5090826786756772,0.016549556574789192,0.005208216203604524,0.001094148915450876,0.01859146956248117,-0.012846225449167314
1.5091541958306038,0.01749078347259404,0.005316449622366465,0.001728275756159572,0.016216299229354865,-0.010676782204568098
1.5092257129855304,0.02026609634215111,0.005504079124221255,0.002622344403247119,0.01114332127910807,-0.00635753384456874
1.509297230140457,0.024225306810832306,0.008316299451016465,0.005090188490138515,0.005646530933334405,-0.0006548930279911568
1.5093687472953836,0.028505184243561566,0.016034230492205846,0.010396256019729185,0.0035324090112461375,0.00451136272905735
1.5094402644503102,0.032363241212534366,0.027302619052758766,0.017181792517199104,0.00751996969255822,0.006227419530409567
1.5095117816052368,0.035420479974014,0.04020727343721403,0.023785576506019895,0.017666513230115817,0.0033187222867675655
1.5095832987601634,0.03772295943106026,0.05031025760063485,0.028541189697550762,0.029952708426745193,-0.0024167605961533697
1.50965481591509,0.039632532833370364,0.05393618889568721,0.030196375009199177,0.04079634406378965,-0.009219585748938827
1.5097263330700166,0.041605230836871475,0.04966860953251722,0.028415936049993602,0.0468907919715963,-0.014898858649514818
1.5097978502249432,0.04392716574129624,0.042240474544906634,0.026087173799228647,0.04547909549800003,-0.015456926648285279
1.5098693673798698,0.04649881119729661,0.03771517166772047,0.025125670272120693,0.03983729189022567,-0.011983579870878244
1.5099408845347964,0.048782229516577,0.03754960367108218,0.025898717163670308,0.034330820037170265,-0.007425530021644466
1.510012401689723,0.04998265464348263,0.040160358669030505,0.027970420605425636,0.02990787455264512,-0.0027740428717212247
1.5100839188446495,0.04939582665258717,0.04057528925931292,0.02744804663090382,0.026532790083304215,-0.0006624624907893438
1.5101554359995761,0.046726633743720845,0.03815125909506347,0.024915387052692306,0.023301818802021007,-3.0008930594148857e-05
1.5102269531545027,0.04221494386441091,0.03539020997190017,0.022036546886626967,0.01971288341381258,0.0006279972710173871
1.5102984703094293,0.0365554045951188,0.034064288412286904,0.019143160662124768,0.02018529588879244,-0.0016932644140774545
1.510369987464356,0.030705701566729478,0.03458893275537897,0.01712115674686206,0.0231370616452202,-0.005232495609375529
1.5104415046192825,0.025671938650474672,0.03645731729617168,0.016152578444133103,0.028301513555116325,-0.009671289681006445
1.510513021774209,0.02230380117340663,0.03883844494304689,0.01595046449902194,0.03403696580688393,-0.014005566541888526
1.5105845389291357,0.02110478427342222,0.037570066234325475,0.014310671393420193,0.035096757002475526,-0.01590061448491029
1.5106560560840623,0.022087028251984653,0.0318428348534927,0.011927341615445858,0.029236253229276248,-0.01323948686891378
1.5107275732389889,0.02474352062355467,0.022362338688251514,0.008315005741078718,0.01848410785358354,-0.007840647596943171
1.5107990903939155,0.028206425428266402,0.014859057248794678,0.006455089330600415,0.00832986623393147,-0.0016853102582235773
1.510870607548842,0.03156791810921427,0.011098174700804328,0.006924877381908108,0.0029469488816496973,0.0025705822308927898
1.5109421247037687,0.034217944840168574,0.011218000454709899,0.0085255112555674,0.00583783637695906,0.0015493914387755573
1.5110136418586952,0.036025983655989566,0.015110524093307537,0.01161661354179527,0.015717554366814976,-0.00356438625329842
1.5110851590136218,0.03729532439305516,0.017650197556129302,0.013294021431409462,0.02838948822666564,-0.011687142026261664
1.5111566761685484,0.03854470610167679,0.017029726534345115,0.013163190298163863,0.04099191023973779,-0.020998756803430423
1.511228193323475,0.04022460916569971,0.015923998074097404,0.013651672900344249,0.048289854807797135,-0.02600918789479919
1.5112997104784016,0.04246467581659284,0.016769246063879372,0.01442102957265151,0.05077044471791937,-0.027301063772273537
1.5113712276333282,0.04493429586497486,0.02146214488982453,0.016921655013448497,0.05049946148027929,-0.025395313618478292
1.5114427447882548,0.04689231770787431,0.02678689122852827,0.019784155718843215,0.047377549876572105,-0.021153702978438247
1.5115142619431814,0.047454803887083834,0.028899008782857283,0.02007376929597759,0.04310019958323724,-0.017823658713753993
1.511585779098108,0.04599085839647899,0.025548174608093138,0.017243949592298295,0.03752332590122413,-0.015673783891423473
