freq,gls,usurper,pdc_unbiased,shape_periodogram,shift_periodogram
1.5,0.031605246424144244,0.038043933833455154,0.022003088454338578,0.02198939993357379,0.019969040475279965
1.5000715171549266,0.028595336453250155,0.03464749904382659,0.01679692217781675,0.019472778351849112,0.015004357219838454
1.5001430343098532,0.024797888546036324,0.031059739652774226,0.011419584810450916,0.017819480673168357,0.009793441528362921
1.5002145514647798,0.020789812632417533,0.03016721134893068,0.008796510756732951,0.017773463412084845,0.00718428490428627
1.5002860686197064,0.017345459787468324,0.03199762536221617,0.009479677332466734,0.019896782502963634,0.0076765747270110055
1.500357585774633,0.015271945925960987,0.03456863622355834,0.011714688134418397,0.022114509307342028,0.00970675898952667
1.5004291029295596,0.015165201318802408,0.03729287992341243,0.01415548030345099,0.025954907342691857,0.011798625669636686
1.5005006200844861,0.01716595655706576,0.04044142371336223,0.016954003693511403,0.028730614071028643,0.014341839216971873
1.5005721372394127,0.02086274426290797,0.04372093511237062,0.019187221778694714,0.02990622308987578,0.016463584159725247
1.5006436543943393,0.02544081002802935,0.04698313372279765,0.02137618975240262,0.031055146338769244,0.018543815932668337
1.500715171549266,0.03000884122307953,0.05103139434624345,0.02421994995090846,0.030806057193470536,0.021400174150927292
1.5007866887041925,0.03391266896856934,0.05477209494257976,0.02666061786266369,0.0305593344953971,0.02385457071892025
1.500858205859119,0.0368882624749449,0.058488149614766435,0.029368029530911475,0.030013791828811344,0.026601136302504984
1.5009297230140457,0.0390355018056212,0.06087117621391818,0.03287087235373193,0.029004929145696665,0.030181202594158466
1.5010012401689723,0.04067274274449097,0.059581065846664415,0.0349635290275476,0.02745243122958796,0.03240333802445748
1.5010727573238989,0.04213722341942038,0.056508715758707785,0.036798409825528795,0.02508641875669521,0.03443987306114459
1.5011442744788255,0.043587855733941964,0.05330251174253546,0.03793328428010061,0.0232289741779451,0.035734031675323415
1.501215791633752,0.044880915226329254,0.050241353937629525,0.03824814004694497,0.022482363160290925,0.036113395205776326
1.5012873087886787,0.045592465454410994,0.04972841423251941,0.03896037083855539,0.024813611381115024,0.0366184693817157
1.5013588259436053,0.04519857422015515,0.04912444758026901,0.038338310339186395,0.02408624098222303,0.03606237606013445
1.5014303430985318,0.04331902735671992,0.04650724149178463,0.03525172960142179,0.02075999547745719,0.03327893087245582
1.5015018602534584,0.03989064242203222,0.04148866397809976,0.029380562295107576,0.016240200034129588,0.02782740593200195
1.501573377408385,0.035207008956161204,0.03551988023216916,0.02275340008029923,0.012149053041003798,0.021586740772826296
1.5016448945633116,0.029854908046904056,0.029974857980696053,0.01716592382272006,0.008998736255352614,0.016299763391574303
1.5017164117182382,0.02460404968418353,0.02441881056731867,0.01272729457488559,0.006824184587342706,0.012071250057272715
1.5017879288731648,0.020274028275387688,0.019537594013356627,0.010756457121333964,0.005956200537907675,0.01018514624625748
1.5018594460280914,0.01756978332877583,0.016639301662475018,0.009814843547662735,0.005729575697009333,0.009267337691692362
1.501930963183018,0.016887968997375314,0.015369025356520896,0.009773529530205848,0.00617759667414099,0.00918641872134439
1.5020024803379446,0.018154766828972088,0.014127671608886642,0.009545857603491862,0.005733908270641668,0.008999021888398824
1.5020739974928712,0.020807783027131654,0.01469887418997252,0.00997328939183271,0.006204422679732291,0.009383015107417122
1.5021455146477978,0.023992628107040868,0.018703768188678003,0.01144212206274167,0.007512788451762768,0.010729994618226643
1.5022170318027244,0.026898257150269028,0.02457099266032601,0.014028974316248104,0.00901673735219381,0.013173368371461353
1.502288548957651,0.029041972437567,0.031132154592926235,0.016679671046279716,0.008949800504269668,0.015819730699207675
1.5023600661125776,0.03036170293294545,0.03684054861948288,0.019990738498687276,0.007745966704631367,0.019224679466436315
1.5024315832675041,0.031115659296329378,0.038369352928869206,0.02077896981185265,0.006716735739293801,0.020101075128425648
1.5025031004224307,0.031680428730509906,0.03657325747988875,0.019519808615351825,0.006019302680278407,0.018908646940423043
1.5025746175773573,0.032340192227813126,0.03325010262534296,0.018649627815208736,0.0049312071753405415,0.018138357641889362
1.502646134732284,0.033131945974426154,0.03071512810420572,0.017871043624403338,0.00371213091977834,0.017470965798286782
1.5027176518872105,0.033797027787609374,0.031041284498960566,0.01799769758677829,0.005876941210904283,0.01740509915126637
1.502789169042137,0.033871437590867574,0.030646663071906645,0.017486670760106647,0.008463564735988237,0.016666710829276406
1.5028606861970637,0.03289397904446062,0.02906835575771275,0.015274482970942199,0.009356909646415699,0.014383886625600759
1.5029322033519903,0.030638444170610023,0.02797604506967697,0.012011118949132128,0.009234488605146573,0.011144025859780719
1.5030037205069169,0.02725242384486997,0.028423703457357754,0.009441040885373031,0.009415725194594398,0.008567846604595706
1.5030752376618435,0.023245599290448483,0.030427288099660454,0.008606550278537486,0.011157570104701451,0.007582020821451883
1.50314675481677,0.019358366958489085,0.033326235815665094,0.008953985446160287,0.0140947283920699,0.007667509296041999
1.5032182719716967,0.01638051368297583,0.03516557450840496,0.010426555451109277,0.016877236511053734,0.00888768542346233
1.5032897891266233,0.01497089818834955,0.03655642538560009,0.012350463029946239,0.018960701843839616,0.01061969172359191
1.5033613062815498,0.015499460648454992,0.037401071770195984,0.013981854206916533,0.021687665927844373,0.012003480817034064
1.5034328234364764,0.01793079665045714,0.03586806442639718,0.01416864675154985,0.021085310844603654,0.01224294078358335
1.503504340591403,0.021792554285279486,0.03286872823317301,0.013806564009865633,0.020716144821748227,0.011914881810917393
1.5035758577463296,0.026283745634476982,0.03271831046478204,0.015751292513310384,0.020814937759963993,0.013843745003584063
1.5036473749012562,0.03053094650102892,0.035066208792743775,0.019003856556851165,0.022322677860919918,0.016951114036170396
1.5037188920561828,0.03389868374654469,0.04056219007531219,0.02304438568669538,0.02410537081080096,0.020819749153235083
1.5037904092111094,0.03619247413189749,0.04730212597838938,0.02836367437687625,0.024366452247664993,0.026097416947474233
1.503861926366036,0.03764566473947448,0.05143398338862684,0.03246316988130233,0.02308399063439916,0.03029560879969129
1.5039334435209626,0.038716510453014726,0.05261767510075112,0.03408384953452373,0.0218174698420814,0.03202209853736741
1.5040049606758892,0.0398171228344044,0.05221630287193958,0.03557140334761458,0.020267707254600108,0.0336407983594644
1.5040764778308158,0.041095739566223526,0.05407765120420438,0.037525773851031737,0.01947002077587587,0.03565841626394726
1.5041479949857424,0.04234364882306056,0.05747248377766019,0.038887791087543686,0.021005536581309787,0.036880595849850394
1.504219512140669,0.043051695709888996,0.05949184511682563,0.03921573232033744,0.021720264306163323,0.037144585763184176
1.5042910292955955,0.04260283060723393,0.056293996220777555,0.036347749549566495,0.01892308114819603,0.034532731797327416
1.5043625464505221,0.04053910287302065,0.04831977570807944,0.030363706364527798,0.015239517827511685,0.028895258366057185
1.5044340636054487,0.03679439695722014,0.03791258838396857,0.02344001313236871,0.010647071834293635,0.02240368558838737
1.5045055807603753,0.03178229372791513,0.028363642176354845,0.01698689592080203,0.006894201348944899,0.01630802652008152
1.504577097915302,0.026296542555493532,0.021404144161052432,0.012446934359831944,0.004250279316633403,0.012020399582715042
1.5046486150702285,0.021278189004975218,0.017837376206395812,0.011187449324425095,0.002966979742936442,0.010879784032592155
1.504720132225155,0.017555651134353225,0.015829521159387225,0.011283372248322305,0.0027431677433252836,0.010995198945615646
1.5047916493800817,0.01564621916050789,0.01463888305850126,0.010644076718018416,0.0037666160826986925,0.010267561794487188
1.5048631665350083,0.015656872938766518,0.014194596521536375,0.009217644422453899,0.0035806004451193582,0.008863257454691692
1.5049346836899349,0.017286051262519187,0.014494279237566614,0.008230188330603324,0.0025621138302964444,0.00797012449055408
1.5050062008448615,0.019918755698584013,0.015812639928018454,0.007905738300784866,0.002240842112185462,0.007675482795765467
1.505077717999788,0.022804926807040774,0.01937541618774108,0.009361654152707073,0.0032330910587125773,0.009037553800250932
1.5051492351547147,0.025289013466251117,0.02551616161734259,0.011726326065843064,0.004425909024868596,0.011287033358247782
1.5052207523096413,0.027015644551186973,0.031318054918805835,0.014241445734319206,0.005394834689311797,0.0137063014601342
1.5052922694645678,0.028012475009877,0.03449121745879694,0.015961322224474977,0.004862709842031379,0.015466653591207588
1.5053637866194944,0.028596359216805502,0.0315129905206055,0.014919408532213189,0.0025927404854782445,0.014630269570479826
1.505435303774421,0.02915112616185344,0.024955931091679873,0.013309044659559194,-0.0008989187900728654,0.013336276991086348
1.5055068209293476,0.029900153036102176,0.0206274402208134,0.012321918805932341,-0.0030239121412847006,0.012541816624812475
1.5055783380842742,0.030782681811496897,0.020125055106399944,0.01250866989698158,-0.0025499119314823944,0.01268571860853161
1.5056498552392008,0.03146961942071043,0.022821641528392132,0.013496870470295333,0.0007281695422857147,0.013378870015238792
1.5057213723941274,0.03149161794629547,0.02460828034375026,0.013134126432083434,0.002487522776424509,0.01286135757479743
1.505792889549054,0.030427310908792447,0.025347884626911805,0.011855838401314541,0.0023471648145682767,0.011600566702302507
1.5058644067039806,0.02809465201809536,0.024546199279580152,0.009674998552531539,0.0012844696825086404,0.009522687927671464
1.5059359238589072,0.024683284499830333,0.022393008252000662,0.006168765257997816,0.0015385726046679015,0.006007731746015829
1.5060074410138338,0.020766913938386953,0.02088733800764226,0.003987129865862614,0.0033302010806640575,0.0036755885617834523
1.5060789581687604,0.017165658691511196,0.021100285970594837,0.004506773893992003,0.005740082941977462,0.003979171212929638
1.506150475323687,0.014695536880755058,0.02100440774316784,0.005603202541494299,0.007709027151579661,0.004896467473748604
1.5062219924786135,0.013907828977730352,0.020114984941122682,0.006474304461408025,0.00996030879650598,0.005564304668518031
1.5062935096335401,0.014929925183180436,0.018018057320175387,0.007024475314287043,0.011953357571555571,0.005935433607296394
1.5063650267884667,0.01746107614733839,0.014764488172289335,0.006681651925523114,0.013140326681575392,0.005488579427376475
1.5064365439433933,0.020900617081537138,0.013644050640127895,0.008103902228742074,0.014441929708734515,0.0067898687143703555
1.50650806109832,0.024545654709518663,0.015952329994034436,0.01119024144466396,0.01574576364508383,0.009748820578081652
1.5065795782532465,0.027795889555703463,0.02094087165865604,0.015188716512202768,0.017050921113552442,0.013616577940671734
1.506651095408173,0.030315638754338018,0.027769734021673705,0.02020329875354711,0.017468419259164054,0.018575528603429387
1.5067226125630997,0.03210575674634778,0.03431365593024446,0.02516307524326057,0.017220365608367455,0.023538902174749087
1.5067941297180263,0.03344435853615213,0.03698846663320543,0.02809340030703321,0.01661282118596159,0.026512090209814303
1.5068656468729529,0.03469846610783441,0.0363582187070918,0.028836225363534616,0.015536806987134196,0.027347189884929693
1.5069371640278795,0.03608805388876267,0.0348160193033505,0.029158238083419115,0.013988960695860087,0.0278047207156723
1.507008681182806,0.03753193323000867,0.03463943227535423,0.029645090979329304,0.01338815860850402,0.02834282812903333
1.5070801983377327,0.038657419159163646,0.035314499494379155,0.03000532215028713,0.01398210609566065,0.028649243644554095
1.5071517154926592,0.038950459296790155,0.03435055479942649,0.029635790998015537,0.013516687997640746,0.02832220795181414
1.5072232326475858,0.03795818995272562,0.030394103608143618,0.026170643808596194,0.010682501476934914,0.025120748484029298
1.5072947498025124,0.035465807062779846,0.02591953635384093,0.02167628316777021,0.006832538391858746,0.020984636553713864
1.507366266957439,0.03160750390290827,0.02312623231589205,0.01779655130545853,0.003669583440119297,0.017400540748112155
1.5074377841123656,0.02689036393457737,0.020830303089649633,0.014369878001425985,0.0021123560329947325,0.014125544553392044
1.5075093012672922,0.022110982309926926,0.017862029243018468,0.012274203971852665,0.0019105601452201664,0.012056045776123955
1.5075808184222188,0.018158898886019043,0.01607979877824938,0.010838451012952628,0.002732889429100161,0.010552943104086727
1.5076523355771454,0.015750547010193554,0.01562860551744527,0.009985828883372298,0.0026014679660610954,0.00971534925706884
1.507723852732072,0.015198153002695225,0.014396629827503551,0.008495434228764531,0.002279085983228454,0.008259456536645678
1.5077953698869986,0.01632710132796861,0.012645866953876473,0.006411917338543193,0.0013985864752579151,0.006262356089214795
1.5078668870419252,0.01858159605132472,0.01150754523114891,0.00521914285473996,0.000666304943720654,0.005139331434641042
1.5079384041968518,0.02125563485920751,0.01168742322909581,0.005152249488431391,-0.00028581349759631387,0.005157270896173812
1.5080099213517784,0.023737553869918368,0.013448067733258672,0.0057615299185219465,-0.0006509380134735422,0.005796574798686288
1.508081438506705,0.025680396681245936,0.01622604437574122,0.007453924502377228,-0.002199307287153206,0.007619819249686814
1.5081529556616315,0.027059576075294776,0.017995638474656243,0.008842952470356694,-0.003549214620319999,0.009123281995780325
1.5082244728165581,0.028112039179855254,0.016605818932333982,0.008942296206187028,-0.005465616206129023,0.00939251901677226
1.5082959899714847,0.029172386947160022,0.013206645621626073,0.008780907310022895,-0.006875296910469908,0.009357050771793347
1.5083675071264113,0.03045818310099522,0.011499665103208169,0.010026451111954632,-0.0069085109050973535,0.010600632043920588
1.508439024281338,0.03190386747651281,0.014734673801208636,0.012747040105629182,-0.00485405572587308,0.013127873851893661
1.5085105414362645,0.03314377564440417,0.020029851827856517,0.01600259242207933,-0.0004979531469601954,0.01598356920543955
1.508582058591191,0.03366149064758627,0.023713702586653933,0.0186299276568245,0.002357172753433938,0.0183470921139978
1.5086535757461177,0.03301661123576188,0.023742658675155074,0.017302793300784304,0.0021412494521204422,0.0170443432058521
1.5087250929010443,0.031031763736761156,0.02064574935512933,0.013978643770450466,0.0004628129910135549,0.013882302953395468
1.5087966100559709,0.02787943173947238,0.01649103987642976,0.009773118861112214,-0.0016427454374507747,0.009880401615315396
1.5088681272108975,0.024071143965329337,0.012274097064399149,0.005405399448016361,-0.0027012259939484147,0.005623981786671592
1.508939644365824,0.020368522042175177,0.007436651215564786,0.002619426200917792,-0.0037155899854111603,0.0029391290829793343
1.5090111615207507,0.017622660517009992,0.003044310300001777,0.001280243020763253,-0.0035357726744951316,0.0015892594654855585
1.5090826786756772,0.016549556574789192,-0.0005081451570962535,0.001094148915450876,-0.002258361343469809,0.0012904276925931673
1.5091541958306038,0.01749078347259404,-0.0024158794256155646,0.001728275756159572,-1.9724132437634603e-05,0.0017231962030261091
1.5092257129855304,0.02026609634215111,-0.002226583172373247,0.002622344403247119,0.001786521865175398,0.0024532948925715145
1.509297230140457,0.024225306810832306,0.0005372569276023951,0.005090188490138515,0.003741570140967448,0.0047377653256707635
1.5093687472953836,0.028505184243561566,0.0072505427436613135,0.010396256019729185,0.007022903057102658,0.009731684775870506
1.5094402644503102,0.032363241212534366,0.017309556629063794,0.017181792517199104,0.011723235430850484,0.0160741037793881
1.5095117816052368,0.035420479974014,0.028251062583128202,0.023785576506019895,0.015127610420662857,0.0223515106967232
1.5095832987601634,0.03772295943106026,0.03647969885423628,0.028541189697550762,0.016877791693822922,0.02693483506280335
1.50965481591509,0.039632532833370364,0.038637575610640074,0.030196375009199177,0.01712614457782441,0.02856202443379977
1.5097263330700166,0.041605230836871475,0.03287387918616324,0.028415936049993602,0.01583358746068455,0.026902248055737134
1.5097978502249432,0.04392716574129624,0.023647286359010256,0.026087173799228647,0.012161322749292092,0.024906775244867712
1.5098693673798698,0.04649881119729661,0.016984003085490463,0.025125670272120693,0.010010755869688004,0.02413921595705391
1.5099408845347964,0.048782229516577,0.015115901209492438,0.025898717163670308,0.011124558071695972,0.02481074703422444
1.510012401689723,0.04998265464348263,0.017056828506907696,0.027970420605425636,0.012328496524090463,0.02676811319542159
1.5100839188446495,0.04939582665258717,0.018379894339479688,0.02744804663090382,0.012352705575346883,0.02624557315832685
1.5101554359995761,0.046726633743720845,0.018174962093613276,0.024915387052692306,0.01053773308821063,0.023883096070715405
1.5102269531545027,0.04221494386441091,0.01859145971619186,0.022036546886626967,0.008661239005458697,0.021181471025962805
1.5102984703094293,0.0365554045951188,0.02113977941252892,0.019143160662124768,0.006905689203538506,0.018454878540240815
1.510369987464356,0.030705701566729478,0.02526336975024203,0.01712115674686206,0.006769867324598075,0.016452790255121277
1.5104415046192825,0.025671938650474672,0.029144847835594914,0.016152578444133103,0.006677608189827557,0.015496169633049192
1.510513021774209,0.02230380117340663,0.03332450578117174,0.01595046449902194,0.007692396163479803,0.015204844748773151
1.5105845389291357,0.02110478427342222,0.03513329858500323,0.014310671393420193,0.008685992910923816,0.013483305651840359
1.5106560560840623,0.022087028251984653,0.032949257916365056,0.011927341615445858,0.008167154443569082,0.011155263402513273
1.5107275732389889,0.02474352062355467,0.02742528496712102,0.008315005741078718,0.00669161994311456,0.00768798028392947
1.5107990903939155,0.028206425428266402,0.0229105751974349,0.006455089330600415,0.004691796419358527,0.00601291204394745
1.510870607548842,0.03156791810921427,0.021304382404919893,0.006924877381908108,0.0038022011918847774,0.006559842387311451
1.5109421247037687,0.034217944840168574,0.022302785136931458,0.0085255112555674,0.0029363609601811445,0.00823105184446913
1.5110136418586952,0.036025983655989566,0.025923644655352483,0.01161661354179527,0.0012660009910745154,0.011458279127380532
1.5110851590136218,0.03729532439305516,0.027610090143163082,0.013294021431409462,0.00017040817385823923,0.013226349181684208
1.5111566761685484,0.03854470610167679,0.025651814152968667,0.013163190298163863,-0.0008482990071555596,0.01318650350976296
1.511228193323475,0.04022460916569971,0.022095740594292215,0.013651672900344249,-0.0015512581110769053,0.013735489924406766
1.5112997104784016,0.04246467581659284,0.020430753554588163,0.01442102957265151,-0.001154614476572454,0.01446657478964776
1.5113712276333282,0.04493429586497486,0.022852803022129827,0.016921655013448497,0.0009599978928623015,0.016769556875612514
1.5114427447882548,0.04689231770787431,0.025826490555627378,0.019784155718843215,0.00367302550550445,0.01938004067981411
1.5115142619431814,0.047454803887083834,0.026209118701641467,0.02007376929597759,0.005410926849607589,0.019514389545238618
1.511585779098108,0.04599085839647899,0.022814676581487447,0.017243949592298295,0.004958076952716309,0.016735797460901487
