freq,gls,usurper,pdc_unbiased,shape_periodogram,shift_periodogram
1.5,0.031605246424144244,0.030559005455241074,0.022003088454338578,0.038037278763602723,-0.010966849371835195
1.5000715171549266,0.028595336453250155,0.02403543294689655,0.01679692217781675,0.030954437643113956,-0.009715486128822202
1.5001430343098532,0.024797888546036324,0.01834651139059725,0.011419584810450916,0.02518564961817555,-0.009507691942383406
1.5002145514647798,0.020789812632417533,0.0163300603804664,0.008796510756732951,0.019892592884135682,-0.007668116606498043
1.5002860686197064,0.017345459787468324,0.0185752657423303,0.009479677332466734,0.017003398984332778,-0.005155242425174985
1.500357585774633,0.015271945925960987,0.022628320767988354,0.011714688134418397,0.016329517032313313,-0.0030881487729611024
1.5004291029295596,0.015165201318802408,0.027560829693033164,0.01415548030345099,0.020314118993650772,-0.004139695765013791
1.5005006200844861,0.01716595655706576,0.03222932651816914,0.016954003693511403,0.022909152642206856,-0.003961671902840883
1.5005721372394127,0.02086274426290797,0.03591574795665162,0.019187221778694714,0.024430937300416313,-0.0034344517044958556
1.5006436543943393,0.02544081002802935,0.03920607009681158,0.02137618975240262,0.025909648764273582,-0.0029083874697861346
1.500715171549266,0.03000884122307953,0.042840131776071926,0.02421994995090846,0.027017690671053435,-0.0016545289460573587
1.5007866887041925,0.03391266896856934,0.047059139295165225,0.02666061786266369,0.03253363392109797,-0.0037790991850169377
1.500858205859119,0.0368882624749449,0.05191588270125308,0.029368029530911475,0.04091797304903255,-0.007726020958930339
1.5009297230140457,0.0390355018056212,0.05737652323517521,0.03287087235373193,0.0522708010924455,-0.013191036107371367
1.5010012401689723,0.04067274274449097,0.05972558052097138,0.0349635290275476,0.0624225745608167,-0.01882710246636723
1.5010727573238989,0.04213722341942038,0.060536813474408695,0.036798409825528795,0.0694829544954786,-0.02247926811683316
1.5011442744788255,0.043587855733941964,0.061001705308240284,0.03793328428010061,0.07594129447451212,-0.026212422589829594
1.501215791633752,0.044880915226329254,0.06087002091476413,0.03824814004694497,0.08060681683896156,-0.02927320589177325
1.5012873087886787,0.045592465454410994,0.061898298897532136,0.03896037083855539,0.08414756776943161,-0.031258448630097434
1.5013588259436053,0.04519857422015515,0.06129858368611056,0.038338310339186395,0.08474505217618053,-0.03212531183134549
1.5014303430985318,0.04331902735671992,0.05776910703713214,0.03525172960142179,0.08401215294981836,-0.0338190658847159
1.5015018602534584,0.03989064242203222,0.050143029881780425,0.029380562295107576,0.07997805323423902,-0.03517701771493448
1.501573377408385,0.035207008956161204,0.041215584334231094,0.02275340008029923,0.0748773605643002,-0.0363213476908574
1.5016448945633116,0.029854908046904056,0.03299666704994044,0.01716592382272006,0.067258407125831,-0.034949386763018425
1.5017164117182382,0.02460404968418353,0.026012934295214604,0.01272729457488559,0.058691797054459906,-0.0320936611516059
1.5017879288731648,0.020274028275387688,0.02171908626317426,0.010756457121333964,0.050841306374371516,-0.027984190503936014
1.5018594460280914,0.01756978332877583,0.019430627807557284,0.009814843547662735,0.04618975912054478,-0.025389606068612118
1.501930963183018,0.016887968997375314,0.018490707345792123,0.009773529530205848,0.0403747187300637,-0.02133723807391373
1.5020024803379446,0.018154766828972088,0.01721077239843628,0.009545857603491862,0.03397047220354177,-0.017006065385558967
1.5020739974928712,0.020807783027131654,0.017207669144946376,0.00997328939183271,0.028341832561378476,-0.012753033377709637
1.5021455146477978,0.023992628107040868,0.019212244985428728,0.01144212206274167,0.025560764567394954,-0.009754648543138457
1.5022170318027244,0.026898257150269028,0.02334603141690875,0.014028974316248104,0.027362347471029363,-0.009171934119889775
1.502288548957651,0.029041972437567,0.027939360481599146,0.016679671046279716,0.03194188684122112,-0.01049178953565541
1.5023600661125776,0.03036170293294545,0.033150391345784555,0.019990738498687276,0.03914773994032859,-0.013183177690672065
1.5024315832675041,0.031115659296329378,0.03428316571717857,0.02077896981185265,0.0463730643832554,-0.017691740944894025
1.5025031004224307,0.031680428730509906,0.03205222684455341,0.019519808615351825,0.0506720181326513,-0.021609831212666412
1.5025746175773573,0.032340192227813126,0.02889724198513368,0.018649627815208736,0.051519453477186374,-0.022826455519555783
1.502646134732284,0.033131945974426154,0.02645993054126046,0.017871043624403338,0.0494784712127297,-0.02194891305396501
1.5027176518872105,0.033797027787609374,0.026090524701462007,0.01799769758677829,0.0477039660176619,-0.02061235658057466
1.502789169042137,0.033871437590867574,0.024957105708863322,0.017486670760106647,0.04467107643335338,-0.01884782948913258
1.5028606861970637,0.03289397904446062,0.02194960727188503,0.015274482970942199,0.04078679309570988,-0.017700633042442578
1.5029322033519903,0.030638444170610023,0.018261994136096693,0.012011118949132128,0.037323075478123864,-0.017599112340924462
1.5030037205069169,0.02725242384486997,0.016111976443303335,0.009441040885373031,0.03462657048031258,-0.01754113248687149
1.5030752376618435,0.023245599290448483,0.01712214010400698,0.008606550278537486,0.03334753013504317,-0.017239247271854483
1.50314675481677,0.019358366958489085,0.019972805695786557,0.008953985446160287,0.03283778907121261,-0.016633781185966753
1.5032182719716967,0.01638051368297583,0.023772887781919036,0.010426555451109277,0.032711716522860396,-0.015494639310876291
1.5032897891266233,0.01497089818834955,0.02748656890081168,0.012350463029946239,0.03309297219875244,-0.014389191707480141
1.5033613062815498,0.015499460648454992,0.03042456587802361,0.013981854206916533,0.03230848250681593,-0.012674599709961668
1.5034328234364764,0.01793079665045714,0.030609610486721454,0.01416864675154985,0.02813999342001447,-0.009617602597353342
1.503504340591403,0.021792554285279486,0.029651019709208463,0.013806564009865633,0.021990796612355624,-0.005564192627701519
1.5035758577463296,0.026283745634476982,0.0318275975817034,0.015751292513310384,0.019142146112507218,-0.002179204543904923
1.5036473749012562,0.03053094650102892,0.03666212360888874,0.019003856556851165,0.022402897442191576,-0.0021434979540347764
1.5037188920561828,0.03389868374654469,0.043425445674004914,0.02304438568669538,0.031086508126501478,-0.005347306255341952
1.5037904092111094,0.03619247413189749,0.05214451081461883,0.02836367437687625,0.043637315328650644,-0.01035224879102889
1.503861926366036,0.03764566473947448,0.05901618603856611,0.03246316988130233,0.057273843046955035,-0.01699725973951016
1.5039334435209626,0.038716510453014726,0.06259444805058285,0.03408384953452373,0.070025583684721,-0.02480416011057896
1.5040049606758892,0.0398171228344044,0.06461666029237019,0.03557140334761458,0.07978745193772281,-0.030612749030216456
1.5040764778308158,0.041095739566223526,0.06805733612645283,0.037525773851031737,0.08718069147350986,-0.034424869285539124
1.5041479949857424,0.04234364882306056,0.07127821006860195,0.038887791087543686,0.09236221604229451,-0.037105076847603544
1.504219512140669,0.043051695709888996,0.07267813796630045,0.03921573232033744,0.09501065830919753,-0.03873990685111146
1.5042910292955955,0.04260283060723393,0.0685991394226201,0.036347749549566495,0.09413448451550446,-0.040175795296047194
1.5043625464505221,0.04053910287302065,0.05863238730334687,0.030363706364527798,0.08851959074230119,-0.040496003371649075
1.5044340636054487,0.03679439695722014,0.04607401665932933,0.02344001313236871,0.07853195398441971,-0.038404801006464186
1.5045055807603753,0.03178229372791513,0.034950408302185244,0.01698689592080203,0.06955866410802465,-0.036695664020827294
1.504577097915302,0.026296542555493532,0.02711066594528189,0.012446934359831944,0.06126554535718213,-0.03410294039181687
1.5046486150702285,0.021278189004975218,0.024019608144692495,0.011187449324425095,0.05473397094394087,-0.03041116886230766
1.504720132225155,0.017555651134353225,0.0228296973031926,0.011283372248322305,0.05012586767821177,-0.027105736688799592
1.5047916493800817,0.01564621916050789,0.02131553263827006,0.010644076718018416,0.04670343553763214,-0.025158598532838496
1.5048631665350083,0.015656872938766518,0.01873809214651494,0.009217644422453899,0.04108652166753125,-0.02223341440749925
1.5049346836899349,0.017286051262519187,0.016776822852400224,0.008230188330603324,0.033681285172246674,-0.017741897847682656
1.5050062008448615,0.019918755698584013,0.0160747626044116,0.007905738300784866,0.026839041581612058,-0.01317430217021729
1.505077717999788,0.022804926807040774,0.017679185721871125,0.009361654152707073,0.021423144253815096,-0.008337961731635285
1.5051492351547147,0.025289013466251117,0.022045236179001247,0.011726326065843064,0.023524472767233944,-0.008124006246286793
1.5052207523096413,0.027015644551186973,0.026744691845295154,0.014241445734319206,0.029351397765680343,-0.01041522882546803
1.5052922694645678,0.028012475009877,0.029381873300936043,0.015961322224474977,0.034637827748465924,-0.01289573710085753
1.5053637866194944,0.028596359216805502,0.026861173379377802,0.014919408532213189,0.037816307998619424,-0.015869532383144883
1.505435303774421,0.02915112616185344,0.021505065550016886,0.013309044659559194,0.03819407025363903,-0.017283995473923067
1.5055068209293476,0.029900153036102176,0.017646360643557048,0.012321918805932341,0.03780103277903233,-0.017712686765741028
1.5055783380842742,0.030782681811496897,0.01712536371117818,0.01250866989698158,0.0373122532758716,-0.017236445001380177
1.5056498552392008,0.03146961942071043,0.019271895924786706,0.013496870470295333,0.03823633258520448,-0.017179598986829796
1.5057213723941274,0.03149161794629547,0.02034712386840981,0.013134126432083434,0.03916615899755297,-0.018090977520659503
1.505792889549054,0.030427310908792447,0.019909767102929223,0.011855838401314541,0.03886724151371813,-0.018793471796463856
1.5058644067039806,0.02809465201809536,0.01793467104969585,0.009674998552531539,0.03608092070911981,-0.01839455027810329
1.5059359238589072,0.024683284499830333,0.014473801764684794,0.006168765257997816,0.032934523546213935,-0.018688679601503885
1.5060074410138338,0.020766913938386953,0.012291703940084983,0.003987129865862614,0.02947685536834963,-0.0178196580764926
1.5060789581687604,0.017165658691511196,0.013314505962002334,0.004506773893992003,0.026460354726955508,-0.015333521418179927
1.506150475323687,0.014695536880755058,0.015499456895168452,0.005603202541494299,0.02530685286599735,-0.013742504850938201
1.5062219924786135,0.013907828977730352,0.01722727703462738,0.006474304461408025,0.024372117076326572,-0.012465627368614507
1.5062935096335401,0.014929925183180436,0.017318280061593364,0.007024475314287043,0.02060623829770922,-0.009432694786493582
1.5063650267884667,0.01746107614733839,0.015903473878744745,0.006681651925523114,0.01559531726742874,-0.00616440159911788
1.5064365439433933,0.020900617081537138,0.016870610505149368,0.008103902228742074,0.01144156517005163,-0.0022381686293711234
1.50650806109832,0.024545654709518663,0.02042544731941235,0.01119024144466396,0.008573125731585187,0.001974209469456597
1.5065795782532465,0.027795889555703463,0.027057213703618015,0.015188716512202768,0.012457584868468513,0.0021047812281107152
1.506651095408173,0.030315638754338018,0.03593768027397558,0.02020329875354711,0.020387371237102454,0.0001257080348336826
1.5067226125630997,0.03210575674634778,0.04508287238642623,0.02516307524326057,0.03126267258656112,-0.00395756583192724
1.5067941297180263,0.03344435853615213,0.05059147110264221,0.02809340030703321,0.04208068402957879,-0.009452949445997002
1.5068656468729529,0.03469846610783441,0.05156333472196466,0.028836225363534616,0.049228397128169496,-0.013939504866586575
1.5069371640278795,0.03608805388876267,0.05101702049056667,0.029158238083419115,0.0535000533438244,-0.016709358443660508
1.507008681182806,0.03753193323000867,0.05111564590676075,0.029645090979329304,0.056884063760251416,-0.01873876694485105
1.5070801983377327,0.038657419159163646,0.05134148237536126,0.03000532215028713,0.05747713905858389,-0.01889793886384695
1.5071517154926592,0.038950459296790155,0.0503250909083174,0.029635790998015537,0.056056344808894536,-0.0181638152900127
1.5072232326475858,0.03795818995272562,0.045254510682969006,0.026170643808596194,0.0530530705852306,-0.018530940703194138
1.5072947498025124,0.035465807062779846,0.03865844168387846,0.02167628316777021,0.04813682235200256,-0.01828925289791564
1.507366266957439,0.03160750390290827,0.033197106155907936,0.01779655130545853,0.043157712428903774,-0.017564233960412127
1.5074377841123656,0.02689036393457737,0.02850099072668696,0.014369878001425985,0.03901169743250846,-0.017100596104790502
1.5075093012672922,0.022110982309926926,0.024481947642923205,0.012274203971852665,0.03487186199920785,-0.01569155401811428
1.5075808184222188,0.018158898886019043,0.02189143192792101,0.010838451012952628,0.03314439188857067,-0.015504243197334237
1.5076523355771454,0.015750547010193554,0.02020777307639232,0.009985828883372298,0.03183970258384377,-0.015197430787885541
1.507723852732072,0.015198153002695225,0.01696570046243316,0.008495434228764531,0.027768007795493765,-0.013405051104319067
1.5077953698869986,0.01632710132796861,0.012676954848884826,0.006411917338543193,0.020840436060764782,-0.010033896097835712
1.5078668870419252,0.01858159605132472,0.009426404935280993,0.00521914285473996,0.01350437975732929,-0.005742044095168091
1.5079384041968518,0.02125563485920751,0.007397844825035476,0.005152249488431391,0.006316662636574338,-0.0007518432431897781
1.5080099213517784,0.023737553869918368,0.007068095946631826,0.0057615299185219465,0.002907698560612466,0.0020719699485450124
1.508081438506705,0.025680396681245936,0.00897974643106844,0.007453924502377228,0.0028716169984305527,0.0033045298746022683
1.5081529556616315,0.027059576075294776,0.01093810590398787,0.008842952470356694,0.00550187779715683,0.002452054419439761
1.5082244728165581,0.028112039179855254,0.010507324897952272,0.008942296206187028,0.008120080927722866,0.0006879534263172189
1.5082959899714847,0.029172386947160022,0.008830201319924659,0.008780907310022895,0.010234861937969788,-0.0009093923087848373
1.5083675071264113,0.03045818310099522,0.0090742958881081,0.010026451111954632,0.012797778284898965,-0.0018171317273479937
1.508439024281338,0.03190386747651281,0.0129715972832095,0.012747040105629182,0.01676605997167333,-0.002657514557930716
1.5085105414362645,0.03314377564440417,0.018672687598678853,0.01600259242207933,0.021239593182615184,-0.0034702435793177986
1.508582058591191,0.03366149064758627,0.02349118419239687,0.0186299276568245,0.02456209449519608,-0.003924258535065686
1.5086535757461177,0.03301661123576188,0.023370900481435055,0.017302793300784304,0.02532417291805221,-0.005405978010798133
1.5087250929010443,0.031031763736761156,0.01953773496005465,0.013978643770450466,0.023335940790643498,-0.006384502948554941
1.5087966100559709,0.02787943173947238,0.014436051080988542,0.009773118861112214,0.018827359167960016,-0.00622452524422139
1.5088681272108975,0.024071143965329337,0.009643421428783895,0.005405399448016361,0.015247046139568832,-0.006830731544802683
1.508939644365824,0.020368522042175177,0.005920085416360296,0.002619426200917792,0.01154158545673027,-0.0062207340510544475
1.5090111615207507,0.017622660517009992,0.00417444468182509,0.001280243020763253,0.009726526593554916,-0.005903792261411838
1.5090826786756772,0.016549556574789192,0.003606708402413114,0.001094148915450876,0.009741909373544291,-0.006047316281237235
1.5091541958306038,0.01749078347259404,0.0035600635185352924,0.001728275756159572,0.008277969514124508,-0.004568917787095004
1.5092257129855304,0.02026609634215111,0.003918860347904765,0.002622344403247119,0.004698295168075714,-0.0014222596272455421
1.509297230140457,0.024225306810832306,0.0069877877798881285,0.005090188490138515,0.001338437849771075,0.0026928775619073026
1.5093687472953836,0.028505184243561566,0.014390888696626374,0.010396256019729185,0.0008580953329422516,0.006814599802821173
1.5094402644503102,0.032363241212534366,0.024787769407174143,0.017181792517199104,0.004747919952880824,0.0089299179540417
1.5095117816052368,0.035420479974014,0.036315864692620124,0.023785576506019895,0.012071039894832972,0.008511618964107803
1.5095832987601634,0.03772295943106026,0.044879031621492795,0.028541189697550762,0.01926149884094163,0.006868714119169435
1.50965481591509,0.039632532833370364,0.0475246854396863,0.030196375009199177,0.02478108815140534,0.004182640419574111
1.5097263330700166,0.041605230836871475,0.04333807531931661,0.028415936049993602,0.02661587300480146,0.0016244160161955686
1.5097978502249432,0.04392716574129624,0.03673440091275374,0.026087173799228647,0.023370668451732673,0.002235864178648146
1.5098693673798698,0.04649881119729661,0.03283789969167916,0.025125670272120693,0.01886989138600209,0.004703884698179617
1.5099408845347964,0.048782229516577,0.032941511689527844,0.025898717163670308,0.0171076333301485,0.0064909498399583765
1.510012401689723,0.04998265464348263,0.03566116211831599,0.027970420605425636,0.016845280520733148,0.008154268769162875
1.5100839188446495,0.04939582665258717,0.036002772082779876,0.02744804663090382,0.016406458584730648,0.00808871086514561
1.5101554359995761,0.046726633743720845,0.033566716789265164,0.024915387052692306,0.015062823872425942,0.007221771609188976
1.5102269531545027,0.04221494386441091,0.03075334809319467,0.022036546886626967,0.012931058860119598,0.006660389670332681
1.5102984703094293,0.0365554045951188,0.02909570499783937,0.019143160662124768,0.013516767909196063,0.004184636882562522
1.510369987464356,0.030705701566729478,0.02909416706658676,0.01712115674686206,0.015750575178969804,0.0011758474236605709
1.5104415046192825,0.025671938650474672,0.030313213330707866,0.016152578444133103,0.019004249048358502,-0.0017961364544950675
1.510513021774209,0.02230380117340663,0.032002446685832235,0.01595046449902194,0.02306051705681736,-0.004784089381321757
1.5105845389291357,0.02110478427342222,0.030611351742445083,0.014310671393420193,0.023843051186341373,-0.006503103873064507
1.5106560560840623,0.022087028251984653,0.02570005564241318,0.011927341615445858,0.018906781749765903,-0.004743100010134871
1.5107275732389889,0.02474352062355467,0.01782358397129016,0.008315005741078718,0.010498362793954748,-0.0014264650551899735
1.5107990903939155,0.028206425428266402,0.01180580639384516,0.006455089330600415,0.002393426015031868,0.0029271392333956054
1.510870607548842,0.03156791810921427,0.009089800404475063,0.006924877381908108,-0.0024734805662922957,0.006673108659316382
1.5109421247037687,0.034217944840168574,0.009534454343646652,0.0085255112555674,-0.0019516156681435137,0.007449146049863341
1.5110136418586952,0.036025983655989566,0.012984280854451705,0.01161661354179527,0.0022729431348630937,0.006693679396286672
1.5110851590136218,0.03729532439305516,0.014854303104038995,0.013294021431409462,0.007951996099488283,0.003910537445883256
1.5111566761685484,0.03854470610167679,0.013939938179779178,0.013163190298163863,0.01363568460596612,-0.0001663267310692356
1.511228193323475,0.04022460916569971,0.012996538712815761,0.013651672900344249,0.01605570013797721,-0.0015140367911597502
1.5112997104784016,0.04246467581659284,0.0138702931143373,0.01442102957265151,0.017213584013871852,-0.0017766537252107129
1.5113712276333282,0.04493429586497486,0.018513762509085437,0.016921655013448497,0.018972685123446322,-0.0012250981110051111
1.5114427447882548,0.04689231770787431,0.023941970834112966,0.019784155718843215,0.02021018574793676,-4.9306043342465236e-05
1.5115142619431814,0.047454803887083834,0.02608203325019238,0.02007376929597759,0.020671979573014167,-0.0001662719363919134
