freq,gls,usurper,pdc_unbiased,shape_periodogram,shift_periodogram
1.5,0.031605246424144244,0.03150783606545003,0.022003088454338578,0.02219696977396206,0.005649370960714449
1.5000715171549266,0.028595336453250155,0.02464081493926225,0.01679692217781675,0.016649025483801524,0.0044777937664284865
1.5001430343098532,0.024797888546036324,0.01881717252319964,0.011419584810450916,0.012846940744474957,0.0021813294908725476
1.5002145514647798,0.020789812632417533,0.016896965972607474,0.008796510756732951,0.00996881975828808,0.0016389492741450914
1.5002860686197064,0.017345459787468324,0.01930828061211577,0.009479677332466734,0.009119823285330925,0.002682088548746629
1.500357585774633,0.015271945925960987,0.023585881997369506,0.011714688134418397,0.010113072575026538,0.003967430670556158
1.5004291029295596,0.015165201318802408,0.02885179857661661,0.01415548030345099,0.013556592634567533,0.0040405657163993065
1.5005006200844861,0.01716595655706576,0.03387767383286373,0.016954003693511403,0.015968962353441196,0.004991222419187648
1.5005721372394127,0.02086274426290797,0.03786152684293024,0.019187221778694714,0.018467083607853603,0.005426854451873997
1.5006436543943393,0.02544081002802935,0.04134248445859349,0.02137618975240262,0.021349733047425577,0.005609292540575187
1.500715171549266,0.03000884122307953,0.04506558204649562,0.02421994995090846,0.023420041302012227,0.006791557439841203
1.5007866887041925,0.03391266896856934,0.0495208613746491,0.02666061786266369,0.028261679999427608,0.006077688897115826
1.500858205859119,0.0368882624749449,0.05457301460655893,0.029368029530911475,0.0340509664181975,0.005050026060991
1.5009297230140457,0.0390355018056212,0.060127817828907214,0.03287087235373193,0.04117670606641925,0.003926567183021716
1.5010012401689723,0.04067274274449097,0.06224814526423423,0.0349635290275476,0.046434203844333465,0.002690753245067186
1.5010727573238989,0.04213722341942038,0.062578372800245,0.036798409825528795,0.04990772638398816,0.0022488521312075296
1.5011442744788255,0.043587855733941964,0.06269221029914879,0.03793328428010061,0.05337907086721114,0.001228304360907081
1.501215791633752,0.044880915226329254,0.06248267003521608,0.03824814004694497,0.05621152770423499,-0.00011111997809465428
1.5012873087886787,0.045592465454410994,0.06363509914683309,0.03896037083855539,0.059105222042168025,-0.0011561696901462005
1.5013588259436053,0.04519857422015515,0.0631192264566274,0.038338310339186395,0.05951835184481712,-0.0019053614481853158
1.5014303430985318,0.04331902735671992,0.05947429767101561,0.03525172960142179,0.06006649112448876,-0.0047734236522844475
1.5015018602534584,0.03989064242203222,0.05145355344951485,0.029380562295107576,0.05804332642630385,-0.008492585000921734
1.501573377408385,0.035207008956161204,0.0419980567850588,0.02275340008029923,0.055332922850348326,-0.012444835414709641
1.5016448945633116,0.029854908046904056,0.0332331743051118,0.01716592382272006,0.050124319504184625,-0.014120539243006058
1.5017164117182382,0.02460404968418353,0.02567439414404636,0.01272729457488559,0.04366803114190372,-0.01413972823137015
1.5017879288731648,0.020274028275387688,0.020895287736449365,0.010756457121333964,0.03806482977931684,-0.012602109480880419
1.5018594460280914,0.01756978332877583,0.018321008329958834,0.009814843547662735,0.034855110668900936,-0.011566926682354026
1.501930963183018,0.016887968997375314,0.01752411897222078,0.009773529530205848,0.03156516695734605,-0.009743048046929008
1.5020024803379446,0.018154766828972088,0.016542471170751593,0.009545857603491862,0.02843507868461644,-0.008163743481069193
1.5020739974928712,0.020807783027131654,0.01694767253458876,0.00997328939183271,0.026251900568926213,-0.006578166682524552
1.5021455146477978,0.023992628107040868,0.019347372701548807,0.01144212206274167,0.025187629636994974,-0.004764105379605856
1.5022170318027244,0.026898257150269028,0.023910823834526345,0.014028974316248104,0.02660760482951109,-0.0034286139639648494
1.502288548957651,0.029041972437567,0.02880962883874684,0.016679671046279716,0.02891851051600778,-0.0025429284220266956
1.5023600661125776,0.03036170293294545,0.03414799087391328,0.019990738498687276,0.03185012190323796,-0.0014614163892424556
1.5024315832675041,0.031115659296329378,0.03511374876827112,0.02077896981185265,0.03333100238557192,-0.0016458686437139224
1.5025031004224307,0.031680428730509906,0.032477241490479335,0.019519808615351825,0.033429166578039494,-0.0027421205995236666
1.5025746175773573,0.032340192227813126,0.028761258612578357,0.018649627815208736,0.0313356144397452,-0.002279421003239116
1.502646134732284,0.033131945974426154,0.02616818497556694,0.017871043624403338,0.028078063743621002,-0.0010840369089370066
1.5027176518872105,0.033797027787609374,0.025870595191031714,0.01799769758677829,0.025988583091358035,0.00019993030912349055
1.502789169042137,0.033871437590867574,0.024815387847909737,0.017486670760106647,0.022915009257015728,0.0015121897563593594
1.5028606861970637,0.03289397904446062,0.021688110993203127,0.015274482970942199,0.02069601385908218,0.0009366874619842492
1.5029322033519903,0.030638444170610023,0.017942960105562077,0.012011118949132128,0.01929395875911495,-0.0009678264282234231
1.5030037205069169,0.02725242384486997,0.015870375334108247,0.009441040885373031,0.019013848735658503,-0.002932482102794668
1.5030752376618435,0.023245599290448483,0.0172135574152731,0.008606550278537486,0.019328814604969446,-0.003799426403896385
1.50314675481677,0.019358366958489085,0.020499961294690536,0.008953985446160287,0.019691933789299662,-0.0037174122398328903
1.5032182719716967,0.01638051368297583,0.024706044160983105,0.010426555451109277,0.02006886748572508,-0.0027139153980692936
1.5032897891266233,0.01497089818834955,0.028753748130781142,0.012350463029946239,0.020941762230980515,-0.0016174213946813427
1.5033613062815498,0.015499460648454992,0.03211373909183601,0.013981854206916533,0.021137320861438998,-0.00038017683055815033
1.5034328234364764,0.01793079665045714,0.03263877526204872,0.01416864675154985,0.019337017286792327,0.0007900282734581963
1.503504340591403,0.021792554285279486,0.03204072935466975,0.013806564009865633,0.0172826087657707,0.001650147438413434
1.5035758577463296,0.026283745634476982,0.03464894749472646,0.015751292513310384,0.017846319910248477,0.0029385127647177634
1.5036473749012562,0.03053094650102892,0.040029407642892464,0.019003856556851165,0.022357401408727356,0.003080432586021194
1.5037188920561828,0.03389868374654469,0.04746579664303403,0.02304438568669538,0.02958945431480296,0.0023387695692621995
1.5037904092111094,0.03619247413189749,0.056661911626616726,0.02836367437687625,0.03703083418932383,0.0025374187756539036
1.503861926366036,0.03764566473947448,0.06374512563580549,0.03246316988130233,0.04399256490018199,0.00199937872951647
1.5039334435209626,0.038716510453014726,0.06724533258592286,0.03408384953452373,0.051266203277232004,-0.0007668897410659023
1.5040049606758892,0.0398171228344044,0.06892343801060136,0.03557140334761458,0.05643904390672028,-0.0024577872654016836
1.5040764778308158,0.041095739566223526,0.07247352489402901,0.037525773851031737,0.06091836040171424,-0.0033704103444823106
1.5041479949857424,0.04234364882306056,0.07602398067379174,0.038887791087543686,0.06496492712996836,-0.0045296828842022316
1.504219512140669,0.043051695709888996,0.0776967920329449,0.03921573232033744,0.06824545020674537,-0.006113732551617232
1.5042910292955955,0.04260283060723393,0.0733359459588973,0.036347749549566495,0.06974454737568073,-0.009340727920956986
1.5043625464505221,0.04053910287302065,0.062446975199079525,0.030363706364527798,0.06746093337057385,-0.013007546226779488
1.5044340636054487,0.03679439695722014,0.048565818147655815,0.02344001313236871,0.06116797902606352,-0.015178094943865178
1.5045055807603753,0.03178229372791513,0.03636269583552897,0.01698689592080203,0.05511083044486658,-0.01708886124413611
1.504577097915302,0.026296542555493532,0.027818955491169927,0.012446934359831944,0.04930002791454461,-0.017555311560471878
1.5046486150702285,0.021278189004975218,0.02434588091880135,0.011187449324425095,0.04407091230084795,-0.015639881269917326
1.504720132225155,0.017555651134353225,0.022917152742647235,0.011283372248322305,0.040064179868103594,-0.01329635152038211
1.5047916493800817,0.01564621916050789,0.021432083352597452,0.010644076718018416,0.036733445375107934,-0.011942842979912025
1.5048631665350083,0.015656872938766518,0.01894716501547546,0.009217644422453899,0.032299712897069476,-0.010617043891257475
1.5049346836899349,0.017286051262519187,0.017224417640293886,0.008230188330603324,0.028083520372200993,-0.009051980939416941
1.5050062008448615,0.019918755698584013,0.016839954520258067,0.007905738300784866,0.02452807618529527,-0.007312770876123245
1.505077717999788,0.022804926807040774,0.01876124981256353,0.009361654152707073,0.02171210896691287,-0.004520852552919499
1.5051492351547147,0.025289013466251117,0.02378331545844007,0.011726326065843064,0.024260630442349374,-0.004006097128912871
1.5052207523096413,0.027015644551186973,0.02907293182591468,0.014241445734319206,0.026922353478417593,-0.0034307401311118656
1.5052922694645678,0.028012475009877,0.031907026269278875,0.015961322224474977,0.027063752657204003,-0.002089551329045639
1.5053637866194944,0.028596359216805502,0.028826838635697044,0.014919408532213189,0.02469064930139553,-0.0016109767934651277
1.505435303774421,0.02915112616185344,0.02228323467892666,0.013309044659559194,0.019709354355463775,-0.0001301419250862024
1.5055068209293476,0.029900153036102176,0.01768611970721571,0.012321918805932341,0.015414334604337646,0.0014780162382290567
1.5055783380842742,0.030782681811496897,0.017120105826721847,0.01250866989698158,0.01301305544872764,0.00298707072389212
1.5056498552392008,0.03146961942071043,0.019733395267748866,0.013496870470295333,0.01359067078192128,0.003477364411648872
1.5057213723941274,0.03149161794629547,0.02127511271714104,0.013134126432083434,0.015664533883301326,0.0020076879742079237
1.505792889549054,0.030427310908792447,0.021056015864489016,0.011855838401314541,0.018680299866312297,-0.0007497957483672749
1.5058644067039806,0.02809465201809536,0.019089033562559213,0.009674998552531539,0.020236950973894347,-0.003429507471106924
1.5059359238589072,0.024683284499830333,0.015556249541796758,0.006168765257997816,0.020738619272975583,-0.006608331594591909
1.5060074410138338,0.020766913938386953,0.013257811240762033,0.003987129865862614,0.02027046976585859,-0.00814567244320183
1.5060789581687604,0.017165658691511196,0.014259485332881912,0.004506773893992003,0.0190689822449653,-0.007038459529699553
1.506150475323687,0.014695536880755058,0.016621160154756866,0.005603202541494299,0.0191679006746288,-0.006188880269281406
1.5062219924786135,0.013907828977730352,0.018701081545576717,0.006474304461408025,0.01848840132011162,-0.00508603876124651
1.5062935096335401,0.014929925183180436,0.01903207294382167,0.007024475314287043,0.015411277931416506,-0.0028952251147595595
1.5063650267884667,0.01746107614733839,0.01792411473556383,0.006681651925523114,0.01307961260038336,-0.0018626340543294176
1.5064365439433933,0.020900617081537138,0.01943361831183474,0.008103902228742074,0.011831465317360013,1.6084021440838827e-05
1.50650806109832,0.024545654709518663,0.023591624596833775,0.01119024144466396,0.010871938460964408,0.0031061936263616957
1.5065795782532465,0.027795889555703463,0.031083815030073163,0.015188716512202768,0.01474618062588607,0.004222869352494586
1.506651095408173,0.030315638754338018,0.04092725291675782,0.02020329875354711,0.02067766248080691,0.005019258303380071
1.5067226125630997,0.03210575674634778,0.0509574620512503,0.02516307524326057,0.027586072313857308,0.005220764149896082
1.5067941297180263,0.03344435853615213,0.05685511438014148,0.02809340030703321,0.03412652107759023,0.0039531055007620865
1.5068656468729529,0.03469846610783441,0.057616497894343935,0.028836225363534616,0.03743835360101236,0.0026982932970222597
1.5069371640278795,0.03608805388876267,0.05661368876508458,0.029158238083419115,0.038640513461619,0.00228607919343302
1.507008681182806,0.03753193323000867,0.05644787828121073,0.029645090979329304,0.04046834381326887,0.0016569926671031194
1.5070801983377327,0.038657419159163646,0.056748222699045385,0.03000532215028713,0.041589892025337284,0.0013218429628761115
1.5071517154926592,0.038950459296790155,0.055679356853552804,0.029635790998015537,0.041137335614360615,0.0012715900889023093
1.5072232326475858,0.03795818995272562,0.050147237805721875,0.026170643808596194,0.040503886257633966,-0.0012374635617901195
1.5072947498025124,0.035465807062779846,0.04296169619809523,0.02167628316777021,0.03928858207070318,-0.004268014205052957
1.507366266957439,0.03160750390290827,0.03694085913222578,0.01779655130545853,0.037877382127458094,-0.006678402283518216
1.5074377841123656,0.02689036393457737,0.031710346842983954,0.014369878001425985,0.036674043977321824,-0.008830784457498785
1.5075093012672922,0.022110982309926926,0.026887692453268764,0.012274203971852665,0.034144143240548784,-0.009133557910123127
1.5075808184222188,0.018158898886019043,0.023587637243594875,0.010838451012952628,0.03289028285821853,-0.009611628387292586
1.5076523355771454,0.015750547010193554,0.02139758143877623,0.009985828883372298,0.031098435499364023,-0.009304120174578467
1.507723852732072,0.015198153002695225,0.01778982008347862,0.008495434228764531,0.02702209710244177,-0.00823364833514552
1.5077953698869986,0.01632710132796861,0.013228813179219385,0.006411917338543193,0.02118540533951103,-0.006659700726294293
1.5078668870419252,0.01858159605132472,0.009892679724123284,0.00521914285473996,0.015227337509336957,-0.004282230481563768
1.5079384041968518,0.02125563485920751,0.007832489611299407,0.005152249488431391,0.009176527258081638,-0.0009232765755449463
1.5080099213517784,0.023737553869918368,0.007600487582001085,0.0057615299185219465,0.005361914483683894,0.0017320006282202118
1.508081438506705,0.025680396681245936,0.009757141911991963,0.007453924502377228,0.003135519929232385,0.0043854695231101614
1.5081529556616315,0.027059576075294776,0.011955446772994364,0.008842952470356694,0.001583674012710193,0.006407857182838472
1.5082244728165581,0.028112039179855254,0.011346328678357597,0.008942296206187028,-0.0003239872355151214,0.007566068526574141
1.5082959899714847,0.029172386947160022,0.009152700269975918,0.008780907310022895,-0.0016136811297974161,0.008160381396886521
1.5083675071264113,0.03045818310099522,0.009080476588560865,0.010026451111954632,-0.0020313262679017654,0.009424390984529319
1.508439024281338,0.03190386747651281,0.013281608152373907,0.012747040105629182,-0.0003660387816714606,0.010731336574922059
1.5085105414362645,0.03314377564440417,0.019643761544877434,0.01600259242207933,0.003312471771370375,0.011344712295868633
1.508582058591191,0.03366149064758627,0.025062579272079652,0.0186299276568245,0.006809956769643949,0.011541890928099152
1.5086535757461177,0.03301661123576188,0.025175957590660505,0.017302793300784304,0.008972162253032056,0.00922621130934312
1.5087250929010443,0.031031763736761156,0.021161031715647167,0.013978643770450466,0.0098507676282073,0.005985127925236087
1.5087966100559709,0.02787943173947238,0.01581050108134205,0.009773118861112214,0.009184432291496023,0.0028879585768220462
1.5088681272108975,0.024071143965329337,0.01080269400090222,0.005405399448016361,0.00916183445443024,-0.0007059562665748045
1.508939644365824,0.020368522042175177,0.006636881086119217,0.002619426200917792,0.007773421540297705,-0.0022229635330997853
1.5090111615207507,0.017622660517009992,0.00446728449462422,0.001280243020763253,0.00740858365241699,-0.0031228390875188733
1.5090826786756772,0.016549556574789192,0.0035479394729036715,0.001094148915450876,0.008151843934788653,-0.003695850231734647
1.5091541958306038,0.01749078347259404,0.0034507580890736672,0.001728275756159572,0.0074479129939909895,-0.0027751046561493783
1.5092257129855304,0.02026609634215111,0.004026900466477932,0.002622344403247119,0.005122970796632423,-0.0007251609363151526
1.509297230140457,0.024225306810832306,0.007663527120316012,0.005090188490138515,0.003657500909603713,0.0021392727749336453
1.5093687472953836,0.028505184243561566,0.0160092892957622,0.010396256019729185,0.0044037907401367335,0.006099525323661047
1.5094402644503102,0.032363241212534366,0.02760450203678,0.017181792517199104,0.008064021679298665,0.009638507522847766
1.5095117816052368,0.035420479974014,0.04059459428152981,0.023785576506019895,0.01393526701035117,0.011782381103784373
1.5095832987601634,0.03772295943106026,0.05035848541228698,0.028541189697550762,0.018345067387572214,0.013225702151240033
1.50965481591509,0.039632532833370364,0.053352765305414135,0.030196375009199177,0.020526175399886062,0.013364083255890464
1.5097263330700166,0.041605230836871475,0.048487029038344814,0.028415936049993602,0.020175687819360435,0.012089863015931693
1.5097978502249432,0.04392716574129624,0.040863697656844604,0.026087173799228647,0.01580406187139889,0.012630368960292784
1.5098693673798698,0.04649881119729661,0.03647200636025872,0.025125670272120693,0.011323687836702014,0.014362345558907204
1.5099408845347964,0.048782229516577,0.03671580961256377,0.025898717163670308,0.01038544278162207,0.015530102497073536
1.510012401689723,0.04998265464348263,0.03996675658624841,0.027970420605425636,0.011248539796349245,0.016755265232902432
1.5100839188446495,0.04939582665258717,0.04058646697988447,0.02744804663090382,0.012386980432408629,0.015681747684935157
1.5101554359995761,0.046726633743720845,0.03793483580892149,0.024915387052692306,0.013437388663686637,0.012996683186572948
1.5102269531545027,0.04221494386441091,0.03484269046348296,0.022036546886626967,0.014274637685159922,0.01014587552609489
1.5102984703094293,0.0365554045951188,0.033031348389966166,0.019143160662124768,0.016406846292257145,0.006552703240574695
1.510369987464356,0.030705701566729478,0.032838300732925096,0.01712115674686206,0.018882602413657263,0.003485490430126531
1.5104415046192825,0.025671938650474672,0.03375449234866217,0.016152578444133103,0.02115436552902234,0.0014034730873543231
1.510513021774209,0.02230380117340663,0.03512145939707999,0.01595046449902194,0.023714535142383267,-0.00020824360557766545
1.5105845389291357,0.02110478427342222,0.033376868347581495,0.014310671393420193,0.02343696230903225,-0.0014063275704715612
1.5106560560840623,0.022087028251984653,0.027820139283739383,0.011927341615445858,0.018833568878975603,-0.0007772254988887763
1.5107275732389889,0.02474352062355467,0.019044541071851957,0.008315005741078718,0.011633760430138439,0.0003019602738290479
1.5107990903939155,0.028206425428266402,0.01217361537381336,0.006455089330600415,0.004152636001873416,0.0029869148069323315
1.510870607548842,0.03156791810921427,0.008743770944573133,0.006924877381908108,-0.001565172962100883,0.006600566916684518
1.5109421247037687,0.034217944840168574,0.008934292693020714,0.0085255112555674,-0.004280500266953196,0.009453990905234095
1.5110136418586952,0.036025983655989566,0.01251204885372632,0.01161661354179527,-0.004786964018907673,0.012291835534156064
1.5110851590136218,0.03729532439305516,0.01453116498716744,0.013294021431409462,-0.00437503925051655,0.013444409239775763
1.5111566761685484,0.03854470610167679,0.013212771060235289,0.013163190298163863,-0.0032205794691838488,0.01268516457069169
1.511228193323475,0.04022460916569971,0.011840930130336606,0.013651672900344249,-0.004069910745818973,0.01356758586422379
1.5112997104784016,0.04246467581659284,0.012930669552929767,0.01442102957265151,-0.0044093748289230385,0.014394297643115856
1.5113712276333282,0.04493429586497486,0.018376373080805725,0.016921655013448497,-0.002321983192143156,0.015281635830332917
1.5114427447882548,0.04689231770787431,0.024843796380839295,0.019784155718843215,0.000501690350596713,0.01605286119943729
1.5115142619431814,0.047454803887083834,0.02778823420380854,0.02007376929597759,0.003514365183707788,0.014593024078260597
