freq,gls,usurper,pdc_unbiased,shape_periodogram,shift_periodogram
1.5,0.031605246424144244,0.030767205660603137,0.022003088454338578,0.028965770574370317,0.0037726088279507355
1.5000715171549266,0.028595336453250155,0.024275554208654834,0.01679692217781675,0.024073292975599424,0.0018596699473655348
1.5001430343098532,0.024797888546036324,0.01875631021279022,0.011419584810450916,0.020723416743257263,-0.000999051777228568
1.5002145514647798,0.020789812632417533,0.01718591841733191,0.008796510756732951,0.01822142014573173,-0.0019423339015496083
1.5002860686197064,0.017345459787468324,0.019981170506132614,0.009479677332466734,0.017948954770572543,-0.0012168010322515838
1.500357585774633,0.015271945925960987,0.02475244715866264,0.011714688134418397,0.019678225649891082,-0.0002039632660841661
1.5004291029295596,0.015165201318802408,0.030291478890675756,0.01415548030345099,0.023707379555911706,-0.00020929575347496238
1.5005006200844861,0.01716595655706576,0.03557349070167274,0.016954003693511403,0.02689446723020405,0.0005289155900911987
1.5005721372394127,0.02086274426290797,0.03982217724829502,0.019187221778694714,0.029675514755541182,0.0009948560773992954
1.5006436543943393,0.02544081002802935,0.0435158979686202,0.02137618975240262,0.03211947803979948,0.001598345863868402
1.500715171549266,0.03000884122307953,0.04769420087775509,0.02421994995090846,0.033636317164861644,0.003244165455274861
1.5007866887041925,0.03391266896856934,0.05248611767742234,0.02666061786266369,0.038273716246404944,0.0029247676300705665
1.500858205859119,0.0368882624749449,0.057659107524595736,0.029368029530911475,0.044414188192427796,0.0020532483782636874
1.5009297230140457,0.0390355018056212,0.06302184299650927,0.03287087235373193,0.05191599644540245,0.001156038696489975
1.5010012401689723,0.04067274274449097,0.0646680454469228,0.0349635290275476,0.05732213424333852,0.00013951263915506
1.5010727573238989,0.04213722341942038,0.06419131104943193,0.036798409825528795,0.05981123874088835,0.0004189549847336416
1.5011442744788255,0.043587855733941964,0.06348205282410065,0.03793328428010061,0.06140569016576671,0.0005634159757809945
1.501215791633752,0.044880915226329254,0.06241999300560776,0.03824814004694497,0.06234430649705989,0.00034538821857883805
1.5012873087886787,0.045592465454410994,0.06296598018096722,0.03896037083855539,0.06424085689525479,-2.9932129987655223e-05
1.5013588259436053,0.04519857422015515,0.06216388396225492,0.038338310339186395,0.06406078314211629,-0.0004701878945936134
1.5014303430985318,0.04331902735671992,0.05847736403504099,0.03525172960142179,0.0640101728904753,-0.0030926210004223365
1.5015018602534584,0.03989064242203222,0.05082849626021542,0.029380562295107576,0.061810317664753166,-0.006983084695781359
1.501573377408385,0.035207008956161204,0.041700175440180696,0.02275340008029923,0.058979207422572684,-0.01118858462821871
1.5016448945633116,0.029854908046904056,0.0333592030499996,0.01716592382272006,0.05380311710466216,-0.013278777510990934
1.5017164117182382,0.02460404968418353,0.026199820778077258,0.01272729457488559,0.047503404662440275,-0.01379904770123033
1.5017879288731648,0.020274028275387688,0.02180331089152527,0.010756457121333964,0.04192909327737076,-0.012585486592439334
1.5018594460280914,0.01756978332877583,0.019423115898757497,0.009814843547662735,0.03837328116799933,-0.01154190152206607
1.501930963183018,0.016887968997375314,0.018613155557093843,0.009773529530205848,0.03480961271020474,-0.009724705052379832
1.5020024803379446,0.018154766828972088,0.017637908225800542,0.009545857603491862,0.03163675159102943,-0.008270427647988094
1.5020739974928712,0.020807783027131654,0.018159313433752593,0.00997328939183271,0.029751048530003085,-0.006925075158700333
1.5021455146477978,0.023992628107040868,0.020901938187629154,0.01144212206274167,0.029622480752280765,-0.005602226232112088
1.5022170318027244,0.026898257150269028,0.025822516533223205,0.014028974316248104,0.032118935799309294,-0.004686930939543434
1.502288548957651,0.029041972437567,0.030970600789582584,0.016679671046279716,0.03553614552952877,-0.004195101054641876
1.5023600661125776,0.03036170293294545,0.03640587128050081,0.019990738498687276,0.03942636705329653,-0.003383584897629005
1.5024315832675041,0.031115659296329378,0.03725393331608688,0.02077896981185265,0.04163233188874821,-0.0038555068384276583
1.5025031004224307,0.031680428730509906,0.03411939693743345,0.019519808615351825,0.04155733498544893,-0.004894235782602176
1.5025746175773573,0.032340192227813126,0.029775778511665123,0.018649627815208736,0.03863294566854043,-0.004118915320978519
1.502646134732284,0.033131945974426154,0.026494999327378938,0.017871043624403338,0.03430151262722036,-0.0025342904169737175
1.5027176518872105,0.033797027787609374,0.02565387335235139,0.01799769758677829,0.03198246658559501,-0.0012211127442621295
1.502789169042137,0.033871437590867574,0.024157125301533685,0.017486670760106647,0.029177144539439672,-0.0002010469173649643
1.5028606861970637,0.03289397904446062,0.020798532067465007,0.015274482970942199,0.02698600457686438,-0.0009551276376823266
1.5029322033519903,0.030638444170610023,0.017130394548738104,0.012011118949132128,0.02546085011872111,-0.0029537339967936455
1.5030037205069169,0.02725242384486997,0.015262090605296971,0.009441040885373031,0.02509610797212164,-0.0049618461470316835
1.5030752376618435,0.023245599290448483,0.01699994751577493,0.008606550278537486,0.026053107245591737,-0.006172477398362804
1.50314675481677,0.019358366958489085,0.020684400208908618,0.008953985446160287,0.027047515386077452,-0.006392018689263501
1.5032182719716967,0.01638051368297583,0.025366859376051678,0.010426555451109277,0.027892616571240102,-0.005571933370147667
1.5032897891266233,0.01497089818834955,0.02970509661222368,0.012350463029946239,0.028502045756129774,-0.004243337539103708
1.5033613062815498,0.015499460648454992,0.03314317204620382,0.013981854206916533,0.02833182552830126,-0.002759724497118553
1.5034328234364764,0.01793079665045714,0.03385179401768284,0.01416864675154985,0.026144008635136183,-0.0014635469140176073
1.503504340591403,0.021792554285279486,0.033515029913236724,0.013806564009865633,0.023748329690256635,-0.0005289392115087876
1.5035758577463296,0.026283745634476982,0.03641249521238868,0.015751292513310384,0.024573123797539145,0.000705827781692348
1.5036473749012562,0.03053094650102892,0.04208576487592125,0.019003856556851165,0.02999564451080509,0.0006717123947058335
1.5037188920561828,0.03389868374654469,0.049586367849139175,0.02304438568669538,0.03833723262238954,-0.00020401060819554112
1.5037904092111094,0.03619247413189749,0.058828630311353394,0.02836367437687625,0.04667246285061625,1.9322916330769003e-05
1.503861926366036,0.03764566473947448,0.06584298631139357,0.03246316988130233,0.05374772284689818,-0.00014574537633708665
1.5039334435209626,0.038716510453014726,0.06901874721731933,0.03408384953452373,0.05997946155048399,-0.0019971330644826713
1.5040049606758892,0.0398171228344044,0.07026196396345712,0.03557140334761458,0.06367806120493329,-0.0026454979338379615
1.5040764778308158,0.041095739566223526,0.07334201807855623,0.037525773851031737,0.06648525124153033,-0.0024292879826538567
1.5041479949857424,0.04234364882306056,0.07643995294342142,0.038887791087543686,0.06928082172120238,-0.0027152438466634464
1.504219512140669,0.043051695709888996,0.07779749516205592,0.03921573232033744,0.07185256007487721,-0.0037727482392284246
1.5042910292955955,0.04260283060723393,0.07331678568541279,0.036347749549566495,0.07253421549926103,-0.006590559151450361
1.5043625464505221,0.04053910287302065,0.062468500680950736,0.030363706364527798,0.06942491196709077,-0.010105793388814522
1.5044340636054487,0.03679439695722014,0.04875010040216632,0.02344001313236871,0.062038911894247366,-0.012193659892098616
1.5045055807603753,0.03178229372791513,0.03664639745411197,0.01698689592080203,0.05509595977276479,-0.01410503948969036
1.504577097915302,0.026296542555493532,0.02822630314103316,0.012446934359831944,0.048984133342320844,-0.014809383245933044
1.5046486150702285,0.021278189004975218,0.02491201907383717,0.011187449324425095,0.043922027428361474,-0.013253329865458931
1.504720132225155,0.017555651134353225,0.02359727508824146,0.011283372248322305,0.040140667707405625,-0.011204798692990499
1.5047916493800817,0.01564621916050789,0.022008125679488996,0.010644076718018416,0.03705046121281781,-0.010144997075808834
1.5048631665350083,0.015656872938766518,0.019384177327446683,0.009217644422453899,0.033408834248833924,-0.009472024442393829
1.5049346836899349,0.017286051262519187,0.017729266647365308,0.008230188330603324,0.029671639077640498,-0.008374285988222006
1.5050062008448615,0.019918755698584013,0.017715222761692892,0.007905738300784866,0.026738990504189552,-0.007127986890538516
1.505077717999788,0.022804926807040774,0.020059883069512948,0.009361654152707073,0.024944374178785766,-0.004950903690596125
1.5051492351547147,0.025289013466251117,0.02537908147015077,0.011726326065843064,0.02901339468770486,-0.005042737703136884
1.5052207523096413,0.027015644551186973,0.03093827870613395,0.014241445734319206,0.03384593815778878,-0.0054025735443608254
1.5052922694645678,0.028012475009877,0.03382052716616319,0.015961322224474977,0.035762917790034696,-0.00492750760914431
1.5053637866194944,0.028596359216805502,0.03073697640780918,0.014919408532213189,0.0341738809180339,-0.004993062281512014
1.505435303774421,0.02915112616185344,0.023861488538336906,0.013309044659559194,0.029154690868905826,-0.0037626057432330194
1.5055068209293476,0.029900153036102176,0.018701765660507352,0.012321918805932341,0.02447229718537429,-0.0021745037528162247
1.5055783380842742,0.030782681811496897,0.017527330756069288,0.01250866989698158,0.021624928877799543,-0.0005360190422708234
1.5056498552392008,0.03146961942071043,0.01966212958824805,0.013496870470295333,0.02220118568318766,9.713418456746134e-06
1.5057213723941274,0.03149161794629547,0.02085633337727691,0.013134126432083434,0.024267163323796772,-0.0013734274537021995
1.505792889549054,0.030427310908792447,0.020590232465068827,0.011855838401314541,0.02687808115450444,-0.0038226916876006292
1.5058644067039806,0.02809465201809536,0.018869691175225984,0.009674998552531539,0.02749073906679712,-0.006005786946971625
1.5059359238589072,0.024683284499830333,0.015578519722688325,0.006168765257997816,0.02716142831711381,-0.008832490785337987
1.5060074410138338,0.020766913938386953,0.013425683948835244,0.003987129865862614,0.025918859294129626,-0.010051949861482027
1.5060789581687604,0.017165658691511196,0.01465837965738648,0.004506773893992003,0.023931606064966197,-0.008575333046481833
1.506150475323687,0.014695536880755058,0.01731333618898774,0.005603202541494299,0.02346232078991731,-0.007394268463483927
1.5062219924786135,0.013907828977730352,0.01953894199290916,0.006474304461408025,0.02260548762810173,-0.006204506990062155
1.5062935096335401,0.014929925183180436,0.019815132085373326,0.007024475314287043,0.019698511042665175,-0.004224315445158922
1.5063650267884667,0.01746107614733839,0.01860668312329593,0.006681651925523114,0.017187559035363977,-0.0032133546866174026
1.5064365439433933,0.020900617081537138,0.020007929461449317,0.008103902228742074,0.01586506475059313,-0.0013107969973694658
1.50650806109832,0.024545654709518663,0.02434602089167742,0.01119024144466396,0.014923396384592355,0.0018166117547996487
1.5065795782532465,0.027795889555703463,0.032075003001699666,0.015188716512202768,0.01912518738332018,0.003053675885704289
1.506651095408173,0.030315638754338018,0.0421042647527016,0.02020329875354711,0.0256335811503966,0.003963117544950675
1.5067226125630997,0.03210575674634778,0.05229907000405336,0.02516307524326057,0.0331925271503236,0.004281866767708175
1.5067941297180263,0.03344435853615213,0.05831526147412526,0.02809340030703321,0.03955989229672742,0.0034834968924685903
1.5068656468729529,0.03469846610783441,0.05887762696887809,0.028836225363534616,0.042101280181570805,0.0027994408441743097
1.5069371640278795,0.03608805388876267,0.05762272141907272,0.029158238083419115,0.04227010617085133,0.0029875331761852176
1.507008681182806,0.03753193323000867,0.05719183714750797,0.029645090979329304,0.04289554660309058,0.0030796093965104886
1.5070801983377327,0.038657419159163646,0.057299695524923706,0.03000532215028713,0.04323521885227786,0.0032117089992831954
1.5071517154926592,0.038950459296790155,0.056034312988843024,0.029635790998015537,0.04213968918639707,0.00346431884243752
1.5072232326475858,0.03795818995272562,0.05055856694476101,0.026170643808596194,0.040732216102784394,0.0012280327136869195
1.5072947498025124,0.035465807062779846,0.04356178138635468,0.02167628316777021,0.0383940105599512,-0.0014045139179318092
1.507366266957439,0.03160750390290827,0.0376826494510211,0.01779655130545853,0.0361459358704552,-0.00355640637763311
1.5074377841123656,0.02689036393457737,0.03254438342903334,0.014369878001425985,0.03417557562748601,-0.005464011326751166
1.5075093012672922,0.022110982309926926,0.0277553185208504,0.012274203971852665,0.031116070196940234,-0.0056666641837409635
1.5075808184222188,0.018158898886019043,0.02441657737094034,0.010838451012952628,0.0297734195138412,-0.006196879230979044
1.5076523355771454,0.015750547010193554,0.022239239946986674,0.009985828883372298,0.02825672510624125,-0.006137958254780311
1.507723852732072,0.015198153002695225,0.01856656730164578,0.008495434228764531,0.024534582495376083,-0.00547864446452776
1.5077953698869986,0.01632710132796861,0.01399702531887599,0.006411917338543193,0.019650688376563374,-0.0047231283354290995
1.5078668870419252,0.01858159605132472,0.01071793324155517,0.00521914285473996,0.01477083884332093,-0.003208514260508292
1.5079384041968518,0.02125563485920751,0.00889570789884543,0.005152249488431391,0.010136537371055698,-0.000859326295334525
1.5080099213517784,0.023737553869918368,0.008835525286908487,0.0057615299185219465,0.008000203010538812,0.0007706512969685565
1.508081438506705,0.025680396681245936,0.01119379149386662,0.007453924502377228,0.007534185242923613,0.0024591576153492087
1.5081529556616315,0.027059576075294776,0.013516914355562043,0.008842952470356694,0.0076901947395457025,0.003565445459311134
1.5082244728165581,0.028112039179855254,0.012946601539360295,0.008942296206187028,0.007128181587755673,0.003942137674795762
1.5082959899714847,0.029172386947160022,0.010566231772585831,0.008780907310022895,0.006364505305204385,0.004200658462477388
1.5083675071264113,0.03045818310099522,0.010132895505569542,0.010026451111954632,0.006374742672810287,0.005259987738904758
1.508439024281338,0.03190386747651281,0.013931430935562653,0.012747040105629182,0.00836902035033893,0.006550272253480488
1.5085105414362645,0.03314377564440417,0.019996695655607268,0.01600259242207933,0.012058785612184023,0.007418096147331959
1.508582058591191,0.03366149064758627,0.025149418381627864,0.0186299276568245,0.015409279532600025,0.007925409675363102
1.5086535757461177,0.03301661123576188,0.025371237475214532,0.017302793300784304,0.017250859571406603,0.005834562311722265
1.5087250929010443,0.031031763736761156,0.021564821153532174,0.013978643770450466,0.01749140599984774,0.0028672660594668067
1.5087966100559709,0.02787943173947238,0.016448261364917893,0.009773118861112214,0.016003386225698617,4.434245940902269e-05
1.5088681272108975,0.024071143965329337,0.0117248269983097,0.005405399448016361,0.015109033954107442,-0.003224925927876715
1.508939644365824,0.020368522042175177,0.007813659160849713,0.002619426200917792,0.013041883109014354,-0.0045327951305711624
1.5090111615207507,0.017622660517009992,0.005775259689665216,0.001280243020763253,0.01182979726263687,-0.005047998721163144
1.5090826786756772,0.016549556574789192,0.004838720743510366,0.001094148915450876,0.011766500054357929,-0.005174183204325948
1.5091541958306038,0.01749078347259404,0.004445299852806021,0.001728275756159572,0.010295887560260831,-0.0038685819528477285
1.5092257129855304,0.02026609634215111,0.004794191542899071,0.002622344403247119,0.007347021980125875,-0.001573301527435472
1.509297230140457,0.024225306810832306,0.008371566712944822,0.005090188490138515,0.005453778216910029,0.0015189255298319285
1.5093687472953836,0.028505184243561566,0.01680686877714361,0.010396256019729185,0.0063039982473795985,0.005612813398306289
1.5094402644503102,0.032363241212534366,0.028554313757144494,0.017181792517199104,0.01027469349939797,0.009352356007411878
1.5095117816052368,0.035420479974014,0.041753725746544484,0.023785576506019895,0.016137739221387164,0.01195653037897206
1.5095832987601634,0.03772295943106026,0.0516281919549216,0.028541189697550762,0.02084158197119647,0.01358397106602149
1.50965481591509,0.039632532833370364,0.05471949387079955,0.030196375009199177,0.02310466712169719,0.013826131436915124
1.5097263330700166,0.041605230836871475,0.05003767819965359,0.028415936049993602,0.02212412686534833,0.01281129721760224
1.5097978502249432,0.04392716574129624,0.04231135054964354,0.026087173799228647,0.017100228125070085,0.013425790245736662
1.5098693673798698,0.04649881119729661,0.03765589647141071,0.025125670272120693,0.011816029898860542,0.015345223597583205
1.5099408845347964,0.048782229516577,0.0375506982988647,0.025898717163670308,0.010463916106256507,0.016707880355092252
1.510012401689723,0.04998265464348263,0.04039415924355375,0.027970420605425636,0.011081127173623835,0.018159502118486978
1.5100839188446495,0.04939582665258717,0.04092508299280393,0.02744804663090382,0.011935884384874126,0.017269290310323693
1.5101554359995761,0.046726633743720845,0.03845501809156778,0.024915387052692306,0.012310068309826245,0.014909043552964385
1.5102269531545027,0.04221494386441091,0.03560938622592152,0.022036546886626967,0.012280815128870524,0.012462262485037054
1.5102984703094293,0.0365554045951188,0.034040143717479446,0.019143160662124768,0.01427285773519525,0.00895416149478362
1.510369987464356,0.030705701566729478,0.03408850645039058,0.01712115674686206,0.017199697991230563,0.005705800441410453
1.5104415046192825,0.025671938650474672,0.0353050698310446,0.016152578444133103,0.019855680145039436,0.003498615340854524
1.510513021774209,0.02230380117340663,0.036899406381035255,0.01595046449902194,0.022820067702589975,0.0017865306970104226
1.5105845389291357,0.02110478427342222,0.03527978909417809,0.014310671393420193,0.023162389639910123,0.00020644641739981745
1.5106560560840623,0.022087028251984653,0.029653871109363645,0.011927341615445858,0.01905630946557117,0.0003008065779827592
1.5107275732389889,0.02474352062355467,0.020727063391814758,0.008315005741078718,0.012436780158239168,0.0006497797312235581
1.5107990903939155,0.028206425428266402,0.013800355873178476,0.006455089330600415,0.005870323279994822,0.0024692598760281442
1.510870607548842,0.03156791810921427,0.01047160534848278,0.006924877381908108,0.0012080398821708717,0.005291290379512012
1.5109421247037687,0.034217944840168574,0.010723708709624611,0.0085255112555674,0.0003800707178538173,0.007089175429418682
1.5110136418586952,0.036025983655989566,0.014304717587112459,0.01161661354179527,0.001912837941956754,0.008935466619403094
1.5110851590136218,0.03729532439305516,0.016150877828272715,0.013294021431409462,0.003782629475258134,0.009398634750956153
1.5111566761685484,0.03854470610167679,0.014781284469307664,0.013163190298163863,0.005732628308893754,0.008274574647654994
1.511228193323475,0.04022460916569971,0.013216998457018698,0.013651672900344249,0.005376854068556786,0.008876813401964235
1.5112997104784016,0.04246467581659284,0.013971715897279401,0.01442102957265151,0.005037868599402294,0.009710430309345696
1.5113712276333282,0.04493429586497486,0.019121295573806388,0.016921655013448497,0.006938818533269813,0.010861410709468663
1.5114427447882548,0.04689231770787431,0.025285755285161256,0.019784155718843215,0.009835385693462711,0.011805381493787195
1.5115142619431814,0.047454803887083834,0.028014641579136624,0.02007376929597759,0.01296679777856033,0.01042782146587164
