freq,gls,usurper,pdc_unbiased,shape_periodogram,shift_periodogram
1.5,0.031605246424144244,0.031524708915831916,0.022003088454338578,0.04606348538677303,-0.005862078150954675
1.5000715171549266,0.028595336453250155,0.024862620295820988,0.01679692217781675,0.03832650690063644,-0.006157719573443435
1.5001430343098532,0.024797888546036324,0.019131319960793522,0.011419584810450916,0.03216417797439923,-0.007435481622882544
1.5002145514647798,0.020789812632417533,0.017287716268318393,0.008796510756732951,0.02742065899353755,-0.007133732077517351
1.5002860686197064,0.017345459787468324,0.01979045500604266,0.009479677332466734,0.026091053861599888,-0.005847447213935378
1.500357585774633,0.015271945925960987,0.024229809014718304,0.011714688134418397,0.026964491272294146,-0.004418441473646859
1.5004291029295596,0.015165201318802408,0.029528478475007006,0.01415548030345099,0.031033741103879534,-0.004515261136393258
1.5005006200844861,0.01716595655706576,0.0345360392546197,0.016954003693511403,0.03400769161897284,-0.0037257755503690556
1.5005721372394127,0.02086274426290797,0.038581436216846725,0.019187221778694714,0.03681400620799166,-0.0033259429337931263
1.5006436543943393,0.02544081002802935,0.0421928262997418,0.02137618975240262,0.039976563682263974,-0.003152965657670617
1.500715171549266,0.03000884122307953,0.04599552826123981,0.02421994995090846,0.04244315500446654,-0.0020536980044233285
1.5007866887041925,0.03391266896856934,0.0502654116521438,0.02666061786266369,0.04874238440849394,-0.003336485180442745
1.500858205859119,0.0368882624749449,0.054999736486250506,0.029368029530911475,0.056612302324452295,-0.005230173554658306
1.5009297230140457,0.0390355018056212,0.06015749821020626,0.03287087235373193,0.06622283411473603,-0.00737749954047664
1.5010012401689723,0.04067274274449097,0.06203221536392757,0.0349635290275476,0.07329669125457863,-0.009372583302745445
1.5010727573238989,0.04213722341942038,0.06219750248567597,0.036798409825528795,0.07753841126161308,-0.01007623338100278
1.5011442744788255,0.043587855733941964,0.06209277744011911,0.03793328428010061,0.08148163545717493,-0.011216718752928602
1.501215791633752,0.044880915226329254,0.06157928756994742,0.03824814004694497,0.08453356352784364,-0.012579825811732509
1.5012873087886787,0.045592465454410994,0.06234366523822904,0.03896037083855539,0.08807685611680759,-0.013868006244882112
1.5013588259436053,0.04519857422015515,0.06152977589944803,0.038338310339186395,0.0883271934213735,-0.014531830019263395
1.5014303430985318,0.04331902735671992,0.0577926316245734,0.03525172960142179,0.08720166670696589,-0.016558192705986914
1.5015018602534584,0.03989064242203222,0.04994529411529683,0.029380562295107576,0.08287420507464978,-0.019238916218528197
1.501573377408385,0.035207008956161204,0.04074033345729609,0.02275340008029923,0.07718522046370858,-0.02182930189719436
1.5016448945633116,0.029854908046904056,0.0323781267821634,0.01716592382272006,0.06929817010253615,-0.022358365167991123
1.5017164117182382,0.02460404968418353,0.025300907051240544,0.01272729457488559,0.06081614113524244,-0.021595045609312274
1.5017879288731648,0.020274028275387688,0.021035026366861286,0.010756457121333964,0.05341581881802407,-0.01931831467917345
1.5018594460280914,0.01756978332877583,0.018905100363153987,0.009814843547662735,0.0486520434552429,-0.017576822025834483
1.501930963183018,0.016887968997375314,0.01833301202703692,0.009773529530205848,0.04378295601780569,-0.015017231479744863
1.5020024803379446,0.018154766828972088,0.017520153384024385,0.009545857603491862,0.03946996032201299,-0.012912867709196328
1.5020739974928712,0.020807783027131654,0.018149104706035694,0.00997328939183271,0.03661470885281692,-0.011030254336631951
1.5021455146477978,0.023992628107040868,0.020711553026468526,0.01144212206274167,0.03639484093927724,-0.009668404721480287
1.5022170318027244,0.026898257150269028,0.025225456000809728,0.014028974316248104,0.03966981755138662,-0.009219495391919028
1.502288548957651,0.029041972437567,0.029944790328445228,0.016679671046279716,0.044417435736715735,-0.009500519297469256
1.5023600661125776,0.03036170293294545,0.03508831241961303,0.019990738498687276,0.04982655954051528,-0.00957384234705655
1.5024315832675041,0.031115659296329378,0.035956286679709897,0.02077896981185265,0.053369676262216635,-0.010793269287422445
1.5025031004224307,0.031680428730509906,0.033276256861919595,0.019519808615351825,0.05436557497090913,-0.012392498505229268
1.5025746175773573,0.032340192227813126,0.029647369529857887,0.018649627815208736,0.0525203916979363,-0.012147149116681195
1.502646134732284,0.033131945974426154,0.027050367494291083,0.017871043624403338,0.04924388316885559,-0.011061412553326662
1.5027176518872105,0.033797027787609374,0.026572489647513794,0.01799769758677829,0.04762771355228257,-0.010092878722890749
1.502789169042137,0.033871437590867574,0.02530554987099536,0.017486670760106647,0.04528451485031246,-0.009278026164943585
1.5028606861970637,0.03289397904446062,0.022106298340620348,0.015274482970942199,0.0421521535817153,-0.009485489048438057
1.5029322033519903,0.030638444170610023,0.01841622443444175,0.012011118949132128,0.03906617748049463,-0.010608485341513714
1.5030037205069169,0.02725242384486997,0.016398468530772592,0.009441040885373031,0.03710457597827176,-0.011742119718506267
1.5030752376618435,0.023245599290448483,0.017711285636169995,0.008606550278537486,0.03638175796789818,-0.01206439802063067
1.50314675481677,0.019358366958489085,0.020873331577102416,0.008953985446160287,0.036439501965878904,-0.011800735623486842
1.5032182719716967,0.01638051368297583,0.02496653882987939,0.010426555451109277,0.03691122754272967,-0.01080400952670057
1.5032897891266233,0.01497089818834955,0.02895425569652334,0.012350463029946239,0.037017215575844975,-0.00922990608332698
1.5033613062815498,0.015499460648454992,0.032194492682329115,0.013981854206916533,0.03628339725857526,-0.0074564837800528555
1.5034328234364764,0.01793079665045714,0.03263032037598223,0.01416864675154985,0.03311859029756726,-0.005613610827660542
1.503504340591403,0.021792554285279486,0.032093493804066286,0.013806564009865633,0.029650893200130153,-0.004075127685438268
1.5035758577463296,0.026283745634476982,0.034738161767710336,0.015751292513310384,0.02951114522926322,-0.0023525549875914866
1.5036473749012562,0.03053094650102892,0.03998887303784811,0.019003856556851165,0.034421955290288166,-0.0022083867948421098
1.5037188920561828,0.03389868374654469,0.046971629802512356,0.02304438568669538,0.04364006687491529,-0.0036882250278470405
1.5037904092111094,0.03619247413189749,0.055618355657194175,0.02836367437687625,0.053779464438167966,-0.004573682697773318
1.503861926366036,0.03764566473947448,0.062210191478445975,0.03246316988130233,0.06322368531925786,-0.006124647841777823
1.5039334435209626,0.038716510453014726,0.06530152129211184,0.03408384953452373,0.07149805656209811,-0.009160730604563927
1.5040049606758892,0.0398171228344044,0.06673211552871582,0.03557140334761458,0.07770312486895593,-0.011208371354363858
1.5040764778308158,0.041095739566223526,0.06998782788193217,0.037525773851031737,0.08324592499823813,-0.0125065967586782
1.5041479949857424,0.04234364882306056,0.07318101494394111,0.038887791087543686,0.08859467725288422,-0.014206840150235605
1.504219512140669,0.043051695709888996,0.07452631323802282,0.03921573232033744,0.09269860412310851,-0.01612368152668135
1.5042910292955955,0.04260283060723393,0.07010970006793872,0.036347749549566495,0.09311018976059005,-0.01878761487596972
1.5043625464505221,0.04053910287302065,0.05960246214332939,0.030363706364527798,0.08842584031005828,-0.021373552357267976
1.5044340636054487,0.03679439695722014,0.0463800310242735,0.02344001313236871,0.07884106116465125,-0.022131410033106286
1.5045055807603753,0.03178229372791513,0.03480568585392085,0.01698689592080203,0.06934523969896686,-0.02253544485911327
1.504577097915302,0.026296542555493532,0.026750612976222048,0.012446934359831944,0.060855163285961446,-0.021853635838451128
1.5046486150702285,0.021278189004975218,0.023614513229239197,0.011187449324425095,0.05434358783115254,-0.01944768076681514
1.504720132225155,0.017555651134353225,0.022508883416965393,0.011283372248322305,0.04909344430507209,-0.016567248384140084
1.5047916493800817,0.01564621916050789,0.02121907841469759,0.010644076718018416,0.04490991170689495,-0.014879784246676018
1.5048631665350083,0.015656872938766518,0.018882041226099343,0.009217644422453899,0.03967571715122835,-0.01330059046349152
1.5049346836899349,0.017286051262519187,0.017382444438980963,0.008230188330603324,0.03466735476236467,-0.011470549165022065
1.5050062008448615,0.019918755698584013,0.01731992526394726,0.007905738300784866,0.030700007017083156,-0.00963362368132203
1.505077717999788,0.022804926807040774,0.01952130316438311,0.009361654152707073,0.028379607370250647,-0.007165188550928653
1.5051492351547147,0.025289013466251117,0.02440147388905516,0.011726326065843064,0.0323813572453306,-0.007291127576207463
1.5052207523096413,0.027015644551186973,0.02935544913124662,0.014241445734319206,0.03730857460265335,-0.007782200634207234
1.5052922694645678,0.028012475009877,0.03193448370908418,0.015961322224474977,0.03982495915840584,-0.007663935420295109
1.5053637866194944,0.028596359216805502,0.028907137262055422,0.014919408532213189,0.0383437324618932,-0.007758600764464935
1.505435303774421,0.02915112616185344,0.022604306515621914,0.013309044659559194,0.0338534187556041,-0.006733278270697668
1.5055068209293476,0.029900153036102176,0.01816712926034531,0.012321918805932341,0.029979644341086097,-0.005508239292049212
1.5055783380842742,0.030782681811496897,0.017459813073838055,0.01250866989698158,0.028452318669900285,-0.004537269932687409
1.5056498552392008,0.03146961942071043,0.01968230753169829,0.013496870470295333,0.030301078439225363,-0.004683563225214126
1.5057213723941274,0.03149161794629547,0.020846857528382192,0.013134126432083434,0.033162939087006564,-0.006514022223559375
1.505792889549054,0.030427310908792447,0.020509249523677556,0.011855838401314541,0.0353709524006056,-0.008772693650178666
1.5058644067039806,0.02809465201809536,0.018609448381438753,0.009674998552531539,0.03525274981827768,-0.01055792387419451
1.5059359238589072,0.024683284499830333,0.015158871199718229,0.006168765257997816,0.03414414944058511,-0.012938594624829897
1.5060074410138338,0.020766913938386953,0.012967852155006657,0.003987129865862614,0.03249170763837271,-0.013907114939899351
1.5060789581687604,0.017165658691511196,0.014074192629298928,0.004506773893992003,0.03063266287480984,-0.012477337972547518
1.506150475323687,0.014695536880755058,0.016465852530806895,0.005603202541494299,0.029755754577747165,-0.011081779489512954
1.5062219924786135,0.013907828977730352,0.018476808519328352,0.006474304461408025,0.02831099495228655,-0.009574913291282273
1.5062935096335401,0.014929925183180436,0.018740650582282876,0.007024475314287043,0.02411020347168087,-0.006873564419903553
1.5063650267884667,0.01746107614733839,0.017633471844052794,0.006681651925523114,0.020211470827079386,-0.005089864348002124
1.5064365439433933,0.020900617081537138,0.01904069086247704,0.008103902228742074,0.01791602891455231,-0.0026640872965894907
1.50650806109832,0.024545654709518663,0.02307443725195092,0.01119024144466396,0.01686753423779678,0.0005081233364005992
1.5065795782532465,0.027795889555703463,0.030118772594538483,0.015188716512202768,0.021845545574519856,0.0012484131032883129
1.506651095408173,0.030315638754338018,0.03930846997526735,0.02020329875354711,0.02962113698616142,0.0013627880231473289
1.5067226125630997,0.03210575674634778,0.04859996280371054,0.02516307524326057,0.0386819119077137,0.000748249026305124
1.5067941297180263,0.03344435853615213,0.05401714674314074,0.02809340030703321,0.04589779549593782,-0.0006057535323712506
1.5068656468729529,0.03469846610783441,0.054525630991584646,0.028836225363534616,0.04931245123793444,-0.0017932147662911722
1.5069371640278795,0.03608805388876267,0.05355305771610354,0.029158238083419115,0.050612093227305914,-0.002211909176299345
1.507008681182806,0.03753193323000867,0.05336592644420622,0.029645090979329304,0.05262109500595631,-0.002868502590793365
1.5070801983377327,0.038657419159163646,0.053520414684685984,0.03000532215028713,0.05392737060519205,-0.003258405412887211
1.5071517154926592,0.038950459296790155,0.052362431671990055,0.029635790998015537,0.05337880748594491,-0.0032800071902838734
1.5072232326475858,0.03795818995272562,0.047050313952720406,0.026170643808596194,0.05135331848631773,-0.0051430398453661845
1.5072947498025124,0.035465807062779846,0.04025958804495638,0.02167628316777021,0.047865867482787545,-0.007099319152600943
1.507366266957439,0.03160750390290827,0.0346289144172735,0.01779655130545853,0.04442877845354172,-0.008559439893139814
1.5074377841123656,0.02689036393457737,0.02979475410468213,0.014369878001425985,0.04171312841637154,-0.010018603398375852
1.5075093012672922,0.022110982309926926,0.025455548436951445,0.012274203971852665,0.038363536943867745,-0.01001136078166152
1.5075808184222188,0.018158898886019043,0.02255592812761588,0.010838451012952628,0.03708394269927145,-0.010546897618389835
1.5076523355771454,0.015750547010193554,0.02075017281326398,0.009985828883372298,0.03517777657460574,-0.010254610993936576
1.507723852732072,0.015198153002695225,0.017532049777239486,0.008495434228764531,0.030315794515657316,-0.008929508223054853
1.5077953698869986,0.01632710132796861,0.013350616952410951,0.006411917338543193,0.023872587779625684,-0.0072660600298174935
1.5078668870419252,0.01858159605132472,0.010355607302773982,0.00521914285473996,0.017563992157185036,-0.004920421212097729
1.5079384041968518,0.02125563485920751,0.008665473064580213,0.005152249488431391,0.011678425299891578,-0.001846783779732582
1.5080099213517784,0.023737553869918368,0.008596920524439259,0.0057615299185219465,0.00891464370456033,0.0001390349989578768
1.508081438506705,0.025680396681245936,0.010607958113938347,0.007453924502377228,0.00833385885754284,0.0018813042281815217
1.5081529556616315,0.027059576075294776,0.012512075097786533,0.008842952470356694,0.008737490826968923,0.002843181134048148
1.5082244728165581,0.028112039179855254,0.011834761845183315,0.008942296206187028,0.007960353977251176,0.0033405659771783484
1.5082959899714847,0.029172386947160022,0.009677702183668075,0.008780907310022895,0.007030500564959569,0.0036983091548203123
1.5083675071264113,0.03045818310099522,0.009634158190105744,0.010026451111954632,0.007364354228567325,0.004575773207219693
1.508439024281338,0.03190386747651281,0.013587697380775657,0.012747040105629182,0.010527271439276663,0.00519850111955323
1.5085105414362645,0.03314377564440417,0.01952576783016078,0.01600259242207933,0.01596673107507439,0.005064339458682015
1.508582058591191,0.03366149064758627,0.024482396560264436,0.0186299276568245,0.02069155585673571,0.004778328763521865
1.5086535757461177,0.03301661123576188,0.024342445947381403,0.017302793300784304,0.022785871430353818,0.0025398488324067537
1.5087250929010443,0.031031763736761156,0.020341823652218437,0.013978643770450466,0.022059332680909285,0.00010932796242243623
1.5087966100559709,0.02787943173947238,0.015107459114424222,0.009773118861112214,0.0191745344777168,-0.0019194223173094151
1.5088681272108975,0.024071143965329337,0.010250505214967865,0.005405399448016361,0.016917398652263962,-0.004418731435134841
1.508939644365824,0.020368522042175177,0.006329087448889621,0.002619426200917792,0.014242228902196726,-0.005355542440411244
1.5090111615207507,0.017622660517009992,0.004363106583436084,0.001280243020763253,0.013460094110776673,-0.006073759089447785
1.5090826786756772,0.016549556574789192,0.003688304624554208,0.001094148915450876,0.013606159594618257,-0.006309053675751026
1.5091541958306038,0.01749078347259404,0.0037064174683076115,0.001728275756159572,0.012480806259518048,-0.0051734698089679915
1.5092257129855304,0.02026609634215111,0.004323870935871021,0.002622344403247119,0.009787976551643507,-0.0029841367798923283
1.509297230140457,0.024225306810832306,0.007882917511426049,0.005090188490138515,0.00836818652951546,-0.00013897129754864945
1.5093687472953836,0.028505184243561566,0.01599561485634394,0.010396256019729185,0.009803808172647636,0.0035918748482645
1.5094402644503102,0.032363241212534366,0.027122204576712466,0.017181792517199104,0.015066015265812992,0.006542397643139022
1.5095117816052368,0.035420479974014,0.039268352390555365,0.023785576506019895,0.02272489744519352,0.008067182042992763
1.5095832987601634,0.03772295943106026,0.04817077657282896,0.028541189697550762,0.028441792842982722,0.009060285994064336
1.50965481591509,0.039632532833370364,0.050688176723052716,0.030196375009199177,0.030884227635943628,0.009165771803789777
1.5097263330700166,0.041605230836871475,0.04588248749508557,0.028415936049993602,0.029431805073186018,0.008427688526328197
1.5097978502249432,0.04392716574129624,0.03858616541444357,0.026087173799228647,0.023629587854259265,0.009537542385718962
1.5098693673798698,0.04649881119729661,0.03442034880206639,0.025125670272120693,0.01803841368783692,0.011694490616311141
1.5099408845347964,0.048782229516577,0.03460000413981323,0.025898717163670308,0.016649091150402782,0.013088196974574435
1.510012401689723,0.04998265464348263,0.0375325556423974,0.027970420605425636,0.017499881382206872,0.014392226405872895
1.5100839188446495,0.04939582665258717,0.03801720861677098,0.02744804663090382,0.01811690369814409,0.013621470958034818
1.5101554359995761,0.046726633743720845,0.03553864406930155,0.024915387052692306,0.017608925612994278,0.011744528449326278
1.5102269531545027,0.04221494386441091,0.0327002503332213,0.022036546886626967,0.01654648819083699,0.009869257345947938
1.5102984703094293,0.0365554045951188,0.03106143344878433,0.019143160662124768,0.017594858563433808,0.00685985043263699
1.510369987464356,0.030705701566729478,0.031038268781174556,0.01712115674686206,0.020381681231357408,0.0036644933184597325
1.5104415046192825,0.025671938650474672,0.03219641428460558,0.016152578444133103,0.02400944638715565,0.0009142915951789626
1.510513021774209,0.02230380117340663,0.033849483566611514,0.01595046449902194,0.027932924844987536,-0.0013440828577614965
1.5105845389291357,0.02110478427342222,0.03244217794485473,0.014310671393420193,0.028759158450787654,-0.0031734242830365844
1.5106560560840623,0.022087028251984653,0.027360125194291277,0.011927341615445858,0.024112456197470475,-0.00272092531867316
1.5107275732389889,0.02474352062355467,0.019180573538615325,0.008315005741078718,0.016669314511334344,-0.001822164778059242
1.5107990903939155,0.028206425428266402,0.012947370334704875,0.006455089330600415,0.009273364606781081,0.0005357032201335119
1.510870607548842,0.03156791810921427,0.010085463674713841,0.006924877381908108,0.004376998434713152,0.0035372760193453324
1.5109421247037687,0.034217944840168574,0.010411241082405102,0.0085255112555674,0.0036302483024125962,0.005290007474568161
1.5110136418586952,0.036025983655989566,0.01376807495730505,0.01161661354179527,0.005494208362471871,0.006917043333319085
1.5110851590136218,0.03729532439305516,0.015453642344333033,0.013294021431409462,0.007842660556475832,0.007089247744770039
1.5111566761685484,0.03854470610167679,0.01409584001527716,0.013163190298163863,0.01017633585159516,0.00573762385399853
1.511228193323475,0.04022460916569971,0.012722661276314925,0.013651672900344249,0.010284799812830996,0.006093758268364757
1.5112997104784016,0.04246467581659284,0.01364110928478136,0.01442102957265151,0.01085733810867969,0.0064410982234933975
1.5113712276333282,0.04493429586497486,0.01867972926466742,0.016921655013448497,0.014100782017776646,0.006835183210338651
1.5114427447882548,0.04689231770787431,0.024530328727968898,0.019784155718843215,0.0179930478099365,0.00719135050694716
1.5115142619431814,0.047454803887083834,0.0269733292285021,0.02007376929597759,0.020424343333479814,0.006144088245260512
