freq,gls,usurper,pdc_unbiased,shape_periodogram,shift_periodogram
1.5,0.031605246424144244,0.03372874152671149,0.022003088454338578,0.04298758371777908,0.0005106862868200214
1.5000715171549266,0.028595336453250155,0.02727178219611027,0.01679692217781675,0.03655039207724666,-0.0012793814058951547
1.5001430343098532,0.024797888546036324,0.02194978590797891,0.011419584810450916,0.031689254487990356,-0.003924571903857402
1.5002145514647798,0.020789812632417533,0.020834103716719836,0.008796510756732951,0.02803912887837432,-0.004643118483950764
1.5002860686197064,0.017345459787468324,0.024109918910254092,0.009479677332466734,0.027113795947749663,-0.0036182489495066917
1.500357585774633,0.015271945925960987,0.029385897515938716,0.011714688134418397,0.028148899231887795,-0.002079291994497678
1.5004291029295596,0.015165201318802408,0.035371237141148655,0.01415548030345099,0.03183558495831319,-0.0015397896382983848
1.5005006200844861,0.01716595655706576,0.040988642208555734,0.016954003693511403,0.03482421537213291,-0.00036774674659264926
1.5005721372394127,0.02086274426290797,0.045581630586530246,0.019187221778694714,0.03812555478557285,0.00015870382431697907
1.5006436543943393,0.02544081002802935,0.049521145915634716,0.02137618975240262,0.041420713804323064,0.0006486463628375096
1.500715171549266,0.03000884122307953,0.05360819669133704,0.02421994995090846,0.043608069595804363,0.002220842332373431
1.5007866887041925,0.03391266896856934,0.05826451047336942,0.02666061786266369,0.04854879823295438,0.0022025859875764576
1.500858205859119,0.0368882624749449,0.06329726734039605,0.029368029530911475,0.05418657986517468,0.002112704794189368
1.5009297230140457,0.0390355018056212,0.06835125787638777,0.03287087235373193,0.06098136881327105,0.0022205140962249254
1.5010012401689723,0.04067274274449097,0.0695482633506547,0.0349635290275476,0.06526255903985836,0.002186328212254175
1.5010727573238989,0.04213722341942038,0.06858874116761318,0.036798409825528795,0.06709230383129496,0.003017053774193669
1.5011442744788255,0.043587855733941964,0.06744345612495639,0.03793328428010061,0.06928475560028056,0.0030568518758805163
1.501215791633752,0.044880915226329254,0.06604991199518054,0.03824814004694497,0.07143040467725313,0.002380390259412233
1.5012873087886787,0.045592465454410994,0.06624342497042697,0.03896037083855539,0.07447700506678319,0.0016580505233183835
1.5013588259436053,0.04519857422015515,0.06517680225381668,0.038338310339186395,0.07482894303945356,0.0009410952522975585
1.5014303430985318,0.04331902735671992,0.06149260290043649,0.03525172960142179,0.07477477437883337,-0.001810202132941181
1.5015018602534584,0.03989064242203222,0.05370525764363758,0.029380562295107576,0.07235239156488106,-0.006001984790492745
1.501573377408385,0.035207008956161204,0.04433962891675752,0.02275340008029923,0.06897195615836502,-0.010438660164146237
1.5016448945633116,0.029854908046904056,0.03586747351320819,0.01716592382272006,0.06353653444673925,-0.013016981352829044
1.5017164117182382,0.02460404968418353,0.02854275816674223,0.01272729457488559,0.057025267707194,-0.014080817339833752
1.5017879288731648,0.020274028275387688,0.023950881225441888,0.010756457121333964,0.05118677597000511,-0.013233881931857731
1.5018594460280914,0.01756978332877583,0.021641727153600056,0.009814843547662735,0.04732777734362248,-0.012351136207066767
1.501930963183018,0.016887968997375314,0.021107963897387335,0.009773529530205848,0.043633103073375513,-0.010735928448160592
1.5020024803379446,0.018154766828972088,0.02032879858623805,0.009545857603491862,0.04067477593989769,-0.00961733792337289
1.5020739974928712,0.020807783027131654,0.021256921821386464,0.00997328939183271,0.039018608113906235,-0.008494297960418482
1.5021455146477978,0.023992628107040868,0.024398662734439282,0.01144212206274167,0.03957535638667013,-0.007427551585414239
1.5022170318027244,0.026898257150269028,0.029578696428562777,0.014028974316248104,0.04239958691725678,-0.0063724502121096285
1.502288548957651,0.029041972437567,0.03496936341146422,0.016679671046279716,0.045892490418710186,-0.0055585427962693895
1.5023600661125776,0.03036170293294545,0.04043425291380303,0.019990738498687276,0.04950029374489403,-0.004203473295304909
1.5024315832675041,0.031115659296329378,0.0410700528698459,0.02077896981185265,0.05111649619061631,-0.004219309298908812
1.5025031004224307,0.031680428730509906,0.03779663553357379,0.019519808615351825,0.050551221434412916,-0.005095500111376732
1.5025746175773573,0.032340192227813126,0.03312102494997405,0.018649627815208736,0.047593864706777615,-0.004553470252049486
1.502646134732284,0.033131945974426154,0.029643935273232603,0.017871043624403338,0.043732505361694846,-0.0035255221441123463
1.5027176518872105,0.033797027787609374,0.02861456768533637,0.01799769758677829,0.041877879054713615,-0.002583333898498028
1.502789169042137,0.033871437590867574,0.026855367288261812,0.017486670760106647,0.0391867122912266,-0.001838976467051171
1.5028606861970637,0.03289397904446062,0.023451580222728596,0.015274482970942199,0.03617324248345965,-0.002474762208762146
1.5029322033519903,0.030638444170610023,0.020050811593282394,0.012011118949132128,0.03380088322824253,-0.004337998838681297
1.5030037205069169,0.02725242384486997,0.018595548412295913,0.009441040885373031,0.03287232011762681,-0.006224730590454343
1.5030752376618435,0.023245599290448483,0.021061308211582034,0.008606550278537486,0.033457349488140206,-0.0072333072898486004
1.50314675481677,0.019358366958489085,0.025444990207399366,0.008953985446160287,0.03445960970611947,-0.007369969471526957
1.5032182719716967,0.01638051368297583,0.03051972384740358,0.010426555451109277,0.03533344469764549,-0.00644169122539604
1.5032897891266233,0.01497089818834955,0.03515698724601053,0.012350463029946239,0.03598518939796038,-0.005009831186400034
1.5033613062815498,0.015499460648454992,0.03877919158962953,0.013981854206916533,0.035704714175452915,-0.0034233448502280746
1.5034328234364764,0.01793079665045714,0.03934968684049493,0.01416864675154985,0.033168025570536254,-0.00212304153594591
1.503504340591403,0.021792554285279486,0.038998423960676265,0.013806564009865633,0.030468240200411806,-0.0012416888124021424
1.5035758577463296,0.026283745634476982,0.04195863842115624,0.015751292513310384,0.030519817700614578,0.00047697769413192957
1.5036473749012562,0.03053094650102892,0.04775445971471365,0.019003856556851165,0.03455856485972282,0.0015872607840662601
1.5037188920561828,0.03389868374654469,0.055446070725363915,0.02304438568669538,0.04196334881870089,0.0019015454875777
1.5037904092111094,0.03619247413189749,0.06468769717326528,0.02836367437687625,0.049193466080182685,0.0034422123818888114
1.503861926366036,0.03764566473947448,0.07154747341322368,0.03246316988130233,0.05560105381287887,0.004258677206745486
1.5039334435209626,0.038716510453014726,0.07477696586378052,0.03408384953452373,0.06130359706278019,0.0031658261888173247
1.5040049606758892,0.0398171228344044,0.07589046182209853,0.03557140334761458,0.06555405413942944,0.0026021664314547746
1.5040764778308158,0.041095739566223526,0.07920576147889431,0.037525773851031737,0.07008446800422302,0.002332891033220667
1.5041479949857424,0.04234364882306056,0.08258667682454193,0.038887791087543686,0.0749214953059529,0.0013938945127726181
1.504219512140669,0.043051695709888996,0.08379798914688873,0.03921573232033744,0.0786930730026955,9.119150165665071e-07
1.5042910292955955,0.04260283060723393,0.07878908647386951,0.036347749549566495,0.07935123957805999,-0.0028739078350214064
1.5043625464505221,0.04053910287302065,0.06720891629482478,0.030363706364527798,0.07576279788093558,-0.006646360494401451
1.5044340636054487,0.03679439695722014,0.05239584092647832,0.02344001313236871,0.06778743213407792,-0.009291767508897817
1.5045055807603753,0.03178229372791513,0.039489762044223324,0.01698689592080203,0.06009684124995622,-0.011637212221794943
1.504577097915302,0.026296542555493532,0.0306776401609734,0.012446934359831944,0.05343289152969474,-0.012724160220713864
1.5046486150702285,0.021278189004975218,0.027195367328361492,0.011187449324425095,0.04821991849540147,-0.011520493676935488
1.504720132225155,0.017555651134353225,0.025784345942509022,0.011283372248322305,0.044092441051336154,-0.00958883776987689
1.5047916493800817,0.01564621916050789,0.024367411816442232,0.010644076718018416,0.04107648881537453,-0.008813265096533332
1.5048631665350083,0.015656872938766518,0.02195055188339504,0.009217644422453899,0.03747663504538965,-0.008481935824332393
1.5049346836899349,0.017286051262519187,0.020676023178668217,0.008230188330603324,0.034175469163016836,-0.007891137615200572
1.5050062008448615,0.019918755698584013,0.021236149217890504,0.007905738300784866,0.03178146386894352,-0.007112143961859083
1.505077717999788,0.022804926807040774,0.024073918047580925,0.009361654152707073,0.030428707404658247,-0.005204321317181727
1.5051492351547147,0.025289013466251117,0.02975293028304176,0.011726326065843064,0.0341277559586464,-0.004739059773703745
1.5052207523096413,0.027015644551186973,0.035386732393419516,0.014241445734319206,0.037639471546707076,-0.0040551077830179635
1.5052922694645678,0.028012475009877,0.03808515517364209,0.015961322224474977,0.038584061077369454,-0.002936375408842005
1.5053637866194944,0.028596359216805502,0.0344601067470015,0.014919408532213189,0.035715292827754465,-0.002588275868195456
1.505435303774421,0.02915112616185344,0.02655225817873231,0.013309044659559194,0.03000440078561273,-0.0014801191511260657
1.5055068209293476,0.029900153036102176,0.020787995535278863,0.012321918805932341,0.025396885900547395,-0.00030685703842190325
1.5055783380842742,0.030782681811496897,0.019446371247906987,0.01250866989698158,0.02322834929786616,0.000828418837759265
1.5056498552392008,0.03146961942071043,0.02163170272699513,0.013496870470295333,0.024512167565534877,0.0011401380209280652
1.5057213723941274,0.03149161794629547,0.02301205910414367,0.013134126432083434,0.02680967541670315,-0.00021033337221768906
1.505792889549054,0.030427310908792447,0.023146865024985957,0.011855838401314541,0.029021285314516584,-0.0023424487478384093
1.5058644067039806,0.02809465201809536,0.021623810080632216,0.009674998552531539,0.02956934199990374,-0.004539948558470392
1.5059359238589072,0.024683284499830333,0.018448219308568818,0.006168765257997816,0.029324590273363368,-0.00756980870416631
1.5060074410138338,0.020766913938386953,0.016474374914748856,0.003987129865862614,0.028879494448763882,-0.00932401086446678
1.5060789581687604,0.017165658691511196,0.017780449151192174,0.004506773893992003,0.02769782092055222,-0.008331030284852856
1.506150475323687,0.014695536880755058,0.020529989989733356,0.005603202541494299,0.027461498423722887,-0.007243977235333738
1.5062219924786135,0.013907828977730352,0.022999178715387536,0.006474304461408025,0.026886310147031866,-0.006207277339578331
1.5062935096335401,0.014929925183180436,0.023235389604662225,0.007024475314287043,0.023607769987458414,-0.004250748076417196
1.5063650267884667,0.01746107614733839,0.022057742728919687,0.006681651925523114,0.020814101398362015,-0.0033103283656110653
1.5064365439433933,0.020900617081537138,0.023673627155231098,0.008103902228742074,0.019479437196412496,-0.0014413948823600582
1.50650806109832,0.024545654709518663,0.028151790851186305,0.01119024144466396,0.018527867860706808,0.0017461688340179487
1.5065795782532465,0.027795889555703463,0.03598726973409149,0.015188716512202768,0.022169077195163863,0.003700857575530234
1.506651095408173,0.030315638754338018,0.046250495429880016,0.02020329875354711,0.027404649108444968,0.005855112518606319
1.5067226125630997,0.03210575674634778,0.05662569465998694,0.02516307524326057,0.03355518344553962,0.007554028824106044
1.5067941297180263,0.03344435853615213,0.06277282054082976,0.02809340030703321,0.038376648034210696,0.008028990866990335
1.5068656468729529,0.03469846610783441,0.06321853566776964,0.028836225363534616,0.04046278102248208,0.007763996445647463
1.5069371640278795,0.03608805388876267,0.06180126896096011,0.029158238083419115,0.04112154360331363,0.007758732424772508
1.507008681182806,0.03753193323000867,0.061163224329519754,0.029645090979329304,0.042970309849785206,0.0073701717784167495
1.5070801983377327,0.038657419159163646,0.06109623902393943,0.03000532215028713,0.0445323244383575,0.006996021682935722
1.5071517154926592,0.038950459296790155,0.05947969439284543,0.029635790998015537,0.044186884205282016,0.006818789065657738
1.5072232326475858,0.03795818995272562,0.053750217191406276,0.026170643808596194,0.04275249546060395,0.004351824870351724
1.5072947498025124,0.035465807062779846,0.04656780796517787,0.02167628316777021,0.04027318769264748,0.0014301136945657723
1.507366266957439,0.03160750390290827,0.04060951574673558,0.01779655130545853,0.03770158150396106,-0.000897969726605877
1.5074377841123656,0.02689036393457737,0.03540737084141355,0.014369878001425985,0.035883665435116424,-0.003155719785930642
1.5075093012672922,0.022110982309926926,0.0303014842471419,0.012274203971852665,0.0330628130053549,-0.0037727202187365547
1.5075808184222188,0.018158898886019043,0.026691567896784608,0.010838451012952628,0.03220569017850322,-0.00467563176582103
1.5076523355771454,0.015750547010193554,0.024408617376906475,0.009985828883372298,0.030914868746644307,-0.004862571394845455
1.507723852732072,0.015198153002695225,0.020708331096122107,0.008495434228764531,0.027256894153755845,-0.004563348643332853
1.5077953698869986,0.01632710132796861,0.016106484914937,0.006411917338543193,0.022766479412146417,-0.00442345502785701
1.5078668870419252,0.01858159605132472,0.012813435405409706,0.00521914285473996,0.018620695783414618,-0.003640197245743616
1.5079384041968518,0.02125563485920751,0.011003352106493761,0.005152249488431391,0.014358226280649146,-0.0017973448830058939
1.5080099213517784,0.023737553869918368,0.010970497625287094,0.0057615299185219465,0.012052193419327801,-0.000222759374507398
1.508081438506705,0.025680396681245936,0.01316239078382467,0.007453924502377228,0.010912322231337293,0.0018006778495807362
1.5081529556616315,0.027059576075294776,0.015208025928552922,0.008842952470356694,0.009872734243760558,0.0035078293453787556
1.5082244728165581,0.028112039179855254,0.014359767686136043,0.008942296206187028,0.0073341503092603216,0.004729607935121716
1.5082959899714847,0.029172386947160022,0.011567373601281997,0.008780907310022895,0.004760216302806441,0.0057337800148947625
1.5083675071264113,0.03045818310099522,0.010936578848230523,0.010026451111954632,0.003943328803670218,0.0072130169954121755
1.508439024281338,0.03190386747651281,0.014908348852815617,0.012747040105629182,0.006534094129960878,0.008491895191964556
1.5085105414362645,0.03314377564440417,0.02135243058426798,0.01600259242207933,0.011562872594540407,0.009162225787238649
1.508582058591191,0.03366149064758627,0.02659361029037864,0.0186299276568245,0.015904255417946312,0.009577492928776772
1.5086535757461177,0.03301661123576188,0.026877628334002684,0.017302793300784304,0.0181625408889502,0.007381676420490581
1.5087250929010443,0.031031763736761156,0.022964759138529408,0.013978643770450466,0.018420158625829477,0.004290535548472314
1.5087966100559709,0.02787943173947238,0.01770443523080457,0.009773118861112214,0.01698208532957469,0.0011675279472236726
1.5088681272108975,0.024071143965329337,0.012925960538940866,0.005405399448016361,0.01613558830997962,-0.0023641298055139255
1.508939644365824,0.020368522042175177,0.008876326910241181,0.002619426200917792,0.014269667528959881,-0.004024665789670964
1.5090111615207507,0.017622660517009992,0.0065489610839441605,0.001280243020763253,0.0135002243112681,-0.00487970875206063
1.5090826786756772,0.016549556574789192,0.005407744112486964,0.001094148915450876,0.013624272231101886,-0.005101624383098341
1.5091541958306038,0.01749078347259404,0.005030417546895084,0.001728275756159572,0.012819534440882267,-0.004174903646601909
1.5092257129855304,0.02026609634215111,0.005476475693193216,0.002622344403247119,0.01069749674201518,-0.0024275891594162536
1.509297230140457,0.024225306810832306,0.00944262166952588,0.005090188490138515,0.009967898324153889,0.00010665696052635423
1.5093687472953836,0.028505184243561566,0.01856917951042901,0.010396256019729185,0.011879724678681546,0.004002460714195701
1.5094402644503102,0.032363241212534366,0.03114828515100383,0.017181792517199104,0.0167194690006728,0.007917214636837753
1.5095117816052368,0.035420479974014,0.04506363884304832,0.023785576506019895,0.023073557795650037,0.010996267776548503
1.5095832987601634,0.03772295943106026,0.05536541914310519,0.028541189697550762,0.027217191882483067,0.013408641342603698
1.50965481591509,0.039632532833370364,0.05831195172640998,0.030196375009199177,0.028302979389099286,0.014407707280573058
1.5097263330700166,0.041605230836871475,0.05278422189515808,0.028415936049993602,0.025812666990835283,0.013922768131300086
1.5097978502249432,0.04392716574129624,0.044111253724896944,0.026087173799228647,0.019499188707420113,0.014652016870534367
1.5098693673798698,0.04649881119729661,0.03889358882976541,0.025125670272120693,0.013739051279813539,0.01635955714929844
1.5099408845347964,0.048782229516577,0.03857038232155501,0.025898717163670308,0.012309258804111548,0.017689342095274393
1.510012401689723,0.04998265464348263,0.041439251804001,0.027970420605425636,0.013159706888597257,0.01916532858794281
1.5100839188446495,0.04939582665258717,0.042242694076739105,0.02744804663090382,0.01410242141538608,0.018277225216944876
1.5101554359995761,0.046726633743720845,0.04014651522378853,0.024915387052692306,0.014332785430943951,0.015906490036865232
1.5102269531545027,0.04221494386441091,0.037643464627393854,0.022036546886626967,0.014404213163299946,0.013296818896719478
1.5102984703094293,0.0365554045951188,0.036572057814148747,0.019143160662124768,0.016514947508012058,0.00976457444204477
1.510369987464356,0.030705701566729478,0.03730633676879969,0.01712115674686206,0.020108340452616606,0.006350810612876395
1.5104415046192825,0.025671938650474672,0.039055163567372785,0.016152578444133103,0.02383163999981704,0.0038219152071577965
1.510513021774209,0.02230380117340663,0.04101874297407054,0.01595046449902194,0.027605636768771157,0.0019563676358232904
1.5105845389291357,0.02110478427342222,0.039545815244932524,0.014310671393420193,0.028678236078631025,9.003087681163953e-06
1.5106560560840623,0.022087028251984653,0.03350347394707543,0.011927341615445858,0.024788494633565052,-0.0003885399215479644
1.5107275732389889,0.02474352062355467,0.02395244600405792,0.008315005741078718,0.018747033355318115,-0.0009254882142032265
1.5107990903939155,0.028206425428266402,0.01640585802572235,0.006455089330600415,0.012559532298287138,0.00017154415203245312
1.510870607548842,0.03156791810921427,0.01248048149115382,0.006924877381908108,0.00806691972894587,0.002597045302351104
1.5109421247037687,0.034217944840168574,0.012281630770721561,0.0085255112555674,0.006671604386919887,0.0046522546669026405
1.5110136418586952,0.036025983655989566,0.015561887500806755,0.01161661354179527,0.007102839701805895,0.0072263572629604565
1.5110851590136218,0.03729532439305516,0.017129331941514614,0.013294021431409462,0.007738274302782191,0.008444171884445038
1.5111566761685484,0.03854470610167679,0.015334341447491068,0.013163190298163863,0.00856757728628217,0.007957041568481572
1.511228193323475,0.04022460916569971,0.01343642853885362,0.013651672900344249,0.007910205191373873,0.008687578779139782
1.5112997104784016,0.04246467581659284,0.014256999349725671,0.01442102957265151,0.008100605889156252,0.009291257326580296
1.5113712276333282,0.04493429586497486,0.019742822939936944,0.016921655013448497,0.011153337252650877,0.010167669253839804
1.5114427447882548,0.04689231770787431,0.026141613099599115,0.019784155718843215,0.014872469070805652,0.011071219467027434
1.5115142619431814,0.047454803887083834,0.02910980895353105,0.02007376929597759,0.017688855132082716,0.010074143528997022
