freq,gls,usurper,pdc_unbiased,shape_periodogram,shift_periodogram
1.5,0.031605246424144244,0.02634188943811478,0.022003088454338578,0.031302302662651056,-0.019720619297527043
1.5000715171549266,0.028595336453250155,0.020290407550030042,0.01679692217781675,0.024933551592618484,-0.016002569296711195
1.5001430343098532,0.024797888546036324,0.014873028419913996,0.011419584810450916,0.021282075431759896,-0.01483968798304418
1.5002145514647798,0.020789812632417533,0.013288176840655542,0.008796510756732951,0.020617259669773184,-0.015293430560236184
1.5002860686197064,0.017345459787468324,0.015688788046430147,0.009479677332466734,0.02308400913795648,-0.017273062428611336
1.500357585774633,0.015271945925960987,0.01990665193607571,0.011714688134418397,0.0266010093336631,-0.01958537426113453
1.5004291029295596,0.015165201318802408,0.02423291818481506,0.01415548030345099,0.03112622692766337,-0.022737041261787543
1.5005006200844861,0.01716595655706576,0.028269158911687315,0.016954003693511403,0.03357929509721262,-0.02384850030509768
1.5005721372394127,0.02086274426290797,0.03109119010437866,0.019187221778694714,0.03481247808288224,-0.024072690961499135
1.5006436543943393,0.02544081002802935,0.03362232255450583,0.02137618975240262,0.03646051332629204,-0.02469436087119579
1.500715171549266,0.03000884122307953,0.03653609409139857,0.02421994995090846,0.037860666006043,-0.024823952308257662
1.5007866887041925,0.03391266896856934,0.039660299285659145,0.02666061786266369,0.04262745633934152,-0.028198162267360282
1.500858205859119,0.0368882624749449,0.04301850509598479,0.029368029530911475,0.047973642166702024,-0.03199564893875044
1.5009297230140457,0.0390355018056212,0.04696164616718481,0.03287087235373193,0.054217257202706766,-0.036293990341544506
1.5010012401689723,0.04067274274449097,0.04849090114133886,0.0349635290275476,0.05830729261346929,-0.03919256095026565
1.5010727573238989,0.04213722341942038,0.048997702544292414,0.036798409825528795,0.06001356706059216,-0.040012163844908875
1.5011442744788255,0.043587855733941964,0.04920566538060371,0.03793328428010061,0.062090295310648504,-0.04145509883691643
1.501215791633752,0.044880915226329254,0.049053654812078164,0.03824814004694497,0.06480188709667661,-0.043812572408049255
1.5012873087886787,0.045592465454410994,0.049817949186832224,0.03896037083855539,0.06828166178110666,-0.04671361815126367
1.5013588259436053,0.04519857422015515,0.04887927516392644,0.038338310339186395,0.06822695752334795,-0.046915588478186776
1.5014303430985318,0.04331902735671992,0.04554123998529503,0.03525172960142179,0.06657958850897193,-0.0466561802600883
1.5015018602534584,0.03989064242203222,0.03883883548212531,0.029380562295107576,0.06235569552223533,-0.045163116248744375
1.501573377408385,0.035207008956161204,0.030985885395617835,0.02275340008029923,0.05673503138164493,-0.04269678964824477
1.5016448945633116,0.029854908046904056,0.024221948145109713,0.01716592382272006,0.051274796078901654,-0.0399577155004057
1.5017164117182382,0.02460404968418353,0.01876519146320933,0.01272729457488559,0.04608050065735936,-0.03699855037695531
1.5017879288731648,0.020274028275387688,0.01598219750733451,0.010756457121333964,0.04179952199916905,-0.03387806238386429
1.5018594460280914,0.01756978332877583,0.014821655157120738,0.009814843547662735,0.038860742342545884,-0.031569949007663585
1.501930963183018,0.016887968997375314,0.015163215022521014,0.009773529530205848,0.03610033588363329,-0.029061073503182322
1.5020024803379446,0.018154766828972088,0.015239290801056734,0.009545857603491862,0.03436223491975481,-0.027563033171010654
1.5020739974928712,0.020807783027131654,0.01648823586697617,0.00997328939183271,0.03394549625359748,-0.02700882857842719
1.5021455146477978,0.023992628107040868,0.019350195417249555,0.01144212206274167,0.0362492370540046,-0.02852218090005792
1.5022170318027244,0.026898257150269028,0.023597846187350103,0.014028974316248104,0.04120229747819289,-0.032007620789381644
1.502288548957651,0.029041972437567,0.027461550157041395,0.016679671046279716,0.045580923642830874,-0.03494238274395035
1.5023600661125776,0.03036170293294545,0.031400036073941325,0.019990738498687276,0.048743065349557774,-0.036497060514180446
1.5024315832675041,0.031115659296329378,0.03156891357407736,0.02077896981185265,0.049676580956517426,-0.03703267865537466
1.5025031004224307,0.031680428730509906,0.028713551933997297,0.019519808615351825,0.047146221408752895,-0.03522585644174648
1.5025746175773573,0.032340192227813126,0.025595799343720305,0.018649627815208736,0.04260959085847852,-0.03142562058066203
1.502646134732284,0.033131945974426154,0.02319563941735892,0.017871043624403338,0.03846434947751732,-0.027947203372550054
1.5027176518872105,0.033797027787609374,0.022689916513560178,0.01799769758677829,0.03752227374230994,-0.02703385468317521
1.502789169042137,0.033871437590867574,0.021378224043731766,0.017486670760106647,0.03601409268729549,-0.025860670508290034
1.5028606861970637,0.03289397904446062,0.01826935926675634,0.015274482970942199,0.033014298270604474,-0.024011455760589093
1.5029322033519903,0.030638444170610023,0.014923811897185774,0.012011118949132128,0.03129358309085157,-0.023758077844785747
1.5030037205069169,0.02725242384486997,0.0130704860445679,0.009441040885373031,0.031104794578162762,-0.02462545492087845
1.5030752376618435,0.023245599290448483,0.014213071232155197,0.008606550278537486,0.033863865605247734,-0.02748714790168034
1.50314675481677,0.019358366958489085,0.016883804620127663,0.008953985446160287,0.03671773807796844,-0.02995749910415461
1.5032182719716967,0.01638051368297583,0.02034215095080547,0.010426555451109277,0.03934778205239624,-0.031768117462462
1.5032897891266233,0.01497089818834955,0.02364922505837507,0.012350463029946239,0.040458233222350495,-0.03200586586447486
1.5033613062815498,0.015499460648454992,0.026160070266583485,0.013981854206916533,0.03999567920355241,-0.030922523475900597
1.5034328234364764,0.01793079665045714,0.026253362801559925,0.01416864675154985,0.03763865910988617,-0.02869015957171067
1.503504340591403,0.021792554285279486,0.025751038023369793,0.013806564009865633,0.035397643237550354,-0.02678620187008998
1.5035758577463296,0.026283745634476982,0.028570647629108572,0.015751292513310384,0.03704088903457456,-0.027502665547132193
1.5036473749012562,0.03053094650102892,0.033617461774498654,0.019003856556851165,0.04298926371182792,-0.0316297347599982
1.5037188920561828,0.03389868374654469,0.03987783638800015,0.02304438568669538,0.05256053052065135,-0.03875629324580776
1.5037904092111094,0.03619247413189749,0.04707931885327037,0.02836367437687625,0.06111234707961862,-0.04443566315212398
1.503861926366036,0.03764566473947448,0.05247435919418552,0.03246316988130233,0.0689237674381158,-0.04993417548118273
1.5039334435209626,0.038716510453014726,0.05487445589400457,0.03408384953452373,0.07437337371513655,-0.054274169029348576
1.5040049606758892,0.0398171228344044,0.05626145803510813,0.03557140334761458,0.07795249226107696,-0.056954312160842985
1.5040764778308158,0.041095739566223526,0.05871439680462785,0.037525773851031737,0.08030688331622463,-0.0583227849455631
1.5041479949857424,0.04234364882306056,0.0610816907373301,0.038887791087543686,0.08318339291851458,-0.060410556087562114
1.504219512140669,0.043051695709888996,0.06194815065212414,0.03921573232033744,0.0853159501903606,-0.06223481343906794
1.5042910292955955,0.04260283060723393,0.057788168908531876,0.036347749549566495,0.08260492683273539,-0.060907975907566796
1.5043625464505221,0.04053910287302065,0.04875588409805789,0.030363706364527798,0.07541625205181562,-0.05673585281200106
1.5044340636054487,0.03679439695722014,0.03754590924159938,0.02344001313236871,0.06416835238135837,-0.04922773939249363
1.5045055807603753,0.03178229372791513,0.027753900654076,0.01698689592080203,0.05486016430478232,-0.043312666527745354
1.504577097915302,0.026296542555493532,0.02138206300814026,0.012446934359831944,0.04839160520941065,-0.03922716685898993
1.5046486150702285,0.021278189004975218,0.019617733014481328,0.011187449324425095,0.045255395552093465,-0.036866229131203264
1.504720132225155,0.017555651134353225,0.019656375139444217,0.011283372248322305,0.043023334306089116,-0.03478480920770613
1.5047916493800817,0.01564621916050789,0.019152750601688962,0.010644076718018416,0.04054632061857143,-0.03277679272140374
1.5048631665350083,0.015656872938766518,0.01771384943102935,0.009217644422453899,0.03776527956357434,-0.030809248134570505
1.5049346836899349,0.017286051262519187,0.016861504397283178,0.008230188330603324,0.035768276628588766,-0.029381666609265136
1.5050062008448615,0.019918755698584013,0.01727389482637632,0.007905738300784866,0.034936280586036345,-0.02875176870056965
1.505077717999788,0.022804926807040774,0.01967508303408508,0.009361654152707073,0.035165193595178085,-0.02837216304422836
1.5051492351547147,0.025289013466251117,0.023876904366695106,0.011726326065843064,0.04011897820414752,-0.031947941677116974
1.5052207523096413,0.027015644551186973,0.02752256353393274,0.014241445734319206,0.04343329431552025,-0.03396332635089521
1.5052922694645678,0.028012475009877,0.02901720902802095,0.015961322224474977,0.043225329164167894,-0.03307711367344463
1.5053637866194944,0.028596359216805502,0.02591530785240908,0.014919408532213189,0.03911567465744255,-0.02973786523626037
1.505435303774421,0.02915112616185344,0.020692321330441802,0.013309044659559194,0.033311096171396576,-0.025078525780144936
1.5055068209293476,0.029900153036102176,0.017164788530778612,0.012321918805932341,0.028965405364428737,-0.021502444370571284
1.5055783380842742,0.030782681811496897,0.01654985566429116,0.01250866989698158,0.027525129082887283,-0.02010932566351097
1.5056498552392008,0.03146961942071043,0.018278148130179892,0.013496870470295333,0.030380208593757757,-0.022321140385577892
1.5057213723941274,0.03149161794629547,0.01884398617941076,0.013134126432083434,0.03377131169634934,-0.02557037012496386
1.505792889549054,0.030427310908792447,0.01834459162755259,0.011855838401314541,0.03569554869116866,-0.02784818791748947
1.5058644067039806,0.02809465201809536,0.016309743621235325,0.009674998552531539,0.034985455057995475,-0.028080946230931214
1.5059359238589072,0.024683284499830333,0.012511569540443373,0.006168765257997816,0.0324155285464162,-0.027148489289116406
1.5060074410138338,0.020766913938386953,0.010189850886033877,0.003987129865862614,0.03055992925517725,-0.02633371892631783
1.5060789581687604,0.017165658691511196,0.011091063670386933,0.004506773893992003,0.029864571772529405,-0.025487449047339662
1.506150475323687,0.014695536880755058,0.013064849744936135,0.005603202541494299,0.02949963260820628,-0.024710036668156413
1.5062219924786135,0.013907828977730352,0.01475865597813681,0.006474304461408025,0.028233559978793264,-0.023199493950100698
1.5062935096335401,0.014929925183180436,0.01507048166495063,0.007024475314287043,0.024572073319898233,-0.01962780330981518
1.5063650267884667,0.01746107614733839,0.01437285535662147,0.006681651925523114,0.02153367442195189,-0.016987564440369644
1.5064365439433933,0.020900617081537138,0.016300803021385927,0.008103902228742074,0.021685071231649092,-0.016550398929568992
1.50650806109832,0.024545654709518663,0.020706018827638117,0.01119024144466396,0.024831968235018844,-0.018179489538863197
1.5065795782532465,0.027795889555703463,0.02725861468924948,0.015188716512202768,0.03366697140187065,-0.024643318502597822
1.506651095408173,0.030315638754338018,0.035269312557108884,0.02020329875354711,0.043668049005865725,-0.03176549546683765
1.5067226125630997,0.03210575674634778,0.04299097604389904,0.02516307524326057,0.05274000808160411,-0.038063001064157
1.5067941297180263,0.03344435853615213,0.04772196044776574,0.02809340030703321,0.059317461797735865,-0.04290079931774748
1.5068656468729529,0.03469846610783441,0.048370503329400134,0.028836225363534616,0.06090256364453899,-0.0440521655694861
1.5069371640278795,0.03608805388876267,0.04789474242295849,0.029158238083419115,0.059776071636649546,-0.04288979178819449
1.507008681182806,0.03753193323000867,0.04795717929520138,0.029645090979329304,0.05941044023401765,-0.04235770382163355
1.5070801983377327,0.038657419159163646,0.04834494951287358,0.03000532215028713,0.05938918041468049,-0.042192353245264165
1.5071517154926592,0.038950459296790155,0.04739381172518875,0.029635790998015537,0.057630970308812965,-0.04073138638789852
1.5072232326475858,0.03795818995272562,0.04256164414705207,0.026170643808596194,0.052845680112706565,-0.03775183365207711
1.5072947498025124,0.035465807062779846,0.036425637515143744,0.02167628316777021,0.046403723947814515,-0.033673324152162634
1.507366266957439,0.03160750390290827,0.031225764829206786,0.01779655130545853,0.040794229292240906,-0.030109496569364857
1.5074377841123656,0.02689036393457737,0.02703051185899696,0.014369878001425985,0.03819680999878107,-0.029119445446708195
1.5075093012672922,0.022110982309926926,0.023741468003839767,0.012274203971852665,0.035980301949441934,-0.02793942570715604
1.5075808184222188,0.018158898886019043,0.021614660503615886,0.010838451012952628,0.03535513444866379,-0.02794841158398424
1.5076523355771454,0.015750547010193554,0.02020179887814792,0.009985828883372298,0.033511432920835686,-0.026606650023663164
1.507723852732072,0.015198153002695225,0.017374082943932934,0.008495434228764531,0.028003445977801713,-0.022171137815535685
1.5077953698869986,0.01632710132796861,0.013554162242542744,0.006411917338543193,0.021444973964046935,-0.017015606804721875
1.5078668870419252,0.01858159605132472,0.010741075529695563,0.00521914285473996,0.015243166452111233,-0.01182650974060981
1.5079384041968518,0.02125563485920751,0.009417699983325327,0.005152249488431391,0.010451818062762191,-0.007471958504936234
1.5080099213517784,0.023737553869918368,0.009405434419893862,0.0057615299185219465,0.008722906213710012,-0.005644306456907998
1.508081438506705,0.025680396681245936,0.011033456787259852,0.007453924502377228,0.010107609090055038,-0.006225483990112706
1.5081529556616315,0.027059576075294776,0.012392713236324753,0.008842952470356694,0.012134979364853814,-0.007517182511681496
1.5082244728165581,0.028112039179855254,0.012100846864337373,0.008942296206187028,0.013795943616849821,-0.008995927616478742
1.5082959899714847,0.029172386947160022,0.010917827630306161,0.008780907310022895,0.01497238381501433,-0.010137140036643939
1.5083675071264113,0.03045818310099522,0.011558069988854246,0.010026451111954632,0.01654570711079532,-0.011071797248204318
1.508439024281338,0.03190386747651281,0.015226805713564993,0.012747040105629182,0.02061453392980742,-0.013691735122555932
1.5085105414362645,0.03314377564440417,0.02041780838322249,0.01600259242207933,0.02641331633571434,-0.017677824764122725
1.508582058591191,0.03366149064758627,0.024503871991571655,0.0186299276568245,0.03143588689327363,-0.02120888098390264
1.5086535757461177,0.03301661123576188,0.023668583225321345,0.017302793300784304,0.0319392258170702,-0.022206738318717476
1.5087250929010443,0.031031763736761156,0.01959519901487436,0.013978643770450466,0.02854722856477888,-0.02044928527098235
1.5087966100559709,0.02787943173947238,0.01419999757416057,0.009773118861112214,0.022740613459412057,-0.016840202182622145
1.5088681272108975,0.024071143965329337,0.009233429413808307,0.005405399448016361,0.0186892162758125,-0.014902635466359556
1.508939644365824,0.020368522042175177,0.005692138372066085,0.002619426200917792,0.016030200833710425,-0.013598460902980166
1.5090111615207507,0.017622660517009992,0.004042699316280248,0.001280243020763253,0.01624267915442589,-0.014334757010831256
1.5090826786756772,0.016549556574789192,0.0036753056363545682,0.001094148915450876,0.01658762244404168,-0.014725516445479371
1.5091541958306038,0.01749078347259404,0.003886827590127748,0.001728275756159572,0.014951566478737568,-0.012972730007560392
1.5092257129855304,0.02026609634215111,0.0044400393590103655,0.002622344403247119,0.013054193673305207,-0.010875767004671596
1.509297230140457,0.024225306810832306,0.007663879591978638,0.005090188490138515,0.014059258296350626,-0.010796016921778947
1.5093687472953836,0.028505184243561566,0.01531419414207624,0.010396256019729185,0.019253903828490123,-0.013398945452354328
1.5094402644503102,0.032363241212534366,0.025495502015390185,0.017181792517199104,0.02790100066823821,-0.018561298339819916
1.5095117816052368,0.035420479974014,0.03605306817947255,0.023785576506019895,0.03832928437447921,-0.02542875597226793
1.5095832987601634,0.03772295943106026,0.043563369457592684,0.028541189697550762,0.04496035894425157,-0.02957187404592138
1.50965481591509,0.039632532833370364,0.04603805023270122,0.030196375009199177,0.04763410972590167,-0.03134915195690477
1.5097263330700166,0.041605230836871475,0.04284402354805812,0.028415936049993602,0.04728917957362569,-0.031754687937401015
1.5097978502249432,0.04392716574129624,0.03757201876453023,0.026087173799228647,0.04218111970552444,-0.028021902601078955
1.5098693673798698,0.04649881119729661,0.03474416838025182,0.025125670272120693,0.037543382921792115,-0.02416670455112424
1.5099408845347964,0.048782229516577,0.03549463198155683,0.025898717163670308,0.03685053049169345,-0.023219462915069534
1.510012401689723,0.04998265464348263,0.038424310527658365,0.027970420605425636,0.03801642629515047,-0.023447076000805027
1.5100839188446495,0.04939582665258717,0.03890758916289127,0.02744804663090382,0.03819917339110326,-0.023825994189518973
1.5101554359995761,0.046726633743720845,0.036825969928823366,0.024915387052692306,0.03665237792874172,-0.023436484289277592
1.5102269531545027,0.04221494386441091,0.034176069078560536,0.022036546886626967,0.033871981363587385,-0.02205828178583744
1.5102984703094293,0.0365554045951188,0.03221903826133962,0.019143160662124768,0.03342143269291146,-0.022817733271699402
1.510369987464356,0.030705701566729478,0.03163129937615051,0.01712115674686206,0.034896078137020975,-0.02498564890387585
1.5104415046192825,0.025671938650474672,0.03184155306020411,0.016152578444133103,0.036712514846196274,-0.027039772748696116
1.510513021774209,0.02230380117340663,0.03232091118662883,0.01595046449902194,0.03758101103123742,-0.027916281106155502
1.5105845389291357,0.02110478427342222,0.029940183292050147,0.014310671393420193,0.03432129816466819,-0.02559738117027294
1.5106560560840623,0.022087028251984653,0.024457299851627975,0.011927341615445858,0.02553550456240804,-0.0185246528656338
1.5107275732389889,0.02474352062355467,0.0165554206608285,0.008315005741078718,0.01491583694553518,-0.010274025147023259
1.5107990903939155,0.028206425428266402,0.010970754301574272,0.006455089330600415,0.006661700930971984,-0.0034786873342436786
1.510870607548842,0.03156791810921427,0.008853656727331969,0.006924877381908108,0.0029905400516165724,6.850685141434597e-05
1.5109421247037687,0.034217944840168574,0.009375222380016727,0.0085255112555674,0.0049086503028691,-0.001037495768389473
1.5110136418586952,0.036025983655989566,0.01235930069363822,0.01161661354179527,0.009156176145407596,-0.00367021460583911
1.5110851590136218,0.03729532439305516,0.013785295329595429,0.013294021431409462,0.012620309951475788,-0.006158980527294656
1.5111566761685484,0.03854470610167679,0.012973633320601287,0.013163190298163863,0.016239518053629914,-0.009521861180136119
1.511228193323475,0.04022460916569971,0.012264106606672005,0.013651672900344249,0.017270687255944016,-0.010267164079523968
1.5112997104784016,0.04246467581659284,0.013164481017475915,0.01442102957265151,0.01867828198326446,-0.011243040378067939
1.5113712276333282,0.04493429586497486,0.01740327387974478,0.016921655013448497,0.022890192993944902,-0.014082947827252378
1.5114427447882548,0.04689231770787431,0.0223878033969608,0.019784155718843215,0.027863401526398855,-0.017473086180272827
1.5115142619431814,0.047454803887083834,0.024386087195836393,0.02007376929597759,0.030381592225692117,-0.01965961876415313
1.511585779098108,0.04599085839647899,0.021709312482390705,0.017243949592298295,0.028481705908999986,-0.019067373678695994
