freq,gls,usurper,pdc_unbiased,shape_periodogram,shift_periodogram
1.5,0.031605246424144244,0.03223079613159562,0.022003088454338578,0.051568713527051314,-0.027863523361068718
1.5000715171549266,0.028595336453250155,0.025674027315788158,0.01679692217781675,0.04341799293889849,-0.024497569569276102
1.5001430343098532,0.024797888546036324,0.01991568842647254,0.011419584810450916,0.036888634475439656,-0.02253130871486255
1.5002145514647798,0.020789812632417533,0.017945362700235515,0.008796510756732951,0.03157887136664732,-0.019877100588434043
1.5002860686197064,0.017345459787468324,0.020229876960296808,0.009479677332466734,0.029215596943829508,-0.017579164659029554
1.500357585774633,0.015271945925960987,0.024416503444274627,0.011714688134418397,0.0287064265039949,-0.015823876899731994
1.5004291029295596,0.015165201318802408,0.02937857621021426,0.01415548030345099,0.03260711615378051,-0.01746286825575278
1.5005006200844861,0.01716595655706576,0.03388298552268691,0.016954003693511403,0.03460168718882811,-0.01736492387486479
1.5005721372394127,0.02086274426290797,0.037101864317486626,0.019187221778694714,0.03514733336619928,-0.016451766960541226
1.5006436543943393,0.02544081002802935,0.03994826566256666,0.02137618975240262,0.035838568450778534,-0.015681296710220585
1.500715171549266,0.03000884122307953,0.04323439350712725,0.02421994995090846,0.0371230971058862,-0.014988506718153242
1.5007866887041925,0.03391266896856934,0.04727294679267503,0.02666061786266369,0.043541817241971925,-0.018638015990393567
1.500858205859119,0.0368882624749449,0.05210785324295633,0.029368029530911475,0.05350615229680497,-0.024960963984595193
1.5009297230140457,0.0390355018056212,0.05768888633387955,0.03287087235373193,0.0670865784099432,-0.03370135392702414
1.5010012401689723,0.04067274274449097,0.06025048156846145,0.0349635290275476,0.07978809164622488,-0.04260445865845124
1.5010727573238989,0.04213722341942038,0.061161626136081525,0.036798409825528795,0.08922938203028256,-0.04906270420031866
1.5011442744788255,0.043587855733941964,0.06158804840381843,0.03793328428010061,0.09714094375908106,-0.05472508616056215
1.501215791633752,0.044880915226329254,0.06131764035029673,0.03824814004694497,0.10208123162464922,-0.05850257626228016
1.5012873087886787,0.045592465454410994,0.062106926255329396,0.03896037083855539,0.10568127297578227,-0.060965000638123365
1.5013588259436053,0.04519857422015515,0.061302217141625384,0.038338310339186395,0.10616114868760507,-0.061727021335921395
1.5014303430985318,0.04331902735671992,0.0577247132292348,0.03525172960142179,0.10389492937907857,-0.06177172153064795
1.5015018602534584,0.03989064242203222,0.05018631867209679,0.029380562295107576,0.09792345696359585,-0.06052256955617071
1.501573377408385,0.035207008956161204,0.04127700182514352,0.02275340008029923,0.09014335938977852,-0.05828071697565711
1.5016448945633116,0.029854908046904056,0.033122737882476945,0.01716592382272006,0.08080806591549049,-0.054170413093903746
1.5017164117182382,0.02460404968418353,0.026259292588083658,0.01272729457488559,0.07118188286475298,-0.049142002017741014
1.5017879288731648,0.020274028275387688,0.022109464201453478,0.010756457121333964,0.06223658864598164,-0.04317706735013942
1.5018594460280914,0.01756978332877583,0.02001423053473035,0.009814843547662735,0.056146734988482425,-0.03887804811221424
1.501930963183018,0.016887968997375314,0.0192007525466764,0.009773529530205848,0.048186119800383204,-0.03254406605489838
1.5020024803379446,0.018154766828972088,0.017866056481519434,0.009545857603491862,0.039854117216932064,-0.026029105423039812
1.5020739974928712,0.020807783027131654,0.01788629559236458,0.00997328939183271,0.03252288991956262,-0.01992015617644689
1.5021455146477978,0.023992628107040868,0.02007860877577771,0.01144212206274167,0.029333914722776445,-0.01648905476290874
1.5022170318027244,0.026898257150269028,0.024580116952423493,0.014028974316248104,0.032278644419753644,-0.017277125032103123
1.502288548957651,0.029041972437567,0.029642614515544025,0.016679671046279716,0.039411724077186225,-0.021369863312287265
1.5023600661125776,0.03036170293294545,0.035401888539977375,0.019990738498687276,0.04969858370351561,-0.027584922577054007
1.5024315832675041,0.031115659296329378,0.037106562184550135,0.02077896981185265,0.06044135659091847,-0.03569380907580536
1.5025031004224307,0.031680428730509906,0.03522244998770291,0.019519808615351825,0.06727550523818536,-0.041919131604506284
1.5025746175773573,0.032340192227813126,0.03219045781178499,0.018649627815208736,0.06959157568125353,-0.04429712799844113
1.502646134732284,0.033131945974426154,0.02959935025267205,0.017871043624403338,0.06769997618009203,-0.04325376896297602
1.5027176518872105,0.033797027787609374,0.02889269187636888,0.01799769758677829,0.06559377108245616,-0.041492738511769885
1.502789169042137,0.033871437590867574,0.02735058863444356,0.017486670760106647,0.062478130282278325,-0.03930975482649573
1.5028606861970637,0.03289397904446062,0.023987936491654767,0.015274482970942199,0.05784107637282911,-0.03693810814266725
1.5029322033519903,0.030638444170610023,0.020254500552006793,0.012011118949132128,0.053502926090326516,-0.035440839389660396
1.5030037205069169,0.02725242384486997,0.018175991827417182,0.009441040885373031,0.050203557026649234,-0.03435586565731991
1.5030752376618435,0.023245599290448483,0.01940602676683079,0.008606550278537486,0.04914520557236142,-0.03401401937279068
1.50314675481677,0.019358366958489085,0.02247700294114253,0.008953985446160287,0.04887175822132569,-0.03358604754808526
1.5032182719716967,0.01638051368297583,0.026445969567750756,0.010426555451109277,0.0491767107694642,-0.032941187130315505
1.5032897891266233,0.01497089818834955,0.030236712341218126,0.012350463029946239,0.0489878914084022,-0.03162950584586229
1.5033613062815498,0.015499460648454992,0.032981142435110876,0.013981854206916533,0.04659324951049589,-0.028732494568619593
1.5034328234364764,0.01793079665045714,0.0327065769082386,0.01416864675154985,0.0406941864583081,-0.023909636036221885
1.503504340591403,0.021792554285279486,0.03122280417074914,0.013806564009865633,0.032658760374857404,-0.01771472533736757
1.5035758577463296,0.026283745634476982,0.03304836395786238,0.015751292513310384,0.027856059320206426,-0.01270842521711998
1.5036473749012562,0.03053094650102892,0.03783699479312401,0.019003856556851165,0.030231471301486037,-0.012639567900541332
1.5037188920561828,0.03389868374654469,0.04477404093905785,0.02304438568669538,0.04003924947317381,-0.01802667184314204
1.5037904092111094,0.03619247413189749,0.05395733902754896,0.02836367437687625,0.0557725934084041,-0.02737940759550262
1.503861926366036,0.03764566473947448,0.061437547047531474,0.03246316988130233,0.0736980939724971,-0.0392393351685606
1.5039334435209626,0.038716510453014726,0.06556080152727098,0.03408384953452373,0.08954637253995006,-0.05095868329486825
1.5040049606758892,0.0398171228344044,0.06790185254218763,0.03557140334761458,0.1016613397081136,-0.05978387226165232
1.5040764778308158,0.041095739566223526,0.07142735650473593,0.037525773851031737,0.10952207766713554,-0.06492090253620977
1.5041479949857424,0.04234364882306056,0.07447603515689445,0.038887791087543686,0.1135372101357721,-0.06732777353245147
1.504219512140669,0.043051695709888996,0.07548658341692008,0.03921573232033744,0.11398342000745532,-0.06748860319487339
1.5042910292955955,0.04260283060723393,0.07083021225879763,0.036347749549566495,0.10990866593204042,-0.06594395231961327
1.5043625464505221,0.04053910287302065,0.060349332929178975,0.030363706364527798,0.1009687715047717,-0.062374119824004925
1.5044340636054487,0.03679439695722014,0.04727898630880412,0.02344001313236871,0.08853529154035178,-0.05657711678159019
1.5045055807603753,0.03178229372791513,0.035860540152593406,0.01698689592080203,0.07784199693973268,-0.05190334426988479
1.504577097915302,0.026296542555493532,0.028045659789946813,0.012446934359831944,0.06862094945309004,-0.04726252841675916
1.5046486150702285,0.021278189004975218,0.025267638894639493,0.011187449324425095,0.06248707037968477,-0.043117371529364276
1.504720132225155,0.017555651134353225,0.0245203280794936,0.011283372248322305,0.05814244076091432,-0.03958696854776607
1.5047916493800817,0.01564621916050789,0.023404134338428268,0.010644076718018416,0.05407966548084881,-0.03672634529292152
1.5048631665350083,0.015656872938766518,0.020990366782038774,0.009217644422453899,0.04714899152576543,-0.0320512242735955
1.5049346836899349,0.017286051262519187,0.01892750374128685,0.008230188330603324,0.038552956591527666,-0.025784430678486504
1.5050062008448615,0.019918755698584013,0.018225653076185254,0.007905738300784866,0.030549301550072863,-0.019593184727956726
1.505077717999788,0.022804926807040774,0.019861343162569003,0.009361654152707073,0.02453203709465536,-0.013913935184111992
1.5051492351547147,0.025289013466251117,0.02438238371114276,0.011726326065843064,0.026663737145370854,-0.01418715423193984
1.5052207523096413,0.027015644551186973,0.029419386777906103,0.014241445734319206,0.03406832387724751,-0.018577047573198887
1.5052922694645678,0.028012475009877,0.03247663244326095,0.015961322224474977,0.042137499249974626,-0.023979681294653183
1.5053637866194944,0.028596359216805502,0.030355974416309852,0.014919408532213189,0.04855767641892874,-0.029735465396411007
1.505435303774421,0.02915112616185344,0.02512854509224502,0.013309044659559194,0.052356637649717305,-0.033741912684378025
1.5055068209293476,0.029900153036102176,0.021332421592236552,0.012321918805932341,0.05380400792942307,-0.035493855099197384
1.5055783380842742,0.030782681811496897,0.02069891937966885,0.01250866989698158,0.05389683816004426,-0.03545534016295581
1.5056498552392008,0.03146961942071043,0.022590650614979547,0.013496870470295333,0.0546432722064505,-0.03545543688929588
1.5057213723941274,0.03149161794629547,0.023382401530793375,0.013134126432083434,0.05507669025515268,-0.036020622288880144
1.505792889549054,0.030427310908792447,0.02274050796107539,0.011855838401314541,0.05304279234464565,-0.035166930721985026
1.5058644067039806,0.02809465201809536,0.020412805620002236,0.009674998552531539,0.04826664181562069,-0.032667816438381195
1.5059359238589072,0.024683284499830333,0.01654169864764775,0.006168765257997816,0.04355760697118392,-0.031023047905352086
1.5060074410138338,0.020766913938386953,0.014062647863974114,0.003987129865862614,0.03928366626258058,-0.028927512611911427
1.5060789581687604,0.017165658691511196,0.015006295450886288,0.004506773893992003,0.036294015489569335,-0.026228084532171514
1.506150475323687,0.014695536880755058,0.017299805611991965,0.005603202541494299,0.03474923532620182,-0.02433384599278924
1.5062219924786135,0.013907828977730352,0.019206749745404268,0.006474304461408025,0.032863654123476554,-0.022303619362790104
1.5062935096335401,0.014929925183180436,0.019204989851357723,0.007024475314287043,0.02778858366654015,-0.017922418438193994
1.5063650267884667,0.01746107614733839,0.01747148429523967,0.006681651925523114,0.020517752062355777,-0.012329416283127155
1.5064365439433933,0.020900617081537138,0.018220900283502987,0.008103902228742074,0.014570085990136329,-0.006727454417006667
1.50650806109832,0.024545654709518663,0.021721874469806536,0.01119024144466396,0.011565591559925082,-0.002468514144443596
1.5065795782532465,0.027795889555703463,0.028470489436282078,0.015188716512202768,0.016772856837887297,-0.00420732343575564
1.506651095408173,0.030315638754338018,0.037681337406755326,0.02020329875354711,0.02705123865306748,-0.009377731750028534
1.5067226125630997,0.03210575674634778,0.047300951859760215,0.02516307524326057,0.040739932201599445,-0.017305890261651274
1.5067941297180263,0.03344435853615213,0.053455417681464765,0.02809340030703321,0.053870573975133534,-0.02602272343141623
1.5068656468729529,0.03469846610783441,0.054769554213355554,0.028836225363534616,0.0626889672536482,-0.03262322881054475
1.5069371640278795,0.03608805388876267,0.05440688134781736,0.029158238083419115,0.06713010595501749,-0.035980946967326
1.507008681182806,0.03753193323000867,0.05446430173168774,0.029645090979329304,0.06936124492113327,-0.03747186109425869
1.5070801983377327,0.038657419159163646,0.0544758346206074,0.03000532215028713,0.06764165821689962,-0.0358781673457965
1.5071517154926592,0.038950459296790155,0.05312547354682651,0.029635790998015537,0.0640270577534944,-0.0332100496907351
1.5072232326475858,0.03795818995272562,0.04768739775050608,0.026170643808596194,0.05803959435207965,-0.03051688256350278
1.5072947498025124,0.035465807062779846,0.040784130912008776,0.02167628316777021,0.049804669594353146,-0.026651649446488537
1.507366266957439,0.03160750390290827,0.03508159909292543,0.01779655130545853,0.04273307324965656,-0.023347108660761978
1.5074377841123656,0.02689036393457737,0.03026954595016212,0.014369878001425985,0.03790035834799558,-0.02155795681594395
1.5075093012672922,0.022110982309926926,0.026239765150658286,0.012274203971852665,0.03443812399436441,-0.020059731466929232
1.5075808184222188,0.018158898886019043,0.0237728758184385,0.010838451012952628,0.03371508951833206,-0.02034934248100731
1.5076523355771454,0.015750547010193554,0.022347795429566303,0.009985828883372298,0.03310104951512993,-0.020373943689646595
1.507723852732072,0.015198153002695225,0.019232414480074952,0.008495434228764531,0.028877431736577985,-0.017903389189463853
1.5077953698869986,0.01632710132796861,0.014774704609548927,0.006411917338543193,0.021183967754028515,-0.013023588406233513
1.5078668870419252,0.01858159605132472,0.011258042900220009,0.00521914285473996,0.01310073332377568,-0.0072967638970933765
1.5079384041968518,0.02125563485920751,0.009061529142029803,0.005152249488431391,0.005628221209654213,-0.0013783864729590529
1.5080099213517784,0.023737553869918368,0.0087272817191991,0.0057615299185219465,0.002896467087075074,0.0011675634248920566
1.508081438506705,0.025680396681245936,0.010718439716200958,0.007453924502377228,0.005103239582452821,0.00042937408059977664
1.5081529556616315,0.027059576075294776,0.012931765039938085,0.008842952470356694,0.010738456598178136,-0.003225784851272543
1.5082244728165581,0.028112039179855254,0.01291347980219216,0.008942296206187028,0.01654507597186961,-0.0077964942550219065
1.5082959899714847,0.029172386947160022,0.01144633809569699,0.008780907310022895,0.021487526265805662,-0.011835925157803361
1.5083675071264113,0.03045818310099522,0.011815864275443816,0.010026451111954632,0.02599286222988403,-0.014678029368229465
1.508439024281338,0.03190386747651281,0.015825082527424535,0.012747040105629182,0.031072100532108658,-0.017088246098449656
1.5085105414362645,0.03314377564440417,0.021542929469427367,0.01600259242207933,0.03557143230853813,-0.018713358519862038
1.508582058591191,0.03366149064758627,0.026158566387285868,0.0186299276568245,0.038647117992471475,-0.019581822515053388
1.5086535757461177,0.03301661123576188,0.025785172075615887,0.017302793300784304,0.03840960660756477,-0.020193653911399746
1.5087250929010443,0.031031763736761156,0.02165000800508133,0.013978643770450466,0.0341701828503217,-0.018816992366248307
1.5087966100559709,0.02787943173947238,0.016170670472674675,0.009773118861112214,0.02721932398478158,-0.015809380865642774
1.5088681272108975,0.024071143965329337,0.011083996610501416,0.005405399448016361,0.021482936878934183,-0.013869485062597282
1.508939644365824,0.020368522042175177,0.007191782166212491,0.002619426200917792,0.017184516728967376,-0.012122458408822196
1.5090111615207507,0.017622660517009992,0.005328044850266043,0.001280243020763253,0.015695232338073385,-0.011742883175780811
1.5090826786756772,0.016549556574789192,0.004752771553088047,0.001094148915450876,0.015487255509359053,-0.011689322711385385
1.5091541958306038,0.01749078347259404,0.0046329962795127085,0.001728275756159572,0.013355229156711597,-0.009606431557575516
1.5092257129855304,0.02026609634215111,0.004819678561428547,0.002622344403247119,0.009523956596021841,-0.006011681189768116
1.509297230140457,0.024225306810832306,0.007701917141531966,0.005090188490138515,0.006364353260138775,-0.00200282510513206
1.5093687472953836,0.028505184243561566,0.015179620141722843,0.010396256019729185,0.0063524609475027125,0.0012091978413162272
1.5094402644503102,0.032363241212534366,0.025892044817610968,0.017181792517199104,0.011440191725180555,0.0012486883533495753
1.5095117816052368,0.035420479974014,0.03788842351812323,0.023785576506019895,0.02073223125648718,-0.0021731467218141847
1.5095832987601634,0.03772295943106026,0.04700112511544225,0.028541189697550762,0.029771012915709764,-0.006509719393650584
1.50965481591509,0.039632532833370364,0.05014187673801812,0.030196375009199177,0.0365217789163534,-0.01089624639903956
1.5097263330700166,0.041605230836871475,0.046179882316711635,0.028415936049993602,0.03932063863289885,-0.014206767788670228
1.5097978502249432,0.04392716574129624,0.0394565048744571,0.026087173799228647,0.0361496673081968,-0.013083179350576601
1.5098693673798698,0.04649881119729661,0.035385696863861275,0.025125670272120693,0.030627992280611593,-0.009257723352942927
1.5099408845347964,0.048782229516577,0.035331438461078585,0.025898717163670308,0.02692379679981792,-0.005835202852951134
1.510012401689723,0.04998265464348263,0.037925938336881904,0.027970420605425636,0.024679244523131572,-0.002792670285488745
1.5100839188446495,0.04939582665258717,0.03830988673584857,0.02744804663090382,0.022297768367628753,-0.0012088319587135782
1.5101554359995761,0.046726633743720845,0.03601407638491048,0.024915387052692306,0.01916651790782238,-0.00024183931381591982
1.5102269531545027,0.04221494386441091,0.03330878741251772,0.022036546886626967,0.015272995941698777,0.0011241004741237206
1.5102984703094293,0.0365554045951188,0.03184863242531558,0.019143160662124768,0.015091289016388662,-0.00047845185008350664
1.510369987464356,0.030705701566729478,0.03208971040023494,0.01712115674686206,0.01737901791001213,-0.0035239384634247065
1.5104415046192825,0.025671938650474672,0.03353855032827166,0.016152578444133103,0.02169138933508999,-0.0075483076729127635
1.510513021774209,0.02230380117340663,0.035445579079380986,0.01595046449902194,0.02647235627136523,-0.011484223049660118
1.5105845389291357,0.02110478427342222,0.03400579651877358,0.014310671393420193,0.02708273006279427,-0.012961259340586872
1.5106560560840623,0.022087028251984653,0.028622182853064913,0.011927341615445858,0.02161791818989344,-0.010040669394804391
1.5107275732389889,0.02474352062355467,0.019957819815999214,0.008315005741078718,0.012687897327350463,-0.005099028224338887
1.5107990903939155,0.028206425428266402,0.013282202735309391,0.006455089330600415,0.004745314144173252,0.00011193279978640701
1.510870607548842,0.03156791810921427,0.01020214058777857,0.006924877381908108,0.0011449358941224236,0.003266273830421668
1.5109421247037687,0.034217944840168574,0.010606425377602159,0.0085255112555674,0.004614835412789455,0.0014655785397066636
1.5110136418586952,0.036025983655989566,0.014339453607840133,0.01161661354179527,0.012797025170160799,-0.0031931434437514595
1.5110851590136218,0.03729532439305516,0.016603325262557388,0.013294021431409462,0.022195765198476172,-0.009676535925819723
1.5111566761685484,0.03854470610167679,0.016006314583063733,0.013163190298163863,0.03142708285510638,-0.017120281392207913
1.511228193323475,0.04022460916569971,0.015128740495805173,0.013651672900344249,0.03650238947224751,-0.02087570615417258
1.5112997104784016,0.04246467581659284,0.015978834989800905,0.01442102957265151,0.03845076050205734,-0.021966415598227707
1.5113712276333282,0.04493429586497486,0.02047758522006447,0.016921655013448497,0.0398430921483512,-0.021568110412755102
1.5114427447882548,0.04689231770787431,0.02562192159109357,0.019784155718843215,0.03984883708879341,-0.01984405835182005
1.5115142619431814,0.047454803887083834,0.027557281526175596,0.02007376929597759,0.03773749357751769,-0.017983704389962205
1.511585779098108,0.04599085839647899,0.02436028932022709,0.017243949592298295,0.033074526382798376,-0.015971078719200796
