freq,gls,usurper,pdc_unbiased,shape_periodogram,shift_periodogram
1.5,0.031605246424144244,0.029979484517313432,0.022003088454338578,0.027907692614432978,0.004912120716543413
1.5000715171549266,0.028595336453250155,0.02326129298592652,0.01679692217781675,0.022003017836762166,0.0033951301295617846
1.5001430343098532,0.024797888546036324,0.017560393087156533,0.011419584810450916,0.01731532004000877,0.0011176042697165925
1.5002145514647798,0.020789812632417533,0.01587465308310827,0.008796510756732951,0.013215822490350485,0.000922316644004269
1.5002860686197064,0.017345459787468324,0.018602574376654805,0.009479677332466734,0.011480521034346172,0.0023881882937503325
1.500357585774633,0.015271945925960987,0.023292887729317573,0.011714688134418397,0.012002239044296445,0.004054584247264378
1.5004291029295596,0.015165201318802408,0.028726166281325426,0.01415548030345099,0.015410591655955243,0.004441736897484379
1.5005006200844861,0.01716595655706576,0.03383681298373117,0.016954003693511403,0.01824006573088663,0.00543038129358699
1.5005721372394127,0.02086274426290797,0.03782874002571438,0.019187221778694714,0.021251138432521834,0.005839486665089514
1.5006436543943393,0.02544081002802935,0.04130423740335119,0.02137618975240262,0.02429236698492326,0.006195487217200727
1.500715171549266,0.03000884122307953,0.04496318990330269,0.02421994995090846,0.02619190008821348,0.007694025569786247
1.5007866887041925,0.03391266896856934,0.04909586660409506,0.02666061786266369,0.03150076183883392,0.007123911555079744
1.500858205859119,0.0368882624749449,0.05369980394632481,0.029368029530911475,0.038364190016378245,0.0060000178916378155
1.5009297230140457,0.0390355018056212,0.0586726000497633,0.03287087235373193,0.047075835560185866,0.004631234420873655
1.5010012401689723,0.04067274274449097,0.060307106956310044,0.0349635290275476,0.05406489990752677,0.0029118165792691524
1.5010727573238989,0.04213722341942038,0.06040326023832998,0.036798409825528795,0.05872475207588542,0.0021459199263116706
1.5011442744788255,0.043587855733941964,0.06028026817396522,0.03793328428010061,0.06257204792630423,0.0011841026259931929
1.501215791633752,0.044880915226329254,0.059845305923546976,0.03824814004694497,0.06552811626192494,-3.8165050967676814e-05
1.5012873087886787,0.045592465454410994,0.06073715840456932,0.03896037083855539,0.06847595808977992,-0.000912126263391429
1.5013588259436053,0.04519857422015515,0.05992507407039629,0.038338310339186395,0.06845412364201212,-0.001440528202641685
1.5014303430985318,0.04331902735671992,0.05613348282180086,0.03525172960142179,0.06820607513211727,-0.003991050216298391
1.5015018602534584,0.03989064242203222,0.04819164178828185,0.029380562295107576,0.0650665231117524,-0.007488714443157511
1.501573377408385,0.035207008956161204,0.03891124952797872,0.02275340008029923,0.06095490602926706,-0.011144139237097624
1.5016448945633116,0.029854908046904056,0.030475087524542855,0.01716592382272006,0.054007820677459274,-0.012460555226481417
1.5017164117182382,0.02460404968418353,0.02345153746339747,0.01272729457488559,0.04609639590320084,-0.0122945669313064
1.5017879288731648,0.020274028275387688,0.019284391350312267,0.010756457121333964,0.039388451285753384,-0.010605464840102722
1.5018594460280914,0.01756978332877583,0.017281898576972984,0.009814843547662735,0.03540811786784235,-0.00940696148356295
1.501930963183018,0.016887968997375314,0.016973888629944953,0.009773529530205848,0.031493754885624975,-0.0074646339906858815
1.5020024803379446,0.018154766828972088,0.016311040938927664,0.009545857603491862,0.02782026446958979,-0.005805435639529572
1.5020739974928712,0.020807783027131654,0.017007798702413188,0.00997328939183271,0.025192442736374207,-0.0041089810084498244
1.5021455146477978,0.023992628107040868,0.019546202923169546,0.01144212206274167,0.023866413071610974,-0.0021707723365691064
1.5022170318027244,0.026898257150269028,0.023971830652638127,0.014028974316248104,0.02550050226746092,-0.0007617151922574521
1.502288548957651,0.029041972437567,0.028556950034464023,0.016679671046279716,0.028522524781942976,1.9609873315734746e-06
1.5023600661125776,0.03036170293294545,0.03344833984175446,0.019990738498687276,0.032856834807551964,0.0006739830804205311
1.5024315832675041,0.031115659296329378,0.03398117293228343,0.02077896981185265,0.03604968565512397,-0.00025748021507879395
1.5025031004224307,0.031680428730509906,0.03106140997782976,0.019519808615351825,0.037325478963708955,-0.001990337739435477
1.5025746175773573,0.032340192227813126,0.02730325688079235,0.018649627815208736,0.03579848716243056,-0.001970951388426409
1.502646134732284,0.033131945974426154,0.02470710324474023,0.017871043624403338,0.032877641098309145,-0.0011682854101789004
1.5027176518872105,0.033797027787609374,0.024285380363868653,0.01799769758677829,0.03129729406822041,-0.00026062344174338767
1.502789169042137,0.033871437590867574,0.023052264995235553,0.017486670760106647,0.028732600972212478,0.0005930884756557268
1.5028606861970637,0.03289397904446062,0.019771739824954806,0.015274482970942199,0.02635114905070462,-0.00011541473987308694
1.5029322033519903,0.030638444170610023,0.01601608473538567,0.012011118949132128,0.02441780104076178,-0.001957808178397394
1.5030037205069169,0.02725242384486997,0.014010426129542496,0.009441040885373031,0.02305747422293045,-0.003490383690628715
1.5030752376618435,0.023245599290448483,0.015471936896306349,0.008606550278537486,0.022204529458178083,-0.0037802531832484528
1.50314675481677,0.019358366958489085,0.018946528656861725,0.008953985446160287,0.02176088126178931,-0.003256192670507473
1.5032182719716967,0.01638051368297583,0.023410090512780462,0.010426555451109277,0.021796710127057688,-0.0020026504016574
1.5032897891266233,0.01497089818834955,0.027780086920282943,0.012350463029946239,0.022591419727785434,-0.0007424450736444915
1.5033613062815498,0.015499460648454992,0.03132062034647907,0.013981854206916533,0.022896305292212704,0.0005126029583634115
1.5034328234364764,0.01793079665045714,0.03194589412090211,0.01416864675154985,0.02112993789125516,0.0015657886564771867
1.503504340591403,0.021792554285279486,0.03158189568475353,0.013806564009865633,0.0190522155769341,0.002302054399355241
1.5035758577463296,0.026283745634476982,0.03439383338315726,0.015751292513310384,0.019339205991720017,0.0038367566554578696
1.5036473749012562,0.03053094650102892,0.03974145495636752,0.019003856556851165,0.023852583590016515,0.004367860726949721
1.5037188920561828,0.03389868374654469,0.046804630815792336,0.02304438568669538,0.031875848467999235,0.0038085752705442864
1.5037904092111094,0.03619247413189749,0.05545405143015725,0.02836367437687625,0.040700233070063596,0.0039516200446330805
1.503861926366036,0.03764566473947448,0.061913334303572765,0.03246316988130233,0.04893257786866269,0.0033403253985122743
1.5039334435209626,0.038716510453014726,0.0649124248216342,0.03408384953452373,0.056948296481725655,0.000692401122603096
1.5040049606758892,0.0398171228344044,0.0663288021610046,0.03557140334761458,0.06253293660346394,-0.000843110219846678
1.5040764778308158,0.041095739566223526,0.06965951787345155,0.037525773851031737,0.06703713435540738,-0.001427974504791101
1.5041479949857424,0.04234364882306056,0.0729690896259076,0.038887791087543686,0.0712561306187336,-0.0023822883175207902
1.504219512140669,0.043051695709888996,0.07435571023463812,0.03921573232033744,0.07479770445700909,-0.0038911933324265245
1.5042910292955955,0.04260283060723393,0.06967371094886794,0.036347749549566495,0.07596141708428167,-0.006968785333912546
1.5043625464505221,0.04053910287302065,0.05878046219871189,0.030363706364527798,0.07312265829024951,-0.010718131335295108
1.5044340636054487,0.03679439695722014,0.04509007652047657,0.02344001313236871,0.06573993922402896,-0.01297343344611944
1.5045055807603753,0.03178229372791513,0.03315986682309039,0.01698689592080203,0.05819872196435086,-0.014736933826136141
1.504577097915302,0.026296542555493532,0.025001339588639936,0.012446934359831944,0.05077055667232935,-0.014901626076860266
1.5046486150702285,0.021278189004975218,0.021958431281962468,0.011187449324425095,0.04444982758428364,-0.012792347551046445
1.504720132225155,0.017555651134353225,0.02106530558631551,0.011283372248322305,0.039774110031650683,-0.010345215832362404
1.5047916493800817,0.01564621916050789,0.020022626536432036,0.010644076718018416,0.03630818258610063,-0.009145556111920531
1.5048631665350083,0.015656872938766518,0.017852979975104193,0.009217644422453899,0.03185616395729891,-0.008127865467172476
1.5049346836899349,0.017286051262519187,0.016436166061545153,0.008230188330603324,0.027490273803751443,-0.006774969834228
1.5050062008448615,0.019918755698584013,0.01641289887574001,0.007905738300784866,0.023538907480008364,-0.005059316490008854
1.505077717999788,0.022804926807040774,0.018642295888762084,0.009361654152707073,0.02059342402278948,-0.0023146234019468187
1.5051492351547147,0.025289013466251117,0.02354215986584389,0.011726326065843064,0.02342046010744914,-0.0017001186201623631
1.5052207523096413,0.027015644551186973,0.028491917960575465,0.014241445734319206,0.02685903070621705,-0.0012642542859654543
1.5052922694645678,0.028012475009877,0.030906744872636855,0.015961322224474977,0.028386009882310572,-0.0005496958006997556
1.5053637866194944,0.028596359216805502,0.027535742962191953,0.014919408532213189,0.027159682165660528,-0.0008304520372209877
1.505435303774421,0.02915112616185344,0.02091378708749563,0.013309044659559194,0.023041200290297395,-0.00014166548008280597
1.5055068209293476,0.029900153036102176,0.01637399003119175,0.012321918805932341,0.01919191782642545,0.0009493742386173368
1.5055783380842742,0.030782681811496897,0.01573088557210134,0.01250866989698158,0.017113598506298237,0.0021599133537431024
1.5056498552392008,0.03146961942071043,0.01804867208023839,0.013496870470295333,0.018203828610531058,0.0024629055345255
1.5057213723941274,0.03149161794629547,0.01923270582183449,0.013134126432083434,0.02047723928091959,0.0010018596596172926
1.505792889549054,0.030427310908792447,0.018783908193876635,0.011855838401314541,0.023097929387383784,-0.0014253946075273296
1.5058644067039806,0.02809465201809536,0.0166921264688554,0.009674998552531539,0.02389925659381889,-0.0037134648484053938
1.5059359238589072,0.024683284499830333,0.013107804656801088,0.006168765257997816,0.023240076232412504,-0.006408246078793147
1.5060074410138338,0.020766913938386953,0.010933310835010089,0.003987129865862614,0.02150807617410868,-0.0074171567719188425
1.5060789581687604,0.017165658691511196,0.012172587026609701,0.004506773893992003,0.01950059437527526,-0.005954690675953019
1.506150475323687,0.014695536880755058,0.014878512397492993,0.005603202541494299,0.01905794884954762,-0.004784519124032334
1.5062219924786135,0.013907828977730352,0.017309873405766986,0.006474304461408025,0.018484107698996614,-0.003742634456537751
1.5062935096335401,0.014929925183180436,0.01795595090787199,0.007024475314287043,0.015738965607269204,-0.0018815198433536514
1.5063650267884667,0.01746107614733839,0.01712139571058319,0.006681651925523114,0.01371541157721224,-0.0011558449137555155
1.5064365439433933,0.020900617081537138,0.018904517256543827,0.008103902228742074,0.012561419184502893,0.0006546921249960508
1.50650806109832,0.024545654709518663,0.02323764132138089,0.01119024144466396,0.011417870793534604,0.0038967371412481923
1.5065795782532465,0.027795889555703463,0.03053879425370312,0.015188716512202768,0.015336741937477258,0.005371296956832131
1.506651095408173,0.030315638754338018,0.04004746091771673,0.02020329875354711,0.021593461676127704,0.006544464723058924
1.5067226125630997,0.03210575674634778,0.04955314033955433,0.02516307524326057,0.029343852481369066,0.006918171087964683
1.5067941297180263,0.03344435853615213,0.055038350031872026,0.02809340030703321,0.03629369879293825,0.005943060323580095
1.5068656468729529,0.03469846610783441,0.05552628518040666,0.028836225363534616,0.03980439024851958,0.0048127866983612025
1.5069371640278795,0.03608805388876267,0.054505328829633055,0.029158238083419115,0.04118484856113139,0.004394167586361728
1.507008681182806,0.03753193323000867,0.05428280932721964,0.029645090979329304,0.043064973883643054,0.0038657456505387724
1.5070801983377327,0.038657419159163646,0.05445477849824732,0.03000532215028713,0.04458145887336011,0.003411401777827938
1.5071517154926592,0.038950459296790155,0.05316265545036502,0.029635790998015537,0.04453968062147534,0.00311277729876731
1.5072232326475858,0.03795818995272562,0.04748985016675624,0.026170643808596194,0.04401063845398379,0.00038241677459693017
1.5072947498025124,0.035465807062779846,0.040308055060745925,0.02167628316777021,0.04246552082132373,-0.0027234228575054448
1.507366266957439,0.03160750390290827,0.0343284873355237,0.01779655130545853,0.04013504633476368,-0.004899486723782876
1.5074377841123656,0.02689036393457737,0.02921405823807858,0.014369878001425985,0.03774733092928557,-0.006654012865751227
1.5075093012672922,0.022110982309926926,0.024666080650730133,0.012274203971852665,0.03415620706388648,-0.006649849743695337
1.5075808184222188,0.018158898886019043,0.02167504181669649,0.010838451012952628,0.03237598514267876,-0.00699057191822058
1.5076523355771454,0.015750547010193554,0.01987421991634348,0.009985828883372298,0.030742436479009778,-0.006901673912844173
1.507723852732072,0.015198153002695225,0.016654056709177207,0.008495434228764531,0.02685701711489795,-0.006226023471427196
1.5077953698869986,0.01632710132796861,0.012381210005727786,0.006411917338543193,0.02150356412980294,-0.005321285034865512
1.5078668870419252,0.01858159605132472,0.009336313382328317,0.00521914285473996,0.015822939433322875,-0.003482602379235785
1.5079384041968518,0.02125563485920751,0.007579223843281791,0.005152249488431391,0.009661898327948318,-0.0004298010578719586
1.5080099213517784,0.023737553869918368,0.007484349496871323,0.0057615299185219465,0.006086729379466052,0.0019010037166886289
1.508081438506705,0.025680396681245936,0.009538285099954028,0.007453924502377228,0.0044379225674546115,0.004194333104634327
1.5081529556616315,0.027059576075294776,0.011463774151922594,0.008842952470356694,0.0039828593268998,0.005623175980155887
1.5082244728165581,0.028112039179855254,0.010709149182160337,0.008942296206187028,0.002946373265331176,0.006232121238327329
1.5082959899714847,0.029172386947160022,0.008459059696629558,0.008780907310022895,0.00186580525242805,0.006638229444779336
1.5083675071264113,0.03045818310099522,0.008392496342079305,0.010026451111954632,0.0014695962385856919,0.007913469501785498
1.508439024281338,0.03190386747651281,0.012530262090874442,0.012747040105629182,0.00315207958280912,0.009412959443142263
1.5085105414362645,0.03314377564440417,0.018716180641349917,0.01600259242207933,0.007163841935108437,0.010199052078382388
1.508582058591191,0.03366149064758627,0.023754641501428843,0.0186299276568245,0.011093924437045858,0.010484464884251607
1.5086535757461177,0.03301661123576188,0.023509148956022925,0.017302793300784304,0.013362321738871476,0.0081935652621773
1.5087250929010443,0.031031763736761156,0.019298534582746177,0.013978643770450466,0.013880597244532882,0.005061335990751176
1.5087966100559709,0.02787943173947238,0.013836791470264032,0.009773118861112214,0.012479707608189622,0.0021371431490257906
1.5088681272108975,0.024071143965329337,0.008846365380121707,0.005405399448016361,0.011336632983778258,-0.0010567346789430061
1.508939644365824,0.020368522042175177,0.004854161917502936,0.002619426200917792,0.008634822611503026,-0.0020978388731626566
1.5090111615207507,0.017622660517009992,0.0029469542860469395,0.001280243020763253,0.00754571194141502,-0.0027040696066866887
1.5090826786756772,0.016549556574789192,0.002406039117393008,0.001094148915450876,0.008116578378055928,-0.0031529120792277102
1.5091541958306038,0.01749078347259404,0.0026343246725870433,0.001728275756159572,0.007457629306219187,-0.002272837956947334
1.5092257129855304,0.02026609634215111,0.003423491585433417,0.002622344403247119,0.005243021892627418,-0.00038303756404450216
1.509297230140457,0.024225306810832306,0.007241806278575689,0.005090188490138515,0.0037417686281512813,0.002505192371916858
1.5093687472953836,0.028505184243561566,0.01574400825838441,0.010396256019729185,0.004246352970233845,0.0068311541413945
1.5094402644503102,0.032363241212534366,0.027331888111989302,0.017181792517199104,0.007796236401054099,0.010898108346910755
1.5095117816052368,0.035420479974014,0.03998973011506281,0.023785576506019895,0.01358427701565328,0.013680757115998886
1.5095832987601634,0.03772295943106026,0.04936982896059921,0.028541189697550762,0.018517293584364332,0.015300794545142219
1.50965481591509,0.039632532833370364,0.05210493457998223,0.030196375009199177,0.021470765740957336,0.01524142189417905
1.5097263330700166,0.041605230836871475,0.047197541738201745,0.028415936049993602,0.021143301605921754,0.013867840089087351
1.5097978502249432,0.04392716574129624,0.039711181322058225,0.026087173799228647,0.016679009020830315,0.014107748238112129
1.5098693673798698,0.04649881119729661,0.03550519612288861,0.025125670272120693,0.012278737561235282,0.015496980156089227
1.5099408845347964,0.048782229516577,0.03585486038855226,0.025898717163670308,0.011563457569084529,0.016525571125303187
1.510012401689723,0.04998265464348263,0.03894781662049908,0.027970420605425636,0.012772733751142084,0.017705244317878243
1.5100839188446495,0.04939582665258717,0.03944141253489532,0.02744804663090382,0.014465655099932409,0.016400033637822768
1.5101554359995761,0.046726633743720845,0.03671023968936532,0.024915387052692306,0.015448350237206697,0.01371627476223157
1.5102269531545027,0.04221494386441091,0.03353480447708831,0.022036546886626967,0.015773549353838144,0.011065302317581594
1.5102984703094293,0.0365554045951188,0.031621966087674286,0.019143160662124768,0.017162322387687046,0.007865200691639339
1.510369987464356,0.030705701566729478,0.03137982325268797,0.01712115674686206,0.019024225132147313,0.005178928990114348
1.5104415046192825,0.025671938650474672,0.032345683006614924,0.016152578444133103,0.02126521304674689,0.0032110444846056327
1.510513021774209,0.02230380117340663,0.033899241501133354,0.01595046449902194,0.0243062471228302,0.0015010948598982437
1.5105845389291357,0.02110478427342222,0.0323227702818932,0.014310671393420193,0.02484175513362594,-0.00018574028242752467
1.5106560560840623,0.022087028251984653,0.026922416142947162,0.011927341615445858,0.020640991426356416,-0.0001230190433266978
1.5107275732389889,0.02474352062355467,0.01837418338172148,0.008315005741078718,0.013968395534741112,0.00012664713201998137
1.5107990903939155,0.028206425428266402,0.011812714653634464,0.006455089330600415,0.0068823789454443935,0.0020981007039885596
1.510870607548842,0.03156791810921427,0.008682782589078198,0.006924877381908108,0.001421531759923402,0.005260239394683943
1.5109421247037687,0.034217944840168574,0.00891932375937161,0.0085255112555674,-0.0006725803502251878,0.0076990488629088685
1.5110136418586952,0.036025983655989566,0.01233447153669095,0.01161661354179527,-0.0004194043057365661,0.010239677120613137
1.5110851590136218,0.03729532439305516,0.014058267553514043,0.013294021431409462,0.001006141687303166,0.01096825685605062
1.5111566761685484,0.03854470610167679,0.012550176824979069,0.013163190298163863,0.0024975363278238374,0.010102589488576686
1.511228193323475,0.04022460916569971,0.011075128499577655,0.013651672900344249,0.0018112469705129722,0.010870681449483641
1.5112997104784016,0.04246467581659284,0.012097774789087086,0.01442102957265151,0.0016593744585938033,0.011611534462985316
1.5113712276333282,0.04493429586497486,0.01743899684167013,0.016921655013448497,0.0037344678744761707,0.012723246567750876
1.5114427447882548,0.04689231770787431,0.02367252066539052,0.019784155718843215,0.006788794210827963,0.013653626016155693
1.5115142619431814,0.047454803887083834,0.02643391646709071,0.02007376929597759,0.009879880697653243,0.012343988103250313
