freq,gls,usurper,pdc_unbiased,shape_periodogram,shift_periodogram
1.5,0.031605246424144244,0.030322506642690487,0.022003088454338578,0.05451652019350689,-0.021152346950195407
1.5000715171549266,0.028595336453250155,0.024254590219393062,0.01679692217781675,0.04600004245457956,-0.01913648680974799
1.5001430343098532,0.024797888546036324,0.018979643021249798,0.011419584810450916,0.03974880328945582,-0.018795642582757927
1.5002145514647798,0.020789812632417533,0.01749350329900397,0.008796510756732951,0.03573223477503767,-0.017968515371747523
1.5002860686197064,0.017345459787468324,0.020144121186430063,0.009479677332466734,0.035511134027218116,-0.017318007405413324
1.500357585774633,0.015271945925960987,0.024549522128933174,0.011714688134418397,0.03701442378244791,-0.016711159941777663
1.5004291029295596,0.015165201318802408,0.029522560010529383,0.01415548030345099,0.04197804327413509,-0.01831875716267457
1.5005006200844861,0.01716595655706576,0.03418764245958052,0.016954003693511403,0.04602900967859672,-0.019041384676552756
1.5005721372394127,0.02086274426290797,0.03767010991706407,0.019187221778694714,0.04975739282954526,-0.019957284153638434
1.5006436543943393,0.02544081002802935,0.04057762488968224,0.02137618975240262,0.05348259855437877,-0.020903755785814677
1.500715171549266,0.03000884122307953,0.04367499011183686,0.02421994995090846,0.056907677243682245,-0.021165796653863797
1.5007866887041925,0.03391266896856934,0.04721222674423846,0.02666061786266369,0.06416910843301094,-0.024350025548192544
1.500858205859119,0.0368882624749449,0.05131836041002542,0.029368029530911475,0.07358780201887828,-0.02882095417348374
1.5009297230140457,0.0390355018056212,0.05584635019325536,0.03287087235373193,0.08495569920746832,-0.034053592293658834
1.5010012401689723,0.04067274274449097,0.05730361647530162,0.0349635290275476,0.09392211835385515,-0.03868030095931883
1.5010727573238989,0.04213722341942038,0.05726645215469309,0.036798409825528795,0.09970853110685159,-0.04131482868771511
1.5011442744788255,0.043587855733941964,0.0568848015927826,0.03793328428010061,0.10406982232060376,-0.043484895337941226
1.501215791633752,0.044880915226329254,0.05606366998921956,0.03824814004694497,0.10623364678816506,-0.044744623839133316
1.5012873087886787,0.045592465454410994,0.056581253139557385,0.03896037083855539,0.10936947492656976,-0.04638326382572182
1.5013588259436053,0.04519857422015515,0.055718105174275924,0.038338310339186395,0.1091214027006986,-0.046669104892131635
1.5014303430985318,0.04331902735671992,0.05237089270995318,0.03525172960142179,0.10613494079022469,-0.04687647015196383
1.5015018602534584,0.03989064242203222,0.045276036722849175,0.029380562295107576,0.09966621171054578,-0.046727212164791365
1.501573377408385,0.035207008956161204,0.03692173505420212,0.02275340008029923,0.09146218018938831,-0.04593829718017614
1.5016448945633116,0.029854908046904056,0.029353498985348284,0.01716592382272006,0.08212510718839862,-0.04361300990002078
1.5017164117182382,0.02460404968418353,0.023013784590211313,0.01272729457488559,0.07242273458767308,-0.04020288045127746
1.5017879288731648,0.020274028275387688,0.01937958961723334,0.010756457121333964,0.0638738307855546,-0.03578555079375384
1.5018594460280914,0.01756978332877583,0.017733226382662746,0.009814843547662735,0.05801789523388701,-0.03246426799560458
1.501930963183018,0.016887968997375314,0.01760783450120014,0.009773529530205848,0.05195649633669746,-0.028346574343747332
1.5020024803379446,0.018154766828972088,0.01706290277786547,0.009545857603491862,0.0471358709712904,-0.025215783079712385
1.5020739974928712,0.020807783027131654,0.01778381004436164,0.00997328939183271,0.04407486157339977,-0.022810283006111896
1.5021455146477978,0.023992628107040868,0.020360073173975743,0.01144212206274167,0.044073720335383273,-0.02173559271153608
1.5022170318027244,0.026898257150269028,0.024731114201320105,0.014028974316248104,0.04777551170370696,-0.022375178132344586
1.502288548957651,0.029041972437567,0.029274084629224338,0.016679671046279716,0.053824325129074826,-0.024574129499026307
1.5023600661125776,0.03036170293294545,0.034248436043672295,0.019990738498687276,0.06062036809401,-0.02680315311556375
1.5024315832675041,0.031115659296329378,0.035013969196575734,0.02077896981185265,0.06590609151281894,-0.029846431049767645
1.5025031004224307,0.031680428730509906,0.03240601624004325,0.019519808615351825,0.06790533068489174,-0.032137809193557576
1.5025746175773573,0.032340192227813126,0.02884425796064089,0.018649627815208736,0.06616135106717506,-0.031579625018975946
1.502646134732284,0.033131945974426154,0.026048954869241813,0.017871043624403338,0.06189044245376382,-0.029223914089603228
1.5027176518872105,0.033797027787609374,0.025424771843682678,0.01799769758677829,0.05990224565282413,-0.02776987544653046
1.502789169042137,0.033871437590867574,0.024049929039572218,0.017486670760106647,0.057409730931816956,-0.026437466618054118
1.5028606861970637,0.03289397904446062,0.021063142122126476,0.015274482970942199,0.05354994115586769,-0.025414264992080215
1.5029322033519903,0.030638444170610023,0.01775973663052548,0.012011118949132128,0.04967115769461974,-0.025147296630833354
1.5030037205069169,0.02725242384486997,0.016066656241264354,0.009441040885373031,0.047076299194069256,-0.025251671572707083
1.5030752376618435,0.023245599290448483,0.017525389285181988,0.008606550278537486,0.0467661693543428,-0.02564962647592184
1.50314675481677,0.019358366958489085,0.020700447657549192,0.008953985446160287,0.04695899188713689,-0.02552750609896195
1.5032182719716967,0.01638051368297583,0.02458895938521587,0.010426555451109277,0.04772354598796921,-0.024973812208137082
1.5032897891266233,0.01497089818834955,0.028259787608480358,0.012350463029946239,0.047347490397085745,-0.02330993571161772
1.5033613062815498,0.015499460648454992,0.03118336731110225,0.013981854206916533,0.046391382158493026,-0.02146310329167536
1.5034328234364764,0.01793079665045714,0.0313802775199693,0.01416864675154985,0.043701320802339065,-0.01948719815555561
1.503504340591403,0.021792554285279486,0.030518515004550988,0.013806564009865633,0.04085022194495054,-0.017803004869516057
1.5035758577463296,0.026283745634476982,0.03277437491273662,0.015751292513310384,0.04121921573637868,-0.016632906796149177
1.5036473749012562,0.03053094650102892,0.037536254785090394,0.019003856556851165,0.04706003646464907,-0.018246719901617154
1.5037188920561828,0.03389868374654469,0.043856411304980414,0.02304438568669538,0.05770846025969755,-0.02257455055070194
1.5037904092111094,0.03619247413189749,0.05181989459033196,0.02836367437687625,0.07012907909775655,-0.027185855320478965
1.503861926366036,0.03764566473947448,0.0576836114028093,0.03246316988130233,0.08193283974468701,-0.032277111552974753
1.5039334435209626,0.038716510453014726,0.06035781992761711,0.03408384953452373,0.09141449173315398,-0.03760157447398683
1.5040049606758892,0.0398171228344044,0.06150746234002237,0.03557140334761458,0.09841040463525388,-0.041321974548748204
1.5040764778308158,0.041095739566223526,0.06422017099144997,0.037525773851031737,0.1030755689856086,-0.04309925012376181
1.5041479949857424,0.04234364882306056,0.06700609047291003,0.038887791087543686,0.10675939598863664,-0.044637175581229954
1.504219512140669,0.043051695709888996,0.06819289740686459,0.03921573232033744,0.10890006837039035,-0.04587200660561498
1.5042910292955955,0.04260283060723393,0.06415997746422426,0.036347749549566495,0.10684651750558548,-0.04656240341432
1.5043625464505221,0.04053910287302065,0.054569744965307296,0.030363706364527798,0.09950762517729406,-0.04589728829071894
1.5044340636054487,0.03679439695722014,0.04242070605054842,0.02344001313236871,0.08776742243468742,-0.04289620209328446
1.5045055807603753,0.03178229372791513,0.031754837041790274,0.01698689592080203,0.0767919301765765,-0.04008403993868099
1.504577097915302,0.026296542555493532,0.024555939658663033,0.012446934359831944,0.06712518793926751,-0.03677696834026633
1.5046486150702285,0.021278189004975218,0.022066352337410982,0.011187449324425095,0.05982732316234845,-0.03269948806916622
1.504720132225155,0.017555651134353225,0.021451745216553218,0.011283372248322305,0.053600171010131994,-0.028367296107135745
1.5047916493800817,0.01564621916050789,0.020555032868920776,0.010644076718018416,0.04818944370682832,-0.0251334049939355
1.5048631665350083,0.015656872938766518,0.018653302067622928,0.009217644422453899,0.04187560280870573,-0.021859229917422805
1.5049346836899349,0.017286051262519187,0.01736858271471486,0.008230188330603324,0.03696999112058343,-0.019228297818840952
1.5050062008448615,0.019918755698584013,0.017401470243558294,0.007905738300784866,0.0336306170190717,-0.017183745598787055
1.505077717999788,0.022804926807040774,0.01957184233448563,0.009361654152707073,0.03199057425678579,-0.01499898147813995
1.5051492351547147,0.025289013466251117,0.024267887984984707,0.011726326065843064,0.03693301587842721,-0.016647020450929487
1.5052207523096413,0.027015644551186973,0.028954264673339645,0.014241445734319206,0.04384432147868599,-0.019531722284968456
1.5052922694645678,0.028012475009877,0.03127984456040467,0.015961322224474977,0.04829467918769934,-0.02131690416146592
1.5053637866194944,0.028596359216805502,0.02831236374001721,0.014919408532213189,0.048873089446839824,-0.022474592861405324
1.505435303774421,0.02915112616185344,0.022223595274954176,0.013309044659559194,0.046222874734934055,-0.021839911827422242
1.5055068209293476,0.029900153036102176,0.017775033713622664,0.012321918805932341,0.042510866621279224,-0.02002384108560977
1.5055783380842742,0.030782681811496897,0.016850580284052986,0.01250866989698158,0.040515652417930884,-0.01852343564439915
1.5056498552392008,0.03146961942071043,0.01878891433389812,0.013496870470295333,0.042117740198901375,-0.0188959034507399
1.5057213723941274,0.03149161794629547,0.01985164822149325,0.013134126432083434,0.044632540761909666,-0.02088042106541232
1.505792889549054,0.030427310908792447,0.019804740729903982,0.011855838401314541,0.04557350588919186,-0.022458533952254292
1.5058644067039806,0.02809465201809536,0.018252141257537567,0.009674998552531539,0.04433731940037452,-0.023207798022101787
1.5059359238589072,0.024683284499830333,0.01501881913447687,0.006168765257997816,0.04268013129550814,-0.024637822846704297
1.5060074410138338,0.020766913938386953,0.012945006029387262,0.003987129865862614,0.04067852655436924,-0.024864037139535836
1.5060789581687604,0.017165658691511196,0.013986043842651735,0.004506773893992003,0.03850009655344343,-0.022995437722686026
1.506150475323687,0.014695536880755058,0.01618973478454041,0.005603202541494299,0.036807369963853344,-0.02103735447423398
1.5062219924786135,0.013907828977730352,0.01796356779340309,0.006474304461408025,0.034115698234582124,-0.0185614912193724
1.5062935096335401,0.014929925183180436,0.01805243723160221,0.007024475314287043,0.02917196646456599,-0.014782103094110112
1.5063650267884667,0.01746107614733839,0.016698663536287867,0.006681651925523114,0.024570942989725807,-0.011890315502562261
1.5064365439433933,0.020900617081537138,0.017730545741308463,0.008103902228742074,0.022038115699195684,-0.009121099761199512
1.50650806109832,0.024545654709518663,0.021272634691195388,0.01119024144466396,0.02208157074323933,-0.006894505955238834
1.5065795782532465,0.027795889555703463,0.02766240189148587,0.015188716512202768,0.029171809836374688,-0.008812826416518793
1.506651095408173,0.030315638754338018,0.03615450161728145,0.02020329875354711,0.039481947008477944,-0.012188610109579584
1.5067226125630997,0.03210575674634778,0.04482214226059923,0.02516307524326057,0.051460685938452745,-0.016748330215327567
1.5067941297180263,0.03344435853615213,0.04994595065826593,0.02809340030703321,0.06095364733883951,-0.021098566092482344
1.5068656468729529,0.03469846610783441,0.05038730023678583,0.028836225363534616,0.06548723527341414,-0.02365905304875243
1.5069371640278795,0.03608805388876267,0.04931205685405828,0.029158238083419115,0.06581577033278717,-0.023648154916200446
1.507008681182806,0.03753193323000867,0.048971515172685526,0.029645090979329304,0.06545608211616298,-0.02304501607801735
1.5070801983377327,0.038657419159163646,0.04912155515138623,0.03000532215028713,0.06409249952076143,-0.02184708147744895
1.5071517154926592,0.038950459296790155,0.0480728229026441,0.029635790998015537,0.061152454742110916,-0.02010464029424398
1.5072232326475858,0.03795818995272562,0.04330340154056213,0.026170643808596194,0.056374925690670596,-0.0193727775576469
1.5072947498025124,0.035465807062779846,0.037273949584322605,0.02167628316777021,0.049860071284534055,-0.018206002878471954
1.507366266957439,0.03160750390290827,0.03241081357077838,0.01779655130545853,0.044487556208971914,-0.017371067170329244
1.5074377841123656,0.02689036393457737,0.02828936889564324,0.014369878001425985,0.04102668899224904,-0.017511657449947884
1.5075093012672922,0.022110982309926926,0.02467417729469175,0.012274203971852665,0.03744889488210108,-0.01659894214222693
1.5075808184222188,0.018158898886019043,0.02240141073596217,0.010838451012952628,0.03574305159072093,-0.016483070944863412
1.5076523355771454,0.015750547010193554,0.02105896131079046,0.009985828883372298,0.033072569036966946,-0.01528184697565017
1.507723852732072,0.015198153002695225,0.01820187133948453,0.008495434228764531,0.02743572851257262,-0.012520958103860278
1.5077953698869986,0.01632710132796861,0.014302972094816327,0.006411917338543193,0.020513622703462325,-0.009316945026994128
1.5078668870419252,0.01858159605132472,0.011378314370239857,0.00521914285473996,0.014244966743252045,-0.005908987087254982
1.5079384041968518,0.02125563485920751,0.009597872792139504,0.005152249488431391,0.00865266811642585,-0.002140434737022624
1.5080099213517784,0.023737553869918368,0.009286004663904664,0.0057615299185219465,0.0066881227904035095,-0.0003541617451213766
1.508081438506705,0.025680396681245936,0.010994364405482546,0.007453924502377228,0.008481441894670374,-0.00034124560698493736
1.5081529556616315,0.027059576075294776,0.012664186327087048,0.008842952470356694,0.0121259478683245,-0.0018136624808532753
1.5082244728165581,0.028112039179855254,0.01194921350972622,0.008942296206187028,0.014611190675157489,-0.0034375674504629706
1.5082959899714847,0.029172386947160022,0.009921778067693725,0.008780907310022895,0.016800143486393627,-0.0050499013199243195
1.5083675071264113,0.03045818310099522,0.009818981148595664,0.010026451111954632,0.019310136210739366,-0.0058530255339770436
1.508439024281338,0.03190386747651281,0.013395622774698733,0.012747040105629182,0.02313871340974665,-0.006478125190551951
1.5085105414362645,0.03314377564440417,0.018889839436325027,0.01600259242207933,0.02818992209378896,-0.007546985621604733
1.508582058591191,0.03366149064758627,0.023407485177056535,0.0186299276568245,0.03219832561950702,-0.008363154261010771
1.5086535757461177,0.03301661123576188,0.023287911625075205,0.017302793300784304,0.03316565991578957,-0.00999475530944334
1.5087250929010443,0.031031763736761156,0.01964243208374981,0.013978643770450466,0.030451724778821472,-0.010571986686604513
1.5087966100559709,0.02787943173947238,0.014777424756286262,0.009773118861112214,0.025489455447001767,-0.010257692240542222
1.5088681272108975,0.024071143965329337,0.010216108512899516,0.005405399448016361,0.021634527712779596,-0.010818002587851462
1.508939644365824,0.020368522042175177,0.006597619484414178,0.002619426200917792,0.01833566679532007,-0.010601803391597582
1.5090111615207507,0.017622660517009992,0.004817497948040656,0.001280243020763253,0.017406423925806123,-0.010946098520491148
1.5090826786756772,0.016549556574789192,0.0041497764839241915,0.001094148915450876,0.016890290657439203,-0.010729727458747815
1.5091541958306038,0.01749078347259404,0.004050484092561912,0.001728275756159572,0.014881348167879295,-0.008894798396228417
1.5092257129855304,0.02026609634215111,0.004315345500709394,0.002622344403247119,0.012064184778212335,-0.006318219978615454
1.509297230140457,0.024225306810832306,0.007264990385397538,0.005090188490138515,0.011298930751700362,-0.003992146559445611
1.5093687472953836,0.028505184243561566,0.014499146917030394,0.010396256019729185,0.013452308996760119,-0.001583607638912116
1.5094402644503102,0.032363241212534366,0.024627403475823095,0.017181792517199104,0.0197052702468319,-0.0008910158891344149
1.5095117816052368,0.035420479974014,0.03579659138855966,0.023785576506019895,0.02873634984434368,-0.0022265474541230245
1.5095832987601634,0.03772295943106026,0.043991194526356386,0.028541189697550762,0.03544560085355922,-0.0033279328878563713
1.50965481591509,0.039632532833370364,0.046318065391672485,0.030196375009199177,0.03854303350834332,-0.0042318767518258315
1.5097263330700166,0.041605230836871475,0.041979193947705065,0.028415936049993602,0.03833360287718136,-0.005392601790698134
1.5097978502249432,0.04392716574129624,0.03522493225844936,0.026087173799228647,0.03339025135381568,-0.0037205322691308824
1.5098693673798698,0.04649881119729661,0.031280588449109775,0.025125670272120693,0.02726776162701989,-0.00024306686584745735
1.5099408845347964,0.048782229516577,0.031510252693494854,0.025898717163670308,0.024547732363342605,0.0021797552634942353
1.510012401689723,0.04998265464348263,0.034423101551907115,0.027970420605425636,0.023690398910131055,0.004281170649212055
1.5100839188446495,0.04939582665258717,0.0352046822924677,0.02744804663090382,0.022012291486416043,0.005044346522483629
1.5101554359995761,0.046726633743720845,0.03336249214833338,0.024915387052692306,0.01890672265926859,0.005310894455292586
1.5102269531545027,0.04221494386441091,0.03120218944839833,0.022036546886626967,0.015282446870431406,0.005678627766248823
1.5102984703094293,0.0365554045951188,0.03010642505843403,0.019143160662124768,0.014734799561322278,0.003936301667989628
1.510369987464356,0.030705701566729478,0.03057035213971281,0.01712115674686206,0.016652776791453026,0.0011484590221537466
1.5104415046192825,0.025671938650474672,0.03207399410586425,0.016152578444133103,0.020057801205613793,-0.00188434252332611
1.510513021774209,0.02230380117340663,0.033949537883244105,0.01595046449902194,0.023527388197234152,-0.0044010776940231824
1.5105845389291357,0.02110478427342222,0.032777199062629256,0.014310671393420193,0.02373693210928116,-0.00574328690805466
1.5106560560840623,0.022087028251984653,0.02794937212451898,0.011927341615445858,0.0189776147221156,-0.004236299809200464
1.5107275732389889,0.02474352062355467,0.020001795253880825,0.008315005741078718,0.011799782100341657,-0.001976928356781988
1.5107990903939155,0.028206425428266402,0.013838731831429084,0.006455089330600415,0.005433360541789843,0.0010092068918609739
1.510870607548842,0.03156791810921427,0.010789475615879078,0.006924877381908108,0.002115108927826197,0.0036174109916446103
1.5109421247037687,0.034217944840168574,0.010656108192393921,0.0085255112555674,0.003929298901801557,0.003549068023527923
1.5110136418586952,0.036025983655989566,0.013553832997605606,0.01161661354179527,0.008926994668001323,0.0023974214082626184
1.5110851590136218,0.03729532439305516,0.01491797749541936,0.013294021431409462,0.014338663525886978,-7.020585115505744e-05
1.5111566761685484,0.03854470610167679,0.01351949438906827,0.013163190298163863,0.01985703641840839,-0.0039331488046431985
1.511228193323475,0.04022460916569971,0.012126906823154092,0.013651672900344249,0.023088989893012377,-0.005782718803352101
1.5112997104784016,0.04246467581659284,0.01272320703953446,0.01442102957265151,0.025046169153092147,-0.0065566195400186674
1.5113712276333282,0.04493429586497486,0.017249562481595985,0.016921655013448497,0.028987088525438916,-0.007419260204820711
1.5114427447882548,0.04689231770787431,0.022627524046791844,0.019784155718843215,0.03310747863061831,-0.008139822807883858
1.5115142619431814,0.047454803887083834,0.02491248729556518,0.02007376929597759,0.034274735896049575,-0.008725348594165083
