freq,gls,usurper,pdc_unbiased,shape_periodogram,shift_periodogram
1.5,0.031605246424144244,0.03083653390859273,0.022003088454338578,0.034422303598705566,0.004613661251561924
1.5000715171549266,0.028595336453250155,0.024336529134492444,0.01679692217781675,0.02777029553153496,0.002862537977274301
1.5001430343098532,0.024797888546036324,0.018833692192226054,0.011419584810450916,0.022760370389506433,0.0002367139947621877
1.5002145514647798,0.020789812632417533,0.017304872582865248,0.008796510756732951,0.01902057414200571,-0.0004730532816966438
1.5002860686197064,0.017345459787468324,0.02011893428471161,0.009479677332466734,0.01832839647537029,0.0004452772313589052
1.500357585774633,0.015271945925960987,0.024854866385608774,0.011714688134418397,0.019961203519691516,0.0017340788718673698
1.5004291029295596,0.015165201318802408,0.030407370580459104,0.01415548030345099,0.024912847302750795,0.0017470162366706595
1.5005006200844861,0.01716595655706576,0.035663655576256975,0.016954003693511403,0.029260550228142817,0.0023476185661774093
1.5005721372394127,0.02086274426290797,0.039808341159396264,0.019187221778694714,0.033729169208261245,0.0023873609504693363
1.5006436543943393,0.02544081002802935,0.04334388306060164,0.02137618975240262,0.03795241423444502,0.0024956875984137403
1.500715171549266,0.03000884122307953,0.047046867272819495,0.02421994995090846,0.04064500478624806,0.003867402054919804
1.5007866887041925,0.03391266896856934,0.05127243324759666,0.02666061786266369,0.04590617163726901,0.0037461303133245433
1.500858205859119,0.0368882624749449,0.05599995092626766,0.029368029530911475,0.05227457470608493,0.003377681564499973
1.5009297230140457,0.0390355018056212,0.06094072615403514,0.03287087235373193,0.059767009084327534,0.003230926088263394
1.5010012401689723,0.04067274274449097,0.06228078368016903,0.0349635290275476,0.06495809235838067,0.002828578383952469
1.5010727573238989,0.04213722341942038,0.06177646859061429,0.036798409825528795,0.06775402424675733,0.0032502145895955477
1.5011442744788255,0.043587855733941964,0.061047034959012855,0.03793328428010061,0.0703163381082295,0.0031439005614447707
1.501215791633752,0.044880915226329254,0.060114043562363634,0.03824814004694497,0.07241304404646194,0.0025031687778438207
1.5012873087886787,0.045592465454410994,0.06071921197207225,0.03896037083855539,0.07507889378274152,0.001969752735948252
1.5013588259436053,0.04519857422015515,0.05989215338835172,0.038338310339186395,0.07468190488025009,0.0015835338685675426
1.5014303430985318,0.04331902735671992,0.056342644119417994,0.03525172960142179,0.07365005941660897,-0.0007459056091734963
1.5015018602534584,0.03989064242203222,0.048723715101859036,0.029380562295107576,0.06955460302613924,-0.004231640707344983
1.501573377408385,0.035207008956161204,0.03969581268813764,0.02275340008029923,0.06453560806068658,-0.007985516096408445
1.5016448945633116,0.029854908046904056,0.031425877862994764,0.01716592382272006,0.05719902532197535,-0.009775628624990432
1.5017164117182382,0.02460404968418353,0.024386159912296288,0.01272729457488559,0.04918717728874434,-0.010232438459433087
1.5017879288731648,0.020274028275387688,0.020070783841207543,0.010756457121333964,0.042592232007011184,-0.009095740906042414
1.5018594460280914,0.01756978332877583,0.018082535634214972,0.009814843547662735,0.03898882655929507,-0.008353521802342816
1.501930963183018,0.016887968997375314,0.017811832071774652,0.009773529530205848,0.03582603791954922,-0.006996787047342554
1.5020024803379446,0.018154766828972088,0.017162813974789668,0.009545857603491862,0.03322700969505646,-0.006056201805858436
1.5020739974928712,0.020807783027131654,0.017982768229564523,0.00997328939183271,0.03201269259268962,-0.005137197493098783
1.5021455146477978,0.023992628107040868,0.020799540926391913,0.01144212206274167,0.03233249949081797,-0.003958304651681352
1.5022170318027244,0.026898257150269028,0.025569664110030352,0.014028974316248104,0.034726274759184175,-0.002688128326225951
1.502288548957651,0.029041972437567,0.030538554490015177,0.016679671046279716,0.037719903072405796,-0.0016243412302782067
1.5023600661125776,0.03036170293294545,0.03582071527939018,0.019990738498687276,0.04118345780021851,-0.00017321927335778124
1.5024315832675041,0.031115659296329378,0.03645350385989387,0.02077896981185265,0.04286353671516905,-0.0002045307287254628
1.5025031004224307,0.031680428730509906,0.03339018918373713,0.019519808615351825,0.04263582614808387,-0.0012365611038021545
1.5025746175773573,0.032340192227813126,0.02920811888180948,0.018649627815208736,0.04024058852328885,-0.0009637414099671034
1.502646134732284,0.033131945974426154,0.026114025079411,0.017871043624403338,0.03685739240753972,-0.00017342996313011308
1.5027176518872105,0.033797027787609374,0.02536125844483203,0.01799769758677829,0.03521597276394355,0.0006633484373860211
1.502789169042137,0.033871437590867574,0.02390794213891271,0.017486670760106647,0.03266289699669073,0.0013282970112418284
1.5028606861970637,0.03289397904446062,0.02071631074409644,0.015274482970942199,0.029747887505982895,0.0006237232511006685
1.5029322033519903,0.030638444170610023,0.017267397075144412,0.012011118949132128,0.027184871125339048,-0.001179957884511987
1.5030037205069169,0.02725242384486997,0.015554130862531969,0.009441040885373031,0.02594575197477118,-0.002943241499915001
1.5030752376618435,0.023245599290448483,0.017304964806537707,0.008606550278537486,0.02601889956830464,-0.0037250960303526906
1.50314675481677,0.019358366958489085,0.02093033318595695,0.008953985446160287,0.026628996706804464,-0.0036816680073959358
1.5032182719716967,0.01638051368297583,0.025293610843992627,0.010426555451109277,0.02750300374421151,-0.0027436639834843395
1.5032897891266233,0.01497089818834955,0.029552010923761623,0.012350463029946239,0.028770350783791736,-0.0015732452829004431
1.5033613062815498,0.015499460648454992,0.0330161096249205,0.013981854206916533,0.029742908412091967,-0.0005356545185484563
1.5034328234364764,0.01793079665045714,0.033545985646646334,0.01416864675154985,0.028718473273822414,8.329600697924316e-05
1.503504340591403,0.021792554285279486,0.032948141437910326,0.013806564009865633,0.027662399327106024,0.00022295790228533705
1.5035758577463296,0.026283745634476982,0.03548221748412065,0.015751292513310384,0.029099673093776784,0.001337617066374818
1.5036473749012562,0.03053094650102892,0.04071539093067005,0.019003856556851165,0.034410410159486905,0.0019225588047354612
1.5037188920561828,0.03389868374654469,0.04778117715700115,0.02304438568669538,0.042677450288087004,0.0019149446822013792
1.5037904092111094,0.03619247413189749,0.05651539373763709,0.02836367437687625,0.05089575796061974,0.0030809814236797575
1.503861926366036,0.03764566473947448,0.06291651293584838,0.03246316988130233,0.05766268897337201,0.0037909883315029873
1.5039334435209626,0.038716510453014726,0.06579613622854687,0.03408384953452373,0.063711884319223,0.002585075337895268
1.5040049606758892,0.0398171228344044,0.066940068711952,0.03557140334761458,0.06817458945504028,0.0019582767305074585
1.5040764778308158,0.041095739566223526,0.07002280207275273,0.037525773851031737,0.0722893017435383,0.0019060236177063314
1.5041479949857424,0.04234364882306056,0.0732714057923977,0.038887791087543686,0.07651354711389963,0.0012711421269448
1.504219512140669,0.043051695709888996,0.07466350018613559,0.03921573232033744,0.07976348580698073,0.00013252453792693845
1.5042910292955955,0.04260283060723393,0.07021572152459077,0.036347749549566495,0.07961419729001676,-0.0023905297246364764
1.5043625464505221,0.04053910287302065,0.05957510295800864,0.030363706364527798,0.07494356944301636,-0.005725411213000014
1.5044340636054487,0.03679439695722014,0.046023500832465244,0.02344001313236871,0.06577555917806852,-0.00791475821050067
1.5045055807603753,0.03178229372791513,0.03412784384287102,0.01698689592080203,0.05713354712410061,-0.009907792500427967
1.504577097915302,0.026296542555493532,0.025964510410976825,0.012446934359831944,0.04958935140225701,-0.010661918764237025
1.5046486150702285,0.021278189004975218,0.02283779273732942,0.011187449324425095,0.043560252320839724,-0.009135157330094042
1.504720132225155,0.017555651134353225,0.02183807230108962,0.011283372248322305,0.039199231511125705,-0.007126518348256163
1.5047916493800817,0.01564621916050789,0.020813920184261182,0.010644076718018416,0.036294527869617406,-0.006420961712315243
1.5048631665350083,0.015656872938766518,0.018761716547058396,0.009217644422453899,0.03272276610922658,-0.0061289435492240954
1.5049346836899349,0.017286051262519187,0.017442887899667976,0.008230188330603324,0.029562861299465008,-0.005624080603546557
1.5050062008448615,0.019918755698584013,0.017607381855490073,0.007905738300784866,0.027063801754605175,-0.004814821778834209
1.505077717999788,0.022804926807040774,0.02004483867756639,0.009361654152707073,0.025551095160307923,-0.0028407645310020214
1.5051492351547147,0.025289013466251117,0.02523774396375964,0.011726326065843064,0.02894415168779399,-0.002210564990034721
1.5052207523096413,0.027015644551186973,0.030486160816329964,0.014241445734319206,0.03263053847287401,-0.0015740769562803823
1.5052922694645678,0.028012475009877,0.03311622936501377,0.015961322224474977,0.03387092624010958,-0.000574676326056475
1.5053637866194944,0.028596359216805502,0.029767185661604658,0.014919408532213189,0.03162729506813259,-0.0005229721156875787
1.505435303774421,0.02915112616185344,0.02277017176716452,0.013309044659559194,0.026703283150270454,0.0001982387021387798
1.5055068209293476,0.029900153036102176,0.017727757005231347,0.012321918805932341,0.022650590760684052,0.0010956520373667385
1.5055783380842742,0.030782681811496897,0.016747353548650635,0.01250866989698158,0.02099976949171315,0.0019901404839987665
1.5056498552392008,0.03146961942071043,0.019038646515060393,0.013496870470295333,0.02274678004283475,0.002108857338611372
1.5057213723941274,0.03149161794629547,0.020375741474527247,0.013134126432083434,0.02510484703796895,0.0007448474026925291
1.505792889549054,0.030427310908792447,0.020361011820395698,0.011855838401314541,0.027260651319080002,-0.0013528387662614
1.5058644067039806,0.02809465201809536,0.0187112025522692,0.009674998552531539,0.027267679258908627,-0.0033152171724018732
1.5059359238589072,0.024683284499830333,0.015456342603952471,0.006168765257997816,0.026348920963011828,-0.006060240815708165
1.5060074410138338,0.020766913938386953,0.013395524024462797,0.003987129865862614,0.02500733219578886,-0.0074288895929196025
1.5060789581687604,0.017165658691511196,0.014563106462217045,0.004506773893992003,0.023406920304891124,-0.006257330116207812
1.506150475323687,0.014695536880755058,0.017053509368405183,0.005603202541494299,0.023287002466391933,-0.005219752428117288
1.5062219924786135,0.013907828977730352,0.019287807784318454,0.006474304461408025,0.02330535895473776,-0.004445424115165766
1.5062935096335401,0.014929925183180436,0.019623866709700604,0.007024475314287043,0.021269327692233712,-0.003054735130818794
1.5063650267884667,0.01746107614733839,0.01838808656585443,0.006681651925523114,0.01986485559732497,-0.0027442644157588047
1.5064365439433933,0.020900617081537138,0.019710675266551115,0.008103902228742074,0.019638168804656124,-0.0013670406748691852
1.50650806109832,0.024545654709518663,0.023711878573860798,0.01119024144466396,0.01940303790062064,0.0015086876738221358
1.5065795782532465,0.027795889555703463,0.030811896760221093,0.015188716512202768,0.023364920555765827,0.0033567603313748575
1.506651095408173,0.030315638754338018,0.04021317561643551,0.02020329875354711,0.0293851223695349,0.005213108121141441
1.5067226125630997,0.03210575674634778,0.04975406578753463,0.02516307524326057,0.03642584737829589,0.006573142638868452
1.5067941297180263,0.03344435853615213,0.05524412022536956,0.02809340030703321,0.042122258751631156,0.006701467908182547
1.5068656468729529,0.03469846610783441,0.05560763401606376,0.028836225363534616,0.04484343990655964,0.006171850242510083
1.5069371640278795,0.03608805388876267,0.05433712807820572,0.029158238083419115,0.045682930778019895,0.0060920137171001296
1.507008681182806,0.03753193323000867,0.0538934198749528,0.029645090979329304,0.04727056315798705,0.005831116589877996
1.5070801983377327,0.038657419159163646,0.05400981704296329,0.03000532215028713,0.04828330397587087,0.005709399318907334
1.5071517154926592,0.038950459296790155,0.05279563036901137,0.029635790998015537,0.04743555816946485,0.00575009103043875
1.5072232326475858,0.03795818995272562,0.04753285557614808,0.026170643808596194,0.045481252375172074,0.003492406729774889
1.5072947498025124,0.035465807062779846,0.040835967133779696,0.02167628316777021,0.04210359012686324,0.0009372424049886763
1.507366266957439,0.03160750390290827,0.035342255415921106,0.01779655130545853,0.038648244509146126,-0.0010292420867133902
1.5074377841123656,0.02689036393457737,0.03059844427918655,0.014369878001425985,0.03589264265249502,-0.002895547037461389
1.5075093012672922,0.022110982309926926,0.026200865858908604,0.012274203971852665,0.03218781822636895,-0.0031468951100203538
1.5075808184222188,0.018158898886019043,0.02326611706644349,0.010838451012952628,0.030534748639872312,-0.0037088446900165957
1.5076523355771454,0.015750547010193554,0.021568585501606605,0.009985828883372298,0.028985077978755245,-0.003792336719008437
1.507723852732072,0.015198153002695225,0.01846502302945544,0.008495434228764531,0.02551424738631764,-0.0036026730350290064
1.5077953698869986,0.01632710132796861,0.01432410724229415,0.006411917338543193,0.02117538567986477,-0.0035635546519661144
1.5078668870419252,0.01858159605132472,0.011302594787033196,0.00521914285473996,0.01696103402482238,-0.00277930266535012
1.5079384041968518,0.02125563485920751,0.00951995350231808,0.005152249488431391,0.012222910800288726,-0.00075355886868522
1.5080099213517784,0.023737553869918368,0.009368623213943592,0.0057615299185219465,0.00946358343417263,0.0010081685597736704
1.508081438506705,0.025680396681245936,0.011409144931591203,0.007453924502377228,0.008291469679788365,0.003043862088569272
1.5081529556616315,0.027059576075294776,0.013336534653663993,0.008842952470356694,0.007806981671172862,0.004504477240310999
1.5082244728165581,0.028112039179855254,0.012437349704556216,0.008942296206187028,0.006343121058328421,0.005237949231076803
1.5082959899714847,0.029172386947160022,0.009923966833946616,0.008780907310022895,0.005093783723335953,0.00564286100901812
1.5083675071264113,0.03045818310099522,0.009553834594281638,0.010026451111954632,0.005231768455430906,0.006700638543125627
1.508439024281338,0.03190386747651281,0.013507406166970704,0.012747040105629182,0.008212293716505809,0.007832209168460941
1.5085105414362645,0.03314377564440417,0.01965131414058172,0.01600259242207933,0.01334901935972375,0.00849586468868429
1.508582058591191,0.03366149064758627,0.02477350808865623,0.0186299276568245,0.017729861233633147,0.008928453671082191
1.5086535757461177,0.03301661123576188,0.025006607835119373,0.017302793300784304,0.01965792357485018,0.006887695168276735
1.5087250929010443,0.031031763736761156,0.021249953513752074,0.013978643770450466,0.019191421649291763,0.004106642979320249
1.5087966100559709,0.02787943173947238,0.016170745642855814,0.009773118861112214,0.01691154489983709,0.001332542241606666
1.5088681272108975,0.024071143965329337,0.011440771538114876,0.005405399448016361,0.015235159118998056,-0.0018522323983477574
1.508939644365824,0.020368522042175177,0.007432462646508583,0.002619426200917792,0.012442217421224078,-0.003124595426705618
1.5090111615207507,0.017622660517009992,0.005248638327114016,0.001280243020763253,0.011313422757408063,-0.0038302415132827105
1.5090826786756772,0.016549556574789192,0.0043346471486787694,0.001094148915450876,0.011586060077609782,-0.004117365773170472
1.5091541958306038,0.01749078347259404,0.0042120254293952,0.001728275756159572,0.011142195447694693,-0.00335254714612942
1.5092257129855304,0.02026609634215111,0.004690109486990664,0.002622344403247119,0.00955374189141719,-0.0018504711899905298
1.509297230140457,0.024225306810832306,0.008175029626932699,0.005090188490138515,0.00934683130598506,0.00045669125581627534
1.5093687472953836,0.028505184243561566,0.016342575867063752,0.010396256019729185,0.0113450901428948,0.004342274609687521
1.5094402644503102,0.032363241212534366,0.02766629014856897,0.017181792517199104,0.015790764920099006,0.008480706507346782
1.5095117816052368,0.035420479974014,0.04022921002167583,0.023785576506019895,0.021704028831284795,0.011812666247050723
1.5095832987601634,0.03772295943106026,0.04951583630440539,0.028541189697550762,0.025892490393315936,0.014245077020646918
1.50965481591509,0.039632532833370364,0.052101766069240094,0.030196375009199177,0.027421793866832446,0.015060738791241583
1.5097263330700166,0.041605230836871475,0.04695737035375389,0.028415936049993602,0.025702921983965767,0.014215839488419335
1.5097978502249432,0.04392716574129624,0.03901631498901389,0.026087173799228647,0.020229580750974033,0.014529715838900838
1.5098693673798698,0.04649881119729661,0.03433250863485836,0.025125670272120693,0.01541704586113119,0.015782208921880033
1.5099408845347964,0.048782229516577,0.03424964268580097,0.025898717163670308,0.014780843539235148,0.01675661660260189
1.510012401689723,0.04998265464348263,0.037212921862494655,0.027970420605425636,0.016068344795354874,0.018052097084225047
1.5100839188446495,0.04939582665258717,0.037969512616415645,0.02744804663090382,0.016978440851600246,0.017182477422544428
1.5101554359995761,0.046726633743720845,0.035847604499126856,0.024915387052692306,0.016593803748890627,0.015075716963392431
1.5102269531545027,0.04221494386441091,0.03339300907233852,0.022036546886626967,0.015691409898786805,0.012885935067632963
1.5102984703094293,0.0365554045951188,0.032186325846840336,0.019143160662124768,0.016509263517552837,0.009926605736309609
1.510369987464356,0.030705701566729478,0.03262761827852122,0.01712115674686206,0.018517707279219142,0.007226274141017342
1.5104415046192825,0.025671938650474672,0.03417298378387727,0.016152578444133103,0.02091619060513525,0.005300547788661673
1.510513021774209,0.02230380117340663,0.0361455048001674,0.01595046449902194,0.023938310545891506,0.00378878591620094
1.5105845389291357,0.02110478427342222,0.035012366520130296,0.014310671393420193,0.024761193237586045,0.0019532144498089843
1.5106560560840623,0.022087028251984653,0.029832227252065156,0.011927341615445858,0.021095328478089787,0.0014258551659618343
1.5107275732389889,0.02474352062355467,0.021213071660631574,0.008315005741078718,0.01542142196452638,0.0006788718750758671
1.5107990903939155,0.028206425428266402,0.014465115987048752,0.006455089330600415,0.009790231549008795,0.0014872190166622793
1.510870607548842,0.03156791810921427,0.011024855765402823,0.006924877381908108,0.005432707247900175,0.003826998931424161
1.5109421247037687,0.034217944840168574,0.010920956273111864,0.0085255112555674,0.0042081834369614235,0.005803274812401243
1.5110136418586952,0.036025983655989566,0.014127095853792498,0.01161661354179527,0.004939118787452098,0.008257423602717286
1.5110851590136218,0.03729532439305516,0.015708557262294958,0.013294021431409462,0.006231134874732046,0.009195252507832923
1.5111566761685484,0.03854470610167679,0.014129826081553215,0.013163190298163863,0.007870277739890238,0.00835645591859301
1.511228193323475,0.04022460916569971,0.012500927107500467,0.013651672900344249,0.007840150013740185,0.008808417574226969
1.5112997104784016,0.04246467581659284,0.013324457609026303,0.01442102957265151,0.00854655737140171,0.009188540828699028
1.5113712276333282,0.04493429586497486,0.018498921414635734,0.016921655013448497,0.011934891277274984,0.0099436423382945
1.5114427447882548,0.04689231770787431,0.02458144621355833,0.019784155718843215,0.015991008843824615,0.010730497985928632
1.5115142619431814,0.047454803887083834,0.027282569231346584,0.02007376929597759,0.01895771459594883,0.009685444834896103
