freq,gls,usurper,pdc_unbiased,shape_periodogram,shift_periodogram
1.5,0.031605246424144244,0.02740817588335953,0.022003088454338578,0.06007999138453221,-0.030334072816879703
1.5000715171549266,0.028595336453250155,0.021838576659690384,0.01679692217781675,0.051422643727919125,-0.02730755167893301
1.5001430343098532,0.024797888546036324,0.016687693120205096,0.011419584810450916,0.04495274078940748,-0.026035474074405006
1.5002145514647798,0.020789812632417533,0.01499196173355942,0.008796510756732951,0.041361392195467445,-0.025089480892855065
1.5002860686197064,0.017345459787468324,0.017102702133817257,0.009479677332466734,0.04177737725556707,-0.024947053849947155
1.500357585774633,0.015271945925960987,0.020961829063948615,0.011714688134418397,0.04372199147885321,-0.024917991166402375
1.5004291029295596,0.015165201318802408,0.025307747456753862,0.01415548030345099,0.049120366890488334,-0.02733850529892718
1.5005006200844861,0.01716595655706576,0.029471445678283525,0.016954003693511403,0.053726756695012035,-0.028929302523800677
1.5005721372394127,0.02086274426290797,0.032657714860566955,0.019187221778694714,0.057757123896544305,-0.030465091545342285
1.5006436543943393,0.02544081002802935,0.03538815546862635,0.02137618975240262,0.061561033794119334,-0.03186131737401331
1.500715171549266,0.03000884122307953,0.038234496145684,0.02421994995090846,0.06533486647800263,-0.03280019178052192
1.5007866887041925,0.03391266896856934,0.04123887622551534,0.02666061786266369,0.07200126454075902,-0.03617861422719969
1.500858205859119,0.0368882624749449,0.04456920617394854,0.029368029530911475,0.08085139965321239,-0.04102352069251334
1.5009297230140457,0.0390355018056212,0.04841933509720135,0.03287087235373193,0.09128175564882746,-0.046534656794981324
1.5010012401689723,0.04067274274449097,0.049709978499814185,0.0349635290275476,0.09949063100208944,-0.051321887140269404
1.5010727573238989,0.04213722341942038,0.04984566451076245,0.036798409825528795,0.10459041924852361,-0.053943401345219084
1.5011442744788255,0.043587855733941964,0.0495357876180753,0.03793328428010061,0.10856361565101649,-0.05618418200012368
1.501215791633752,0.044880915226329254,0.04884818227340989,0.03824814004694497,0.11045936088404595,-0.057405051780302856
1.5012873087886787,0.045592465454410994,0.04920960318805132,0.03896037083855539,0.11383045985195009,-0.05947566702630635
1.5013588259436053,0.04519857422015515,0.04827677873668678,0.038338310339186395,0.1139861001389523,-0.06000781747220556
1.5014303430985318,0.04331902735671992,0.04534290092945651,0.03525172960142179,0.11030468618824504,-0.05928466055226147
1.5015018602534584,0.03989064242203222,0.039043546295740424,0.029380562295107576,0.10350249663399036,-0.05806201636525614
1.501573377408385,0.035207008956161204,0.031601264323063705,0.02275340008029923,0.09473915935854743,-0.05586761446231677
1.5016448945633116,0.029854908046904056,0.02480383361708995,0.01716592382272006,0.08570135695213242,-0.05278163506169665
1.5017164117182382,0.02460404968418353,0.019094816085359994,0.01272729457488559,0.0765351960191884,-0.04884315699988215
1.5017879288731648,0.020274028275387688,0.016027912398030295,0.010756457121333964,0.06861799870228609,-0.04421011236532994
1.5018594460280914,0.01756978332877583,0.014821581093468945,0.009814843547662735,0.06325858709800782,-0.04081605774258323
1.501930963183018,0.016887968997375314,0.015084992096720273,0.009773529530205848,0.05781218128992524,-0.03676102370835364
1.5020024803379446,0.018154766828972088,0.014959115603514385,0.009545857603491862,0.053976168011998386,-0.03403797726349665
1.5020739974928712,0.020807783027131654,0.01600965491124768,0.00997328939183271,0.0514608498464328,-0.031869881167056816
1.5021455146477978,0.023992628107040868,0.018615125344874046,0.01144212206274167,0.052001592293521054,-0.03129927523736112
1.5022170318027244,0.026898257150269028,0.022653555030102773,0.014028974316248104,0.055575818937513455,-0.032258513759037634
1.502288548957651,0.029041972437567,0.026615299780616337,0.016679671046279716,0.06150962530729521,-0.03494471246176114
1.5023600661125776,0.03036170293294545,0.031084374409247554,0.019990738498687276,0.06757517796132972,-0.03729299624037507
1.5024315832675041,0.031115659296329378,0.03175562481661337,0.02077896981185265,0.07201578584814428,-0.04010118655415778
1.5025031004224307,0.031680428730509906,0.029449331992790297,0.019519808615351825,0.07275432745903336,-0.041492513102298144
1.5025746175773573,0.032340192227813126,0.026435451568819376,0.018649627815208736,0.07016664997500545,-0.040128797225609705
1.502646134732284,0.033131945974426154,0.02400342164042568,0.017871043624403338,0.06542737106397166,-0.037090796687695375
1.5027176518872105,0.033797027787609374,0.023468529594364435,0.01799769758677829,0.06346632398012288,-0.035535922097426904
1.502789169042137,0.033871437590867574,0.022121781032142372,0.017486670760106647,0.06147102509203792,-0.03437945956251623
1.5028606861970637,0.03289397904446062,0.019379236386170347,0.015274482970942199,0.057514556527674975,-0.0328838030672649
1.5029322033519903,0.030638444170610023,0.016465804032533046,0.012011118949132128,0.05329175493672706,-0.0318877792435936
1.5030037205069169,0.02725242384486997,0.014894596378805398,0.009441040885373031,0.05030949326405118,-0.031361035266161526
1.5030752376618435,0.023245599290448483,0.015938970953373075,0.008606550278537486,0.0498659027141045,-0.031583042463803564
1.50314675481677,0.019358366958489085,0.0184163927232146,0.008953985446160287,0.049994700872891346,-0.03144875707957134
1.5032182719716967,0.01638051368297583,0.021561438524563138,0.010426555451109277,0.0509108233684199,-0.031156839343823798
1.5032897891266233,0.01497089818834955,0.024757434314779912,0.012350463029946239,0.05013622112277815,-0.029298630975690645
1.5033613062815498,0.015499460648454992,0.027352760894709772,0.013981854206916533,0.04909559403246827,-0.027435322368964392
1.5034328234364764,0.01793079665045714,0.027478888160547936,0.01416864675154985,0.047029849954178825,-0.02576419853766659
1.503504340591403,0.021792554285279486,0.0266790520518176,0.013806564009865633,0.044386446890474246,-0.024025529164182248
1.5035758577463296,0.026283745634476982,0.028867462574687707,0.015751292513310384,0.0448423483928039,-0.023074492847007185
1.5036473749012562,0.03053094650102892,0.033236485700805,0.019003856556851165,0.050208722911083685,-0.024931247427743445
1.5037188920561828,0.03389868374654469,0.038689833855521674,0.02304438568669538,0.06009882933833065,-0.029655695479333853
1.5037904092111094,0.03619247413189749,0.045469055822909,0.02836367437687625,0.07192215159409714,-0.03498594361409958
1.503861926366036,0.03764566473947448,0.05040338824872354,0.03246316988130233,0.08323907838911718,-0.040757378879163114
1.5039334435209626,0.038716510453014726,0.052583727186292006,0.03408384953452373,0.09145403575978815,-0.04585645743404985
1.5040049606758892,0.0398171228344044,0.053540913669236787,0.03557140334761458,0.09768689636443578,-0.049558118621613405
1.5040764778308158,0.041095739566223526,0.055758581265741604,0.037525773851031737,0.10171938538758374,-0.051294233334743825
1.5041479949857424,0.04234364882306056,0.05802694556087606,0.038887791087543686,0.10492642164509854,-0.05280424975231273
1.504219512140669,0.043051695709888996,0.05895272716947219,0.03921573232033744,0.10658408798715925,-0.05383589207229889
1.5042910292955955,0.04260283060723393,0.055511889516902134,0.036347749549566495,0.10386419043459352,-0.05369608653432145
1.5043625464505221,0.04053910287302065,0.04738249737337365,0.030363706364527798,0.09610497851852358,-0.05183445510456716
1.5044340636054487,0.03679439695722014,0.03697263055835608,0.02344001313236871,0.08433544417024377,-0.04758553141115219
1.5045055807603753,0.03178229372791513,0.027744058383518882,0.01698689592080203,0.07339469648126468,-0.04365637890235856
1.504577097915302,0.026296542555493532,0.021526535577531408,0.012446934359831944,0.06410565333875912,-0.03970326515632176
1.5046486150702285,0.021278189004975218,0.01947696603677589,0.011187449324425095,0.05782183197195032,-0.03582922489026408
1.504720132225155,0.017555651134353225,0.019234862210325738,0.011283372248322305,0.05243198754157619,-0.03172713174952673
1.5047916493800817,0.01564621916050789,0.01872933989023573,0.010644076718018416,0.0475931139585819,-0.02852767116274256
1.5048631665350083,0.015656872938766518,0.01731532626742237,0.009217644422453899,0.04204518544084928,-0.025321577518513588
1.5049346836899349,0.017286051262519187,0.016395580756137867,0.008230188330603324,0.0376777347338651,-0.02270872743972901
1.5050062008448615,0.019918755698584013,0.01660841606252578,0.007905738300784866,0.03499422949617382,-0.020916214188153162
1.505077717999788,0.022804926807040774,0.01870653198898525,0.009361654152707073,0.03387755032788342,-0.019113540031977915
1.5051492351547147,0.025289013466251117,0.022861127657190217,0.011726326065843064,0.038342653816371704,-0.020883737208344685
1.5052207523096413,0.027015644551186973,0.026698614238827096,0.014241445734319206,0.0448873200540006,-0.024111553481913867
1.5052922694645678,0.028012475009877,0.028365872995057634,0.015961322224474977,0.048938141268915956,-0.026001971535316706
1.5053637866194944,0.028596359216805502,0.025594113753068953,0.014919408532213189,0.049183300339375964,-0.026878003788510157
1.505435303774421,0.02915112616185344,0.020374850881641718,0.013309044659559194,0.04660827312769994,-0.02601969858759691
1.5055068209293476,0.029900153036102176,0.016562843188305525,0.012321918805932341,0.04289124341777892,-0.023892629484299203
1.5055783380842742,0.030782681811496897,0.015715511739416606,0.01250866989698158,0.04108840578002477,-0.022419006131315415
1.5056498552392008,0.03146961942071043,0.017350137240935405,0.013496870470295333,0.04281586072902718,-0.02305549780516061
1.5057213723941274,0.03149161794629547,0.01820361655866654,0.013134126432083434,0.04508519614483617,-0.02499550289435331
1.505792889549054,0.030427310908792447,0.018372414090928244,0.011855838401314541,0.0451402933313672,-0.025886065276475884
1.5058644067039806,0.02809465201809536,0.017194448188892673,0.009674998552531539,0.043107669797487584,-0.025813114442400076
1.5059359238589072,0.024683284499830333,0.014182892133838195,0.006168765257997816,0.04105076141984747,-0.02660227405136085
1.5060074410138338,0.020766913938386953,0.012144158202179704,0.003987129865862614,0.0389096285913261,-0.026448626949804824
1.5060789581687604,0.017165658691511196,0.01295134462636909,0.004506773893992003,0.03699840531191481,-0.024673359845215456
1.506150475323687,0.014695536880755058,0.01482252442408613,0.005603202541494299,0.03529430231200555,-0.022670099338813123
1.5062219924786135,0.013907828977730352,0.01638379090826398,0.006474304461408025,0.032545706394907115,-0.02003508783722367
1.5062935096335401,0.014929925183180436,0.01654624197106399,0.007024475314287043,0.02793075353951223,-0.016217398861299834
1.5063650267884667,0.01746107614733839,0.015542539867280656,0.006681651925523114,0.023265801208295224,-0.012956147340941596
1.5064365439433933,0.020900617081537138,0.016669777569757682,0.008103902228742074,0.020768386193244757,-0.01014372233567532
1.50650806109832,0.024545654709518663,0.019843896378591974,0.01119024144466396,0.021492769157923548,-0.008634916613667522
1.5065795782532465,0.027795889555703463,0.025256850235200853,0.015188716512202768,0.028693364649020673,-0.011363284001324202
1.506651095408173,0.030315638754338018,0.03221491469372493,0.02020329875354711,0.03886424984044278,-0.015639925481973602
1.5067226125630997,0.03210575674634778,0.03926179453258857,0.02516307524326057,0.05045920452466893,-0.0210228061469165
1.5067941297180263,0.03344435853615213,0.04355850320811944,0.02809340030703321,0.05911886930736681,-0.025561948482119384
1.5068656468729529,0.03469846610783441,0.04386657356891742,0.028836225363534616,0.06268856750837878,-0.027743948655891332
1.5069371640278795,0.03608805388876267,0.04298048056700787,0.029158238083419115,0.061965043328570404,-0.026987072631775976
1.507008681182806,0.03753193323000867,0.04284107777952638,0.029645090979329304,0.060689484697006725,-0.025706607274326197
1.5070801983377327,0.038657419159163646,0.04315179147826481,0.03000532215028713,0.05866766455671213,-0.023951126876776804
1.5071517154926592,0.038950459296790155,0.04241791270339929,0.029635790998015537,0.05530775311170065,-0.02167896415614509
1.5072232326475858,0.03795818995272562,0.038469923304704653,0.026170643808596194,0.04974241556105192,-0.01981557290281225
1.5072947498025124,0.035465807062779846,0.033462317496647784,0.02167628316777021,0.04273251672348418,-0.017555972863298793
1.507366266957439,0.03160750390290827,0.02927576256558718,0.01779655130545853,0.037196489023856305,-0.015991827536455738
1.5074377841123656,0.02689036393457737,0.02568705098894503,0.014369878001425985,0.03402606453617166,-0.015896974819167735
1.5075093012672922,0.022110982309926926,0.022649516936467214,0.012274203971852665,0.03137659561242185,-0.015307327443120534
1.5075808184222188,0.018158898886019043,0.020805372909678658,0.010838451012952628,0.030429901216598408,-0.015553074741872834
1.5076523355771454,0.015750547010193554,0.019917559551139052,0.009985828883372298,0.028285922172447454,-0.014515762674287563
1.507723852732072,0.015198153002695225,0.01772197435298081,0.008495434228764531,0.02329943917265531,-0.011776389354818619
1.5077953698869986,0.01632710132796861,0.014513815605912783,0.006411917338543193,0.017240463830500267,-0.008629728186701862
1.5078668870419252,0.01858159605132472,0.01211720068047231,0.00521914285473996,0.01175760302820591,-0.005322752696391436
1.5079384041968518,0.02125563485920751,0.010668801125773224,0.005152249488431391,0.0072094441806854585,-0.001967044097527804
1.5080099213517784,0.023737553869918368,0.010249658503440654,0.0057615299185219465,0.005921568963703438,-0.0005995609583963714
1.508081438506705,0.025680396681245936,0.011322031237419431,0.007453924502377228,0.008071179469323363,-0.0010822844486832314
1.5081529556616315,0.027059576075294776,0.012205080860638512,0.008842952470356694,0.011867701524672668,-0.002997752578808258
1.5082244728165581,0.028112039179855254,0.011185416510517217,0.008942296206187028,0.014567120862898837,-0.004949929298799323
1.5082959899714847,0.029172386947160022,0.009301696746879218,0.008780907310022895,0.0171440408621657,-0.006983863951434637
1.5083675071264113,0.03045818310099522,0.009314100184155794,0.010026451111954632,0.020279218996716097,-0.008500665743513837
1.508439024281338,0.03190386747651281,0.0123880959688933,0.012747040105629182,0.024219718095617297,-0.009639820110706599
1.5085105414362645,0.03314377564440417,0.017189975929160873,0.01600259242207933,0.029052518167247503,-0.01109102335564505
1.508582058591191,0.03366149064758627,0.02128301224719874,0.0186299276568245,0.03282429550083954,-0.012166277874285274
1.5086535757461177,0.03301661123576188,0.021255589127756484,0.017302793300784304,0.033332924777449105,-0.013429034078384524
1.5087250929010443,0.031031763736761156,0.018269258751160918,0.013978643770450466,0.029852191388346314,-0.013034319005448962
1.5087966100559709,0.02787943173947238,0.014002043076941185,0.009773118861112214,0.02395333779143946,-0.011416574793361237
1.5088681272108975,0.024071143965329337,0.009831994902871816,0.005405399448016361,0.01923522857244772,-0.01078987644948008
1.508939644365824,0.020368522042175177,0.0064601886516839485,0.002619426200917792,0.01603495385679943,-0.01024753731324476
1.5090111615207507,0.017622660517009992,0.004788629150703762,0.001280243020763253,0.015398349122047131,-0.010661057384259893
1.5090826786756772,0.016549556574789192,0.004403844651825033,0.001094148915450876,0.015010211742264464,-0.010494466893550854
1.5091541958306038,0.01749078347259404,0.00458094114228818,0.001728275756159572,0.013592464580983808,-0.009013312486228605
1.5092257129855304,0.02026609634215111,0.004890342941981575,0.002622344403247119,0.011755269647569193,-0.00704592756656716
1.509297230140457,0.024225306810832306,0.007484261727274979,0.005090188490138515,0.01186857231485873,-0.005491375454927498
1.5093687472953836,0.028505184243561566,0.013888636151307959,0.010396256019729185,0.014812444062170636,-0.004167380654156083
1.5094402644503102,0.032363241212534366,0.02265437782007883,0.017181792517199104,0.021495198254301184,-0.004655127153617592
1.5095117816052368,0.035420479974014,0.03197300135997584,0.023785576506019895,0.030296019181490684,-0.006846801198715046
1.5095832987601634,0.03772295943106026,0.03859894803141173,0.028541189697550762,0.036118464323895635,-0.008039220248218994
1.50965481591509,0.039632532833370364,0.04035389864494808,0.030196375009199177,0.03786777393176055,-0.00824669534692286
1.5097263330700166,0.041605230836871475,0.03660264258314757,0.028415936049993602,0.0367969530410993,-0.008630248355526829
1.5097978502249432,0.04392716574129624,0.03084134378945071,0.026087173799228647,0.0317039564388275,-0.0063691639168358604
1.5098693673798698,0.04649881119729661,0.027492837273419227,0.025125670272120693,0.025417386121717872,-0.0023066969760516757
1.5099408845347964,0.048782229516577,0.027845171300914552,0.025898717163670308,0.022109347774614582,0.0006810540973399905
1.510012401689723,0.04998265464348263,0.030593877962697504,0.027970420605425636,0.020724628766029304,0.0030942370839650074
1.5100839188446495,0.04939582665258717,0.03149042548201322,0.02744804663090382,0.018261263750923105,0.004588376153344723
1.5101554359995761,0.046726633743720845,0.030303494126641094,0.024915387052692306,0.014410668054833362,0.005782620856975833
1.5102269531545027,0.04221494386441091,0.02874175796962734,0.022036546886626967,0.009923665812017342,0.0072226836749317075
1.5102984703094293,0.0365554045951188,0.027779535530816107,0.019143160662124768,0.008675629553446423,0.006232493508833466
1.510369987464356,0.030705701566729478,0.027982253452041125,0.01712115674686206,0.010387185909020548,0.0036093779844584384
1.5104415046192825,0.025671938650474672,0.029016883260337245,0.016152578444133103,0.01429076159356683,4.753997453338529e-05
1.510513021774209,0.02230380117340663,0.030490478163400274,0.01595046449902194,0.018043814381925684,-0.0028927544216414574
1.5105845389291357,0.02110478427342222,0.029414081613955097,0.014310671393420193,0.019000213365385026,-0.004697597377948184
1.5106560560840623,0.022087028251984653,0.02530431751470257,0.011927341615445858,0.015487500532564343,-0.003654824623112867
1.5107275732389889,0.02474352062355467,0.018375946365431054,0.008315005741078718,0.009591161630815321,-0.0016465545987564413
1.5107990903939155,0.028206425428266402,0.013089514008388115,0.006455089330600415,0.004662952710651735,0.0008020200275842823
1.510870607548842,0.03156791810921427,0.010557331349748284,0.006924877381908108,0.0027982385634163455,0.002508014218981821
1.5109421247037687,0.034217944840168574,0.010187604415013233,0.0085255112555674,0.005727813930082999,0.0013813568547545107
1.5110136418586952,0.036025983655989566,0.012311456926858472,0.01161661354179527,0.011602637192448998,-0.0009568485691304416
1.5110851590136218,0.03729532439305516,0.013129985721425284,0.013294021431409462,0.01730378131108775,-0.004104720199700035
1.5111566761685484,0.03854470610167679,0.01176445385553382,0.013163190298163863,0.022950761850635236,-0.008414285448961395
1.511228193323475,0.04022460916569971,0.010517881638202279,0.013651672900344249,0.02659467355134601,-0.010814953092665268
1.5112997104784016,0.04246467581659284,0.010877783646433041,0.01442102957265151,0.028719072141651033,-0.011892705192840696
1.5113712276333282,0.04493429586497486,0.01461181253316323,0.016921655013448497,0.032835929159655754,-0.01331053334721259
1.5114427447882548,0.04689231770787431,0.019122237393698633,0.019784155718843215,0.037089720430636054,-0.014590561765562221
1.5115142619431814,0.047454803887083834,0.021033975058880265,0.02007376929597759,0.03764697623406247,-0.01481503589822835
