freq,gls,usurper,pdc_unbiased,shape_periodogram,shift_periodogram
1.5,0.031605246424144244,0.032135460013108644,0.022003088454338578,0.05020935057787102,-0.01675327471088896
1.5000715171549266,0.028595336453250155,0.025527967743024467,0.01679692217781675,0.04258930225293036,-0.015608068789979262
1.5001430343098532,0.024797888546036324,0.019816562768656336,0.011419584810450916,0.03602626833274523,-0.015292185365235203
1.5002145514647798,0.020789812632417533,0.017904680215882623,0.008796510756732951,0.02939934666959312,-0.012868945722566194
1.5002860686197064,0.017345459787468324,0.020369842243754523,0.009479677332466734,0.025826978158751807,-0.009990645469076317
1.500357585774633,0.015271945925960987,0.024760645190806674,0.011714688134418397,0.02475193754643887,-0.007602699271201046
1.5004291029295596,0.015165201318802408,0.029956493852738384,0.01415548030345099,0.0283521885126649,-0.00815640034177596
1.5005006200844861,0.01716595655706576,0.034770718693090716,0.016954003693511403,0.0305211805205599,-0.0074936985660144185
1.5005721372394127,0.02086274426290797,0.0383938873035524,0.019187221778694714,0.03195231721495699,-0.006766077953939419
1.5006436543943393,0.02544081002802935,0.04153011624349854,0.02137618975240262,0.033176263066228735,-0.0059341438868931
1.500715171549266,0.03000884122307953,0.04489836762681927,0.02421994995090846,0.03368848102500837,-0.004138931578015335
1.5007866887041925,0.03391266896856934,0.04888083245597521,0.02666061786266369,0.03936035216143209,-0.006063936794702535
1.500858205859119,0.0368882624749449,0.05348486818870251,0.029368029530911475,0.0483136692405001,-0.009964560692400799
1.5009297230140457,0.0390355018056212,0.05863161916257292,0.03287087235373193,0.060669152359340985,-0.015528335406661589
1.5010012401689723,0.04067274274449097,0.06058319758026538,0.0349635290275476,0.07210533721388264,-0.02155063109321928
1.5010727573238989,0.04213722341942038,0.060995370667688634,0.036798409825528795,0.0808898677137003,-0.026012140466853857
1.5011442744788255,0.043587855733941964,0.061124155860223274,0.03793328428010061,0.08868799805674137,-0.03035022399803572
1.501215791633752,0.044880915226329254,0.06079395055798498,0.03824814004694497,0.09430107729022437,-0.033854717052130855
1.5012873087886787,0.045592465454410994,0.06174449515323893,0.03896037083855539,0.09914427288545885,-0.03654943845405119
1.5013588259436053,0.04519857422015515,0.06111132009790005,0.038338310339186395,0.10090045308519033,-0.038190567967555704
1.5014303430985318,0.04331902735671992,0.057586738720429846,0.03525172960142179,0.10094322858110297,-0.04054406598925052
1.5015018602534584,0.03989064242203222,0.049955415404080716,0.029380562295107576,0.09712420482815244,-0.04241298404619888
1.501573377408385,0.035207008956161204,0.04096136280721907,0.02275340008029923,0.09139594853697827,-0.04357312529566552
1.5016448945633116,0.029854908046904056,0.03267607872696728,0.01716592382272006,0.0821784138119579,-0.041626929085196614
1.5017164117182382,0.02460404968418353,0.0257005663286705,0.01272729457488559,0.07177358408196235,-0.03803443138263116
1.5017879288731648,0.020274028275387688,0.021512580493537655,0.010756457121333964,0.06241768851019951,-0.033295536295226046
1.5018594460280914,0.01756978332877583,0.019481260132292764,0.009814843547662735,0.0563957626098268,-0.030003503958640407
1.501930963183018,0.016887968997375314,0.01891938487625542,0.009773529530205848,0.04907011120635346,-0.0251739091526978
1.5020024803379446,0.018154766828972088,0.017908717249006924,0.009545857603491862,0.04129689563580962,-0.020190457740476245
1.5020739974928712,0.020807783027131654,0.018199427436455255,0.00997328939183271,0.03431642858062241,-0.015243903264253395
1.5021455146477978,0.023992628107040868,0.020457828560776964,0.01144212206274167,0.030081170809994895,-0.011336638544373133
1.5022170318027244,0.026898257150269028,0.02482392144816612,0.014028974316248104,0.0312744041193937,-0.010186847785266614
1.502288548957651,0.029041972437567,0.02956661227830227,0.016679671046279716,0.03599277969334288,-0.01132427527166564
1.5023600661125776,0.03036170293294545,0.03479876246764645,0.019990738498687276,0.043966008041096544,-0.014123915101108081
1.5024315832675041,0.031115659296329378,0.03576954169474033,0.02077896981185265,0.05190481195626383,-0.018796943754076555
1.5025031004224307,0.031680428730509906,0.0333040707122374,0.019519808615351825,0.057298568692526794,-0.023321357234704156
1.5025746175773573,0.032340192227813126,0.029881569543626772,0.018649627815208736,0.05879887899138288,-0.024970478589754926
1.502646134732284,0.033131945974426154,0.02729704640303045,0.017871043624403338,0.056949275708049994,-0.02432706566375718
1.5027176518872105,0.033797027787609374,0.026785197223506307,0.01799769758677829,0.05559993840486868,-0.023336445856042286
1.502789169042137,0.033871437590867574,0.025527578469676616,0.017486670760106647,0.05340409527082419,-0.022262832884042103
1.5028606861970637,0.03289397904446062,0.02241839597618146,0.015274482970942199,0.05053908205200119,-0.022022057339820003
1.5029322033519903,0.030638444170610023,0.01882895725827698,0.012011118949132128,0.047997901540237885,-0.022784607743842254
1.5030037205069169,0.02725242384486997,0.016877445386017258,0.009441040885373031,0.04584298795647357,-0.023283046056169168
1.5030752376618435,0.023245599290448483,0.018220035128193653,0.008606550278537486,0.044395869102578756,-0.022949272902189868
1.50314675481677,0.019358366958489085,0.021440186067801344,0.008953985446160287,0.04317883225866958,-0.021881858567918234
1.5032182719716967,0.01638051368297583,0.02558044179877748,0.010426555451109277,0.04266282605638673,-0.0204354810059945
1.5032897891266233,0.01497089818834955,0.029619639842364136,0.012350463029946239,0.042629202678422046,-0.01897024873790716
1.5033613062815498,0.015499460648454992,0.032751377702806526,0.013981854206916533,0.04127777985878967,-0.016850680704180207
1.5034328234364764,0.01793079665045714,0.032905802133654426,0.01416864675154985,0.0363827189814732,-0.01346642271197202
1.503504340591403,0.021792554285279486,0.031897353048408274,0.013806564009865633,0.029543432398041188,-0.009207105358293239
1.5035758577463296,0.026283745634476982,0.03407763702357739,0.015751292513310384,0.025550146024482915,-0.005103745216825708
1.5036473749012562,0.03053094650102892,0.03897290496835576,0.019003856556851165,0.028093498843511647,-0.004347925935218166
1.5037188920561828,0.03389868374654469,0.04583351669719758,0.02304438568669538,0.03704732576000849,-0.007246496135071152
1.5037904092111094,0.03619247413189749,0.05452029033925283,0.02836367437687625,0.0501480955945698,-0.011935568540529835
1.503861926366036,0.03764566473947448,0.061236128204030175,0.03246316988130233,0.06453738362478917,-0.01840324998324352
1.5039334435209626,0.038716510453014726,0.06463030115359514,0.03408384953452373,0.07863851509705302,-0.02655717781311019
1.5040049606758892,0.0398171228344044,0.06638832595356355,0.03557140334761458,0.08946514168373738,-0.03264659935481032
1.5040764778308158,0.041095739566223526,0.06979532309626531,0.037525773851031737,0.09754209327624032,-0.03656099513212759
1.5041479949857424,0.04234364882306056,0.07303562077438525,0.038887791087543686,0.10335318702096484,-0.03941457334526798
1.504219512140669,0.043051695709888996,0.07438182545129246,0.03921573232033744,0.10707163399063083,-0.041652213827448555
1.5042910292955955,0.04260283060723393,0.0699562598738975,0.036347749549566495,0.10741654401111088,-0.044043819132914774
1.5043625464505221,0.04053910287302065,0.05953869753834232,0.030363706364527798,0.10306161942543826,-0.04563801997733717
1.5044340636054487,0.03679439695722014,0.04642931388003661,0.02344001313236871,0.09390934821004017,-0.04473351652241464
1.5045055807603753,0.03178229372791513,0.0349290971672814,0.01698689592080203,0.08479062383936728,-0.04350092589081531
1.504577097915302,0.026296542555493532,0.02698274808162494,0.012446934359831944,0.07517598018971285,-0.040507425577439346
1.5046486150702285,0.021278189004975218,0.02407267691027068,0.011187449324425095,0.06732551340796776,-0.03623273617659963
1.504720132225155,0.017555651134353225,0.02324015611626442,0.011283372248322305,0.061253191258307284,-0.03212700670095338
1.5047916493800817,0.01564621916050789,0.022171751587513992,0.010644076718018416,0.05634040341285219,-0.02934489006985633
1.5048631665350083,0.015656872938766518,0.019879360952302437,0.009217644422453899,0.04868597167443848,-0.025335976369105243
1.5049346836899349,0.017286051262519187,0.018095441058246592,0.008230188330603324,0.03977841268076374,-0.020170525572647615
1.5050062008448615,0.019918755698584013,0.01766030739852517,0.007905738300784866,0.0311221041083407,-0.014678033615184046
1.505077717999788,0.022804926807040774,0.01950467498624209,0.009361654152707073,0.02409985519010611,-0.008935394037282553
1.5051492351547147,0.025289013466251117,0.024138747176792562,0.011726326065843064,0.025474532628932692,-0.00807248832610765
1.5052207523096413,0.027015644551186973,0.02904218417752233,0.014241445734319206,0.031188151651899497,-0.009970340288045899
1.5052922694645678,0.028012475009877,0.03170226348355739,0.015961322224474977,0.03681426028339504,-0.012407536868925002
1.5053637866194944,0.028596359216805502,0.02886237143918093,0.014919408532213189,0.04054590441949102,-0.015662235074311213
1.505435303774421,0.02915112616185344,0.022882368912439766,0.013309044659559194,0.041532934642225655,-0.01752451095031445
1.5055068209293476,0.029900153036102176,0.018654384257361368,0.012321918805932341,0.0411505136710652,-0.018011446669485474
1.5055783380842742,0.030782681811496897,0.01801348067208487,0.01250866989698158,0.04061243608004536,-0.017514711504814106
1.5056498552392008,0.03146961942071043,0.020210906108923954,0.013496870470295333,0.04215481562229142,-0.01779585439787499
1.5057213723941274,0.03149161794629547,0.021330583698606784,0.013134126432083434,0.04438430515582389,-0.019546016260489543
1.505792889549054,0.030427310908792447,0.020928663235940975,0.011855838401314541,0.04569355265151248,-0.021372936894315957
1.5058644067039806,0.02809465201809536,0.018894911931293026,0.009674998552531539,0.0445520942975933,-0.022251651245386923
1.5059359238589072,0.024683284499830333,0.015324328635821186,0.006168765257997816,0.042539189844896984,-0.023546134692133146
1.5060074410138338,0.020766913938386953,0.013074717553021704,0.003987129865862614,0.039461707466410804,-0.023141716333674348
1.5060789581687604,0.017165658691511196,0.014180694405589151,0.004506773893992003,0.036441032302858375,-0.02075034915309245
1.506150475323687,0.014695536880755058,0.01665349401653218,0.005603202541494299,0.03512138288119688,-0.01905395721482727
1.5062219924786135,0.013907828977730352,0.018770307559282173,0.006474304461408025,0.033692940408960044,-0.017454435184271026
1.5062935096335401,0.014929925183180436,0.019058333853375815,0.007024475314287043,0.029021933557054888,-0.013947635012151207
1.5063650267884667,0.01746107614733839,0.017715616077255834,0.006681651925523114,0.02321469701799973,-0.010358690829222418
1.5064365439433933,0.020900617081537138,0.018844504312735343,0.008103902228742074,0.017778598011854642,-0.005693017568921237
1.50650806109832,0.024545654709518663,0.02251631887082551,0.01119024144466396,0.01318125184749993,-0.0003354810904083658
1.5065795782532465,0.027795889555703463,0.02930016098508177,0.015188716512202768,0.01639765370299477,0.0005338657535417704
1.506651095408173,0.030315638754338018,0.03845049069493502,0.02020329875354711,0.024639083465445185,-0.0011605735954240619
1.5067226125630997,0.03210575674634778,0.047793772273498014,0.02516307524326057,0.036337773241342075,-0.005185845992788169
1.5067941297180263,0.03344435853615213,0.05339550244017995,0.02809340030703321,0.048220819734046495,-0.010860622588326402
1.5068656468729529,0.03469846610783441,0.054223712990719056,0.028836225363534616,0.056619641930287345,-0.015873556128264035
1.5069371640278795,0.03608805388876267,0.05349217531314248,0.029158238083419115,0.061757722146515155,-0.019042067323471613
1.507008681182806,0.03753193323000867,0.05340401001434993,0.029645090979329304,0.06573035419000738,-0.021314387472394017
1.5070801983377327,0.038657419159163646,0.05356409579362374,0.03000532215028713,0.06722831090640688,-0.022038709208040925
1.5071517154926592,0.038950459296790155,0.052368490858233745,0.029635790998015537,0.06660283602733233,-0.021900967745672083
1.5072232326475858,0.03795818995272562,0.046994844400617346,0.026170643808596194,0.0644744654923281,-0.023091328430674116
1.5072947498025124,0.035465807062779846,0.04012223729070289,0.02167628316777021,0.060128518333856115,-0.023581014540823588
1.507366266957439,0.03160750390290827,0.03442704618737759,0.01779655130545853,0.05521379939011766,-0.02323114942547161
1.5074377841123656,0.02689036393457737,0.02953958297662793,0.014369878001425985,0.050471575986330744,-0.022655963587238075
1.5075093012672922,0.022110982309926926,0.025330602894527206,0.012274203971852665,0.04556188437043399,-0.02097183215360622
1.5075808184222188,0.018158898886019043,0.022693145376649453,0.010838451012952628,0.04321573258086196,-0.020493124252856487
1.5076523355771454,0.015750547010193554,0.021123379879014054,0.009985828883372298,0.041244789893764906,-0.01982597951894083
1.507723852732072,0.015198153002695225,0.01805076482939016,0.008495434228764531,0.03631753491756816,-0.017678041898901566
1.5077953698869986,0.01632710132796861,0.013778027297375341,0.006411917338543193,0.0281765081244713,-0.013846934100774623
1.5078668870419252,0.01858159605132472,0.010519215058655513,0.00521914285473996,0.018949367721328922,-0.008630944362452512
1.5079384041968518,0.02125563485920751,0.0085132571041609,0.005152249488431391,0.009578708555619292,-0.0024777632127831687
1.5080099213517784,0.023737553869918368,0.008271230006683767,0.0057615299185219465,0.004563420881645972,0.0012985945670529132
1.508081438506705,0.025680396681245936,0.010210024655356404,0.007453924502377228,0.003587031078548192,0.003213560813952818
1.5081529556616315,0.027059576075294776,0.012125559261538011,0.008842952470356694,0.0056091118649106595,0.0029165645306364345
1.5082244728165581,0.028112039179855254,0.011570614554026163,0.008942296206187028,0.007973991212840769,0.0014257986963099522
1.5082959899714847,0.029172386947160022,0.009656135334120033,0.008780907310022895,0.010473607026139191,-0.00034969125526593
1.5083675071264113,0.03045818310099522,0.009786261606101467,0.010026451111954632,0.013400812562830077,-0.001353435214090783
1.508439024281338,0.03190386747651281,0.013873567131868486,0.012747040105629182,0.017807055214112646,-0.002230254150488917
1.5085105414362645,0.03314377564440417,0.019876034532071443,0.01600259242207933,0.02347063977462395,-0.0035382756043859753
1.508582058591191,0.03366149064758627,0.024807697643379863,0.0186299276568245,0.028477565057296195,-0.004882828214690045
1.5086535757461177,0.03301661123576188,0.02463736618629028,0.017302793300784304,0.03097151486824675,-0.007530309141366478
1.5087250929010443,0.031031763736761156,0.020587949510290915,0.013978643770450466,0.030319042365749897,-0.009591771150003993
1.5087966100559709,0.02787943173947238,0.015236980800918315,0.009773118861112214,0.026726741723606146,-0.010366490129143091
1.5088681272108975,0.024071143965329337,0.010227546168163326,0.005405399448016361,0.022992310053366972,-0.01116826810291704
1.508939644365824,0.020368522042175177,0.006240061428927529,0.002619426200917792,0.01839510277610436,-0.010212888540894308
1.5090111615207507,0.017622660517009992,0.004298174894687215,0.001280243020763253,0.01598183495147399,-0.009619071609716992
1.5090826786756772,0.016549556574789192,0.003695942128157886,0.001094148915450876,0.015654894698082202,-0.009542128516409723
1.5091541958306038,0.01749078347259404,0.0037573925997002144,0.001728275756159572,0.013924698141901764,-0.007921387250858967
1.5092257129855304,0.02026609634215111,0.004263102953679319,0.002622344403247119,0.009981632143353182,-0.004641020738002057
1.509297230140457,0.024225306810832306,0.007536616783556882,0.005090188490138515,0.006062663896762997,-0.00019700229499141259
1.5093687472953836,0.028505184243561566,0.015368682291018163,0.010396256019729185,0.004416965203362222,0.0048701133016275065
1.5094402644503102,0.032363241212534366,0.02634119153110614,0.017181792517199104,0.007549325636356789,0.007884886994062888
1.5095117816052368,0.035420479974014,0.03850035540439108,0.023785576506019895,0.015140454843708689,0.007814620422457064
1.5095832987601634,0.03772295943106026,0.04757998678730151,0.028541189697550762,0.022972680801669122,0.006200074581585319
1.50965481591509,0.039632532833370364,0.050347943412293025,0.030196375009199177,0.029147955161185703,0.0033550622073149987
1.5097263330700166,0.041605230836871475,0.04580353991337543,0.028415936049993602,0.031936594220980205,0.00017164846983750982
1.5097978502249432,0.04392716574129624,0.038651238756427043,0.026087173799228647,0.029407307837101066,9.805387327290038e-05
1.5098693673798698,0.04649881119729661,0.03451871849424807,0.025125670272120693,0.025392959381975534,0.002034193865512684
1.5099408845347964,0.048782229516577,0.034713190841020924,0.025898717163670308,0.024186363875099978,0.00341318935012948
1.510012401689723,0.04998265464348263,0.03763464146452787,0.027970420605425636,0.024684725874080878,0.00463839157904168
1.5100839188446495,0.04939582665258717,0.03814507839452734,0.02744804663090382,0.025104697722076463,0.0039682482690177314
1.5101554359995761,0.046726633743720845,0.03570052823359281,0.024915387052692306,0.024622341145665198,0.0023865324116559604
1.5102269531545027,0.04221494386441091,0.03285240495914417,0.022036546886626967,0.02289850058493391,0.001367332931968995
1.5102984703094293,0.0365554045951188,0.03120405668448834,0.019143160662124768,0.02287446842243664,-0.0007876295569209023
1.510369987464356,0.030705701566729478,0.031189249600902108,0.01712115674686206,0.023730383468819775,-0.002871200663910525
1.5104415046192825,0.025671938650474672,0.03239313803261887,0.016152578444133103,0.0256376305077993,-0.004860665094342108
1.510513021774209,0.02230380117340663,0.03412177620095984,0.01595046449902194,0.028616121395809983,-0.006984769678216115
1.5105845389291357,0.02110478427342222,0.03268746572384884,0.014310671393420193,0.028601045852233838,-0.008204816765245855
1.5106560560840623,0.022087028251984653,0.02748212679748187,0.011927341615445858,0.023073846887954812,-0.006332020788496975
1.5107275732389889,0.02474352062355467,0.01907978261256155,0.008315005741078718,0.014074815919618273,-0.0030827977274641397
1.5107990903939155,0.028206425428266402,0.012605978087499923,0.006455089330600415,0.004660289012932992,0.0017544150186399787
1.510870607548842,0.03156791810921427,0.009530300991047964,0.006924877381908108,-0.001885344170973783,0.006438851135304837
1.5109421247037687,0.034217944840168574,0.009828382441255161,0.0085255112555674,-0.002551976083796321,0.008079928425165714
1.5110136418586952,0.036025983655989566,0.013319605978164197,0.01161661354179527,0.0011308777049948463,0.007959819439723344
1.5110851590136218,0.03729532439305516,0.015249958316128995,0.013294021431409462,0.006948782413316115,0.0053670949407828095
1.5111566761685484,0.03854470610167679,0.014166051047177722,0.013163190298163863,0.013194518056520476,0.0011351457617698624
1.511228193323475,0.04022460916569971,0.012997120740431346,0.013651672900344249,0.016459935358663556,-0.0006600674520831834
1.5112997104784016,0.04246467581659284,0.013945618022373301,0.01442102957265151,0.018354350206424706,-0.001337176867315201
1.5113712276333282,0.04493429586497486,0.018920535840481853,0.016921655013448497,0.021148981167131577,-0.0013117448829325787
1.5114427447882548,0.04689231770787431,0.024706441155050243,0.019784155718843215,0.02375081434228346,-0.0008869328251161466
1.5115142619431814,0.047454803887083834,0.027154463449970162,0.02007376929597759,0.025457451232289572,-0.0017996157676681101
