freq,gls,usurper,pdc_unbiased,shape_periodogram,shift_periodogram
1.5,0.031605246424144244,0.03818837501406278,0.022003088454338578,0.052321474599142936,-0.021342545838232682
1.5000715171549266,0.028595336453250155,0.03151391059806144,0.01679692217781675,0.04651534162482339,-0.020931337749519063
1.5001430343098532,0.024797888546036324,0.025639453910287123,0.011419584810450916,0.04141766832939802,-0.021141981973882826
1.5002145514647798,0.020789812632417533,0.023293715335892376,0.008796510756732951,0.03600890977445516,-0.019180562438958812
1.5002860686197064,0.017345459787468324,0.02516931512956516,0.009479677332466734,0.03217613529186667,-0.015989510620109736
1.500357585774633,0.015271945925960987,0.028970178573846886,0.011714688134418397,0.02954275901109603,-0.012545658396139515
1.5004291029295596,0.015165201318802408,0.03379738360158582,0.01415548030345099,0.030722356388449196,-0.01164797823742541
1.5005006200844861,0.01716595655706576,0.03765208986202136,0.016954003693511403,0.02937645781751857,-0.008713162187885516
1.5005721372394127,0.02086274426290797,0.03943032443365099,0.019187221778694714,0.024712509012112433,-0.0038368826877897434
1.5006436543943393,0.02544081002802935,0.040872637114016494,0.02137618975240262,0.020310868722028527,0.000822177681450068
1.500715171549266,0.03000884122307953,0.04313927907190939,0.02421994995090846,0.017792579400644725,0.004616305922131967
1.5007866887041925,0.03391266896856934,0.047083848261264556,0.02666061786266369,0.021671703286850096,0.00361088346446487
1.500858205859119,0.0368882624749449,0.05279801025719743,0.029368029530911475,0.031205735425312162,-0.0011962365517937295
1.5009297230140457,0.0390355018056212,0.0601918241691712,0.03287087235373193,0.04705843635875031,-0.00990487855062813
1.5010012401689723,0.04067274274449097,0.06490579605796029,0.0349635290275476,0.06445475939674741,-0.020721267479517823
1.5010727573238989,0.04213722341942038,0.06771962357739773,0.036798409825528795,0.07914551225417553,-0.02982501646083568
1.5011442744788255,0.043587855733941964,0.06948741335838447,0.03793328428010061,0.09031363301631744,-0.03694414615303781
1.501215791633752,0.044880915226329254,0.06975096989347078,0.03824814004694497,0.0956703062965941,-0.04052675845510881
1.5012873087886787,0.045592465454410994,0.07037143639360029,0.03896037083855539,0.09633176134210175,-0.04049008100878697
1.5013588259436053,0.04519857422015515,0.06959036234323586,0.038338310339186395,0.09611864620297812,-0.040781339368425346
1.5014303430985318,0.04331902735671992,0.06615527964248445,0.03525172960142179,0.09494376296042839,-0.04214227747105584
1.5015018602534584,0.03989064242203222,0.058752959668551846,0.029380562295107576,0.09146354901667407,-0.04384279437224589
1.501573377408385,0.035207008956161204,0.04990023504837929,0.02275340008029923,0.0865577946711926,-0.045064608644081454
1.5016448945633116,0.029854908046904056,0.04150538607874094,0.01716592382272006,0.07968208306768478,-0.04414953140406363
1.5017164117182382,0.02460404968418353,0.03423874352388407,0.01272729457488559,0.07192077025622139,-0.04179455335072164
1.5017879288731648,0.020274028275387688,0.02955613867026597,0.010756457121333964,0.06381748340727464,-0.03745265131803836
1.5018594460280914,0.01756978332877583,0.026931269860794388,0.009814843547662735,0.05724354043759189,-0.0334679207681475
1.501930963183018,0.016887968997375314,0.02489719672628826,0.009773529530205848,0.04694207686206968,-0.026212856765950525
1.5020024803379446,0.018154766828972088,0.021522382536542664,0.009545857603491862,0.03385935565983796,-0.017131257298697244
1.5020739974928712,0.020807783027131654,0.019383423318500365,0.00997328939183271,0.02117763554491417,-0.007875060028133898
1.5021455146477978,0.023992628107040868,0.020004155723687845,0.01144212206274167,0.013326368980600356,-0.00129317357848188
1.5022170318027244,0.026898257150269028,0.024321889729847307,0.014028974316248104,0.014499684211664613,-0.0002872374657207956
1.502288548957651,0.029041972437567,0.030433902503591626,0.016679671046279716,0.02300510871067725,-0.004410110434684046
1.5023600661125776,0.03036170293294545,0.03843980981118994,0.019990738498687276,0.038862488008044975,-0.013258206634427432
1.5024315832675041,0.031115659296329378,0.04284021613282643,0.02077896981185265,0.057662272321677394,-0.0259888813775636
1.5025031004224307,0.031680428730509906,0.04335209925151712,0.019519808615351825,0.07291562135932703,-0.03768271996789404
1.5025746175773573,0.032340192227813126,0.04174595196138549,0.018649627815208736,0.0815070994696621,-0.04439180558799523
1.502646134732284,0.033131945974426154,0.039201775608107545,0.017871043624403338,0.0812743549016489,-0.044778913447813755
1.5027176518872105,0.033797027787609374,0.03745983811569325,0.01799769758677829,0.07582078615737753,-0.040821628113372165
1.502789169042137,0.033871437590867574,0.03487496216298385,0.017486670760106647,0.0693678577058385,-0.03661129071594616
1.5028606861970637,0.03289397904446062,0.030849176921974537,0.015274482970942199,0.06318126759938426,-0.03379930517689751
1.5029322033519903,0.030638444170610023,0.026879675331959754,0.012011118949132128,0.05871292703438199,-0.03295073790743809
1.5030037205069169,0.02725242384486997,0.024846562574780826,0.009441040885373031,0.055875097943549286,-0.032764831959080434
1.5030752376618435,0.023245599290448483,0.026374586217746878,0.008606550278537486,0.05537351130935302,-0.03300145694066681
1.50314675481677,0.019358366958489085,0.029810854573081722,0.008953985446160287,0.055522753652216504,-0.03286079332389883
1.5032182719716967,0.01638051368297583,0.03425471943737058,0.010426555451109277,0.05640869912262209,-0.03244378463419567
1.5032897891266233,0.01497089818834955,0.03840277525381273,0.012350463029946239,0.056370620933952134,-0.031053057956844116
1.5033613062815498,0.015499460648454992,0.04064306195893751,0.013981854206916533,0.05181719830551465,-0.02667595281951
1.5034328234364764,0.01793079665045714,0.038753979925448254,0.01416864675154985,0.04149242129491005,-0.019245657135475082
1.503504340591403,0.021792554285279486,0.03475533493721079,0.013806564009865633,0.02661519951347193,-0.008995669263774065
1.5035758577463296,0.026283745634476982,0.034258407726096056,0.015751292513310384,0.014396173945707583,0.0010068894687414172
1.5036473749012562,0.03053094650102892,0.037884370451206094,0.019003856556851165,0.011210504740725451,0.005560708586597209
1.5037188920561828,0.03389868374654469,0.04514189267847286,0.02304438568669538,0.018049021927637493,0.003601471206922022
1.5037904092111094,0.03619247413189749,0.05656720173795945,0.02836367437687625,0.036774843227366516,-0.005841380772457847
1.503861926366036,0.03764566473947448,0.0671880259440111,0.03246316988130233,0.06138735903712879,-0.020327549365003326
1.5039334435209626,0.038716510453014726,0.0746632187624518,0.03408384953452373,0.08575140165341778,-0.036442868406668764
1.5040049606758892,0.0398171228344044,0.0794729256067774,0.03557140334761458,0.10434354843255596,-0.048602273123851264
1.5040764778308158,0.041095739566223526,0.08431747639967921,0.037525773851031737,0.11482068080286141,-0.054678660813276145
1.5041479949857424,0.04234364882306056,0.0871792915755102,0.038887791087543686,0.11604671358550941,-0.05458392184365375
1.504219512140669,0.043051695709888996,0.08702439254440336,0.03921573232033744,0.11115028913171462,-0.050858171818692274
1.5042910292955955,0.04260283060723393,0.0810812388350753,0.036347749549566495,0.10335396974474802,-0.04734541330117388
1.5043625464505221,0.04053910287302065,0.06945472843351985,0.030363706364527798,0.09308124162209651,-0.04429370741567183
1.5044340636054487,0.03679439695722014,0.05553165748899433,0.02344001313236871,0.08196053558482852,-0.0413144227845421
1.5045055807603753,0.03178229372791513,0.043679818835296404,0.01698689592080203,0.07352360803560164,-0.03991026338950845
1.504577097915302,0.026296542555493532,0.03561378585819547,0.012446934359831944,0.06662854224458255,-0.03824467673770236
1.5046486150702285,0.021278189004975218,0.033120347657550765,0.011187449324425095,0.06346531314664643,-0.03689788426696159
1.504720132225155,0.017555651134353225,0.032878845232966074,0.011283372248322305,0.061957351931737854,-0.03576253464001134
1.5047916493800817,0.01564621916050789,0.03208119635498639,0.010644076718018416,0.05968886405648755,-0.034610296173554614
1.5048631665350083,0.015656872938766518,0.02883218274454858,0.009217644422453899,0.05187002053889946,-0.030090706205127347
1.5049346836899349,0.017286051262519187,0.024629295544209773,0.008230188330603324,0.03866639072626974,-0.021459096917351324
1.5050062008448615,0.019918755698584013,0.02167635222683472,0.007905738300784866,0.02517425166542647,-0.012161653262543102
1.505077717999788,0.022804926807040774,0.021232099997673712,0.009361654152707073,0.013718738028348065,-0.0030447702230813746
1.5051492351547147,0.025289013466251117,0.024969898174326984,0.011726326065843064,0.012079607485195331,-0.00021198798419634813
1.5052207523096413,0.027015644551186973,0.03097696490720765,0.014241445734319206,0.020924896313785055,-0.004670804289060149
1.5052922694645678,0.028012475009877,0.036107411425857064,0.015961322224474977,0.03525668172635569,-0.013569421637130602
1.5053637866194944,0.028596359216805502,0.03665770162439972,0.014919408532213189,0.051824163818045714,-0.02601605174561537
1.505435303774421,0.02915112616185344,0.03363597700227348,0.013309044659559194,0.06581409297309498,-0.0370568272306788
1.5055068209293476,0.029900153036102176,0.031134845308287605,0.012321918805932341,0.07391920506934145,-0.04349800077874809
1.5055783380842742,0.030782681811496897,0.03055278184183605,0.01250866989698158,0.07465950338755382,-0.04389030810964516
1.5056498552392008,0.03146961942071043,0.0316277356749814,0.013496870470295333,0.07143216966788406,-0.04090284920838641
1.5057213723941274,0.03149161794629547,0.03146006554761001,0.013134126432083434,0.06726719631552808,-0.038209797887114545
1.505792889549054,0.030427310908792447,0.029815133700530076,0.011855838401314541,0.061353918801560346,-0.03492967468845763
1.5058644067039806,0.02809465201809536,0.0264756235861788,0.009674998552531539,0.053480279641586616,-0.030905237828693546
1.5059359238589072,0.024683284499830333,0.021969586360761455,0.006168765257997816,0.046928999488559386,-0.028758369617021527
1.5060074410138338,0.020766913938386953,0.019086200349334052,0.003987129865862614,0.041655281535016735,-0.026577558860164427
1.5060789581687604,0.017165658691511196,0.019995503384936737,0.004506773893992003,0.038641156262176825,-0.02408002765825578
1.506150475323687,0.014695536880755058,0.022694432999444927,0.005603202541494299,0.037722271247421675,-0.02265398901169052
1.5062219924786135,0.013907828977730352,0.025033824234111476,0.006474304461408025,0.036458121613496895,-0.021143742771104444
1.5062935096335401,0.014929925183180436,0.02468744688345009,0.007024475314287043,0.030896980851557326,-0.01682654034545881
1.5063650267884667,0.01746107614733839,0.02146059211510902,0.006681651925523114,0.020073073862898985,-0.009428638184159486
1.5064365439433933,0.020900617081537138,0.02049204441362624,0.008103902228742074,0.008797399407961565,-0.00046374925503373757
1.50650806109832,0.024545654709518663,0.02244076264798848,0.01119024144466396,0.00044410678085418203,0.007617133510339336
1.5065795782532465,0.027795889555703463,0.02873019814832113,0.015188716512202768,0.001543005975469175,0.009675941121968144
1.506651095408173,0.030315638754338018,0.03864744198379093,0.02020329875354711,0.010356219360313642,0.007013880522399844
1.5067226125630997,0.03210575674634778,0.05015048710222532,0.02516307524326057,0.026542959763072683,-0.0008894532687683848
1.5067941297180263,0.03344435853615213,0.05883231798051141,0.02809340030703321,0.04571828143569925,-0.012351218298484104
1.5068656468729529,0.03469846610783441,0.0624312707838544,0.028836225363534616,0.06197366240454195,-0.023319497922277072
1.5069371640278795,0.03608805388876267,0.06354445673552676,0.029158238083419115,0.07213195948866519,-0.030284624529850073
1.507008681182806,0.03753193323000867,0.0639537805708712,0.029645090979329304,0.07536620748043577,-0.03223098240175214
1.5070801983377327,0.038657419159163646,0.06309129533451258,0.03000532215028713,0.0704298985398154,-0.028476824297487616
1.5071517154926592,0.038950459296790155,0.06064608407206881,0.029635790998015537,0.06353086404027243,-0.023853727664920738
1.5072232326475858,0.03795818995272562,0.05421345650324848,0.026170643808596194,0.05573764477286227,-0.02080025205555804
1.5072947498025124,0.035465807062779846,0.04631335235862208,0.02167628316777021,0.046262394404030564,-0.01729094007064788
1.507366266957439,0.03160750390290827,0.0397949080383589,0.01779655130545853,0.03815765226711251,-0.014316815216124533
1.5074377841123656,0.02689036393457737,0.034370915278242146,0.014369878001425985,0.032395316537685175,-0.012677261585646983
1.5075093012672922,0.022110982309926926,0.030289993669552547,0.012274203971852665,0.029579172288930977,-0.012174687723039012
1.5075808184222188,0.018158898886019043,0.028284162462441503,0.010838451012952628,0.03007003135534002,-0.01353914475331759
1.5076523355771454,0.015750547010193554,0.02744418622995104,0.009985828883372298,0.031396900780267266,-0.015080468763685097
1.507723852732072,0.015198153002695225,0.024493626138369296,0.008495434228764531,0.029245453423150863,-0.014617841969191839
1.5077953698869986,0.01632710132796861,0.018995853178846802,0.006411917338543193,0.020961534568491882,-0.010246880585678995
1.5078668870419252,0.01858159605132472,0.013892166941012703,0.00521914285473996,0.010517916323311352,-0.0037222861745279173
1.5079384041968518,0.02125563485920751,0.010244756427852175,0.005152249488431391,0.000952458978377412,0.00297928529359181
1.5080099213517784,0.023737553869918368,0.009265419823001834,0.0057615299185219465,-0.002712492693503186,0.005996778796159172
1.508081438506705,0.025680396681245936,0.011445673887295931,0.007453924502377228,0.00022590676966944707,0.005123068632976475
1.5081529556616315,0.027059576075294776,0.014800010148018983,0.008842952470356694,0.009543855858367957,-0.00046660783338983627
1.5082244728165581,0.028112039179855254,0.016254564644639615,0.008942296206187028,0.021082557560162155,-0.008538775769459448
1.5082959899714847,0.029172386947160022,0.016155773268760273,0.008780907310022895,0.032006520424630376,-0.01636505804776188
1.5083675071264113,0.03045818310099522,0.01749696211176976,0.010026451111954632,0.040680097080713004,-0.021608464924326495
1.508439024281338,0.03190386747651281,0.021997575537960057,0.012747040105629182,0.04628919028615449,-0.02364342070093802
1.5085105414362645,0.03314377564440417,0.027531518368899895,0.01600259242207933,0.04783060308039945,-0.022424409156313642
1.508582058591191,0.03366149064758627,0.03167295982200892,0.0186299276568245,0.04743576371131814,-0.02028171184760168
1.5086535757461177,0.03301661123576188,0.030985177855606935,0.017302793300784304,0.04603177574558725,-0.02023074387138165
1.5087250929010443,0.031031763736761156,0.026389010063925106,0.013978643770450466,0.041480944240846924,-0.01937227813351041
1.5087966100559709,0.02787943173947238,0.020356561669676174,0.009773118861112214,0.03428111940760286,-0.017268018594638473
1.5088681272108975,0.024071143965329337,0.014805354801622225,0.005405399448016361,0.027922320361919196,-0.015873794748078658
1.508939644365824,0.020368522042175177,0.010639425311371858,0.002619426200917792,0.02316538999171227,-0.014490155134436761
1.5090111615207507,0.017622660517009992,0.00872634755612917,0.001280243020763253,0.020492141898852904,-0.013552351229867851
1.5090826786756772,0.016549556574789192,0.008424352468779385,0.001094148915450876,0.019536050831817878,-0.013009451265506376
1.5091541958306038,0.01749078347259404,0.008297752246259909,0.001728275756159572,0.016450355477092754,-0.010382445626933579
1.5092257129855304,0.02026609634215111,0.007760440181637735,0.002622344403247119,0.010357614764806752,-0.005449536364199198
1.509297230140457,0.024225306810832306,0.009276525849053682,0.005090188490138515,0.002621459424989613,0.0017577717945854614
1.5093687472953836,0.028505184243561566,0.015713885024400843,0.010396256019729185,-0.0020947444732184886,0.00884551528748212
1.5094402644503102,0.032363241212534366,0.026150781256277025,0.017181792517199104,-0.0007320804620472673,0.012693516913966457
1.5095117816052368,0.035420479974014,0.03906138398353851,0.023785576506019895,0.007746812766203911,0.011394820437245204
1.5095832987601634,0.03772295943106026,0.0501252384040347,0.028541189697550762,0.02046952216146906,0.005793592630050811
1.50965481591509,0.039632532833370364,0.055359097341577054,0.030196375009199177,0.03353172559244241,-0.0022501872517380096
1.5097263330700166,0.041605230836871475,0.05280736275117962,0.028415936049993602,0.042837901282279045,-0.010086923244196671
1.5097978502249432,0.04392716574129624,0.04643055511942731,0.026087173799228647,0.044527024807773326,-0.012933833470650923
1.5098693673798698,0.04649881119729661,0.04189032053217732,0.025125670272120693,0.040244214187808755,-0.0105904390889216
1.5099408845347964,0.048782229516577,0.04084363132276932,0.025898717163670308,0.03371945628898603,-0.005433615827252699
1.510012401689723,0.04998265464348263,0.04235513290403536,0.027970420605425636,0.02742760829487494,0.0004784774513293631
1.5100839188446495,0.04939582665258717,0.04212242072915165,0.02744804663090382,0.022978620048657993,0.0032474582385739817
1.5101554359995761,0.046726633743720845,0.039606010081747016,0.024915387052692306,0.019749856821368754,0.0037286708526528575
1.5102269531545027,0.04221494386441091,0.03686626548218139,0.022036546886626967,0.01636367900045709,0.004075725987412537
1.5102984703094293,0.0365554045951188,0.03582037192845756,0.019143160662124768,0.0169108832420088,0.0016376080050339308
1.510369987464356,0.030705701566729478,0.036597819955133504,0.01712115674686206,0.019609836920895504,-0.001700809589918446
1.5104415046192825,0.025671938650474672,0.03883926213670545,0.016152578444133103,0.024566339364019273,-0.005885856831253742
1.510513021774209,0.02230380117340663,0.041520604366242816,0.01595046449902194,0.02963651714236544,-0.009608459181889545
1.5105845389291357,0.02110478427342222,0.04017388793201498,0.014310671393420193,0.029862589186422702,-0.010930879298963159
1.5106560560840623,0.022087028251984653,0.03404422219112819,0.011927341615445858,0.02371217426283709,-0.008278771376405265
1.5107275732389889,0.02474352062355467,0.023701847333195396,0.008315005741078718,0.012643357416683439,-0.003027817864804452
1.5107990903939155,0.028206425428266402,0.015296194868525338,0.006455089330600415,0.0023092922217210327,0.0029453232368870947
1.510870607548842,0.03156791810921427,0.011033401993901727,0.006924877381908108,-0.002822319178530249,0.006898694563738593
1.5109421247037687,0.034217944840168574,0.011480298204348809,0.0085255112555674,0.0010604617628855078,0.005293727379260463
1.5110136418586952,0.036025983655989566,0.01661572615294276,0.01161661354179527,0.013061569627192437,-0.0009826351080261533
1.5110851590136218,0.03729532439305516,0.021076073959718524,0.013294021431409462,0.029104046374362487,-0.011116173020954218
1.5111566761685484,0.03854470610167679,0.022676220332547008,0.013163190298163863,0.04565993956994214,-0.02290361615356446
1.511228193323475,0.04022460916569971,0.023191172251326404,0.013651672900344249,0.05635092580115493,-0.030116590364496747
1.5112997104784016,0.04246467581659284,0.0244091035423901,0.01442102957265151,0.059997860947705636,-0.03215137768247994
1.5113712276333282,0.04493429586497486,0.028259509913484436,0.016921655013448497,0.05805221242041647,-0.029001277853269825
1.5114427447882548,0.04689231770787431,0.03202966092311971,0.019784155718843215,0.05180992239172269,-0.022555331945299472
1.5115142619431814,0.047454803887083834,0.03283178088810778,0.02007376929597759,0.045224586594486756,-0.017694528497747154
1.511585779098108,0.04599085839647899,0.028945250154054247,0.017243949592298295,0.03936096315280512,-0.01555880676553149
