freq,gls,usurper,pdc_unbiased,shape_periodogram,shift_periodogram
1.5,0.031605246424144244,0.034245296909492184,0.022003088454338578,0.04646507670875866,-0.022561752328346733
1.5000715171549266,0.028595336453250155,0.027452178130507623,0.01679692217781675,0.039859661840874756,-0.020649769281930963
1.5001430343098532,0.024797888546036324,0.02152644016548562,0.011419584810450916,0.034395505251406305,-0.019737609081620495
1.5002145514647798,0.020789812632417533,0.019293474988341407,0.008796510756732951,0.02910875452341715,-0.017244143740136133
1.5002860686197064,0.017345459787468324,0.021384358356435193,0.009479677332466734,0.025860118226411124,-0.014278860309696986
1.500357585774633,0.015271945925960987,0.025358400549637,0.011714688134418397,0.02415448425975784,-0.011549953119244685
1.5004291029295596,0.015165201318802408,0.03028507949490062,0.01415548030345099,0.027038197913864845,-0.012278269918080814
1.5005006200844861,0.01716595655706576,0.034644261728719615,0.016954003693511403,0.027529254226786464,-0.01091324401366732
1.5005721372394127,0.02086274426290797,0.03768906287578022,0.019187221778694714,0.025901050552124407,-0.008245199848568722
1.5006436543943393,0.02544081002802935,0.040477011552801624,0.02137618975240262,0.024638404361711035,-0.0058903267644633975
1.500715171549266,0.03000884122307953,0.0438628649395074,0.02421994995090846,0.02464358513593213,-0.004116442393585236
1.5007866887041925,0.03391266896856934,0.04825944754771848,0.02666061786266369,0.03001423178065099,-0.006786716010677177
1.500858205859119,0.0368882624749449,0.05366917976808167,0.029368029530911475,0.03967026685670112,-0.012641057620437504
1.5009297230140457,0.0390355018056212,0.060108779854722794,0.03287087235373193,0.054059904307339215,-0.02170594167042565
1.5010012401689723,0.04067274274449097,0.0636180066210142,0.0349635290275476,0.06900603091563509,-0.03210277850164492
1.5010727573238989,0.04213722341942038,0.06539340413147961,0.036798409825528795,0.08091058646201088,-0.04029131016946495
1.5011442744788255,0.043587855733941964,0.06660543364486336,0.03793328428010061,0.09109021903617037,-0.047575784812605104
1.501215791633752,0.044880915226329254,0.0668881866070307,0.03824814004694497,0.09752553592889769,-0.052438585609823646
1.5012873087886787,0.045592465454410994,0.06801217582976414,0.03896037083855539,0.10094428296820514,-0.054682475200624
1.5013588259436053,0.04519857422015515,0.06745309642512112,0.038338310339186395,0.10219898522288318,-0.0560596599728372
1.5014303430985318,0.04331902735671992,0.06383674064299798,0.03525172960142179,0.10092675209791004,-0.05699071995127995
1.5015018602534584,0.03989064242203222,0.0560421764857966,0.029380562295107576,0.09628063742219115,-0.057008503183945826
1.501573377408385,0.035207008956161204,0.04686146525207137,0.02275340008029923,0.09024678711086408,-0.056407577222268517
1.5016448945633116,0.029854908046904056,0.03834836009794109,0.01716592382272006,0.08231407820476412,-0.05366836269170618
1.5017164117182382,0.02460404968418353,0.03106139775214507,0.01272729457488559,0.07374772485650798,-0.04972031681898445
1.5017879288731648,0.020274028275387688,0.02644803194744306,0.010756457121333964,0.06521164500736505,-0.0442618124712418
1.5018594460280914,0.01756978332877583,0.02388894089154875,0.009814843547662735,0.0589346030316517,-0.03993442181985859
1.501930963183018,0.016887968997375314,0.022290669216770538,0.009773529530205848,0.04932235257237045,-0.03243804640845184
1.5020024803379446,0.018154766828972088,0.020046723187988346,0.009545857603491862,0.03784875709777064,-0.023607479069913777
1.5020739974928712,0.020807783027131654,0.019126780501820758,0.00997328939183271,0.02685664144242475,-0.014749196009661835
1.5021455146477978,0.023992628107040868,0.020585221495144777,0.01144212206274167,0.020430813065876022,-0.00881098762894175
1.5022170318027244,0.026898257150269028,0.02483253379345426,0.014028974316248104,0.021325006455718963,-0.007893375691414012
1.502288548957651,0.029041972437567,0.030059551351179135,0.016679671046279716,0.02777433092623659,-0.011276199420135143
1.5023600661125776,0.03036170293294545,0.03631297316244337,0.019990738498687276,0.03933951597208873,-0.018246906843368986
1.5024315832675041,0.031115659296329378,0.038723047777993055,0.02077896981185265,0.053116144707656424,-0.028531223871874935
1.5025031004224307,0.031680428730509906,0.0375249433727828,0.019519808615351825,0.06334341697871246,-0.037325760641800744
1.5025746175773573,0.032340192227813126,0.03500494460332326,0.018649627815208736,0.06871539050610108,-0.0420782222761819
1.502646134732284,0.033131945974426154,0.03264569689828803,0.017871043624403338,0.06840374757402591,-0.04232036116509202
1.5027176518872105,0.033797027787609374,0.031888397117682016,0.01799769758677829,0.0655862564996838,-0.04003368511392027
1.502789169042137,0.033871437590867574,0.030299903631739695,0.017486670760106647,0.06166933631186013,-0.03728487202508024
1.5028606861970637,0.03289397904446062,0.026813487896123485,0.015274482970942199,0.05648113281931644,-0.034604610030497585
1.5029322033519903,0.030638444170610023,0.022894390036282092,0.012011118949132128,0.05214628676010621,-0.033250203568858806
1.5030037205069169,0.02725242384486997,0.020653138393965764,0.009441040885373031,0.04893877447897697,-0.03234558509999021
1.5030752376618435,0.023245599290448483,0.021797951786465767,0.008606550278537486,0.04800634949628807,-0.03213724154265313
1.50314675481677,0.019358366958489085,0.024853297012432524,0.008953985446160287,0.04820039629685808,-0.03207209856026678
1.5032182719716967,0.01638051368297583,0.028896815296275934,0.010426555451109277,0.049067539968495305,-0.031830933408292794
1.5032897891266233,0.01497089818834955,0.03278618022933179,0.012350463029946239,0.04969751632385691,-0.031122292372126853
1.5033613062815498,0.015499460648454992,0.03539190577725181,0.013981854206916533,0.0469491005667899,-0.027953187587911987
1.5034328234364764,0.01793079665045714,0.034764162643917323,0.01416864675154985,0.039414697145392974,-0.021944102473395656
1.503504340591403,0.021792554285279486,0.03267002407153489,0.013806564009865633,0.02813335211725688,-0.013352079460118104
1.5035758577463296,0.026283745634476982,0.03390639703234433,0.015751292513310384,0.019604801737539,-0.0054733104314659674
1.5036473749012562,0.03053094650102892,0.03845903759352717,0.019003856556851165,0.018911968997170875,-0.0028994410346102513
1.5037188920561828,0.03389868374654469,0.04575943889779693,0.02304438568669538,0.02698051367478472,-0.006677428650969884
1.5037904092111094,0.03619247413189749,0.05584742001241127,0.02836367437687625,0.04388820350070058,-0.01656800589250199
1.503861926366036,0.03764566473947448,0.064596521985829,0.03246316988130233,0.06528312260350369,-0.0307505841409048
1.5039334435209626,0.038716510453014726,0.07001687309722672,0.03408384953452373,0.08565237550361633,-0.04571402056018838
1.5040049606758892,0.0398171228344044,0.07345521512248365,0.03557140334761458,0.10163314890523126,-0.05734658124528134
1.5040764778308158,0.041095739566223526,0.07775388502987886,0.037525773851031737,0.111960307006764,-0.06425774276544648
1.5041479949857424,0.04234364882306056,0.08104223155962224,0.038887791087543686,0.11580151401460938,-0.06643422166615354
1.504219512140669,0.043051695709888996,0.08191676469572921,0.03921573232033744,0.11451228357812449,-0.06521201071322683
1.5042910292955955,0.04260283060723393,0.07690337148454142,0.036347749549566495,0.10900133132867562,-0.06266301690612809
1.5043625464505221,0.04053910287302065,0.06595151352356951,0.030363706364527798,0.09950408623826616,-0.058929082436539194
1.5044340636054487,0.03679439695722014,0.05248239531765795,0.02344001313236871,0.08783349123587539,-0.05408313338591018
1.5045055807603753,0.03178229372791513,0.040772549730110845,0.01698689592080203,0.07854769565280757,-0.05082526758914848
1.504577097915302,0.026296542555493532,0.03261284456476212,0.012446934359831944,0.07053959019943849,-0.04738085242817984
1.5046486150702285,0.021278189004975218,0.02962873423077486,0.011187449324425095,0.06576526448587297,-0.0444264359195793
1.504720132225155,0.017555651134353225,0.028676813854905368,0.011283372248322305,0.06260481895503928,-0.04189133294854741
1.5047916493800817,0.01564621916050789,0.027249665912646163,0.010644076718018416,0.05916071481561054,-0.03959377807425606
1.5048631665350083,0.015656872938766518,0.024183389850831304,0.009217644422453899,0.05116584766671085,-0.03422738308581161
1.5049346836899349,0.017286051262519187,0.02118430002602334,0.008230188330603324,0.0392368270665393,-0.02551434600729962
1.5050062008448615,0.019918755698584013,0.019520992203486354,0.007905738300784866,0.027502240293569045,-0.016545122544842396
1.505077717999788,0.022804926807040774,0.020262557560053896,0.009361654152707073,0.01759976670079138,-0.0078990341503929
1.5051492351547147,0.025289013466251117,0.024302659501576552,0.011726326065843064,0.016438523178525823,-0.005514700631157071
1.5052207523096413,0.027015644551186973,0.0294359834769688,0.014241445734319206,0.023368821819682615,-0.00935742106976172
1.5052922694645678,0.028012475009877,0.0329972861201008,0.015961322224474977,0.03376481127183722,-0.016407009162892408
1.5053637866194944,0.028596359216805502,0.03166159300174877,0.014919408532213189,0.0449994650940032,-0.025842463490354975
1.505435303774421,0.02915112616185344,0.027325778457643272,0.013309044659559194,0.0542242226962847,-0.03406571926750685
1.5055068209293476,0.029900153036102176,0.024135433804642854,0.012321918805932341,0.05978778967455667,-0.03903718400527471
1.5055783380842742,0.030782681811496897,0.02376574135568949,0.01250866989698158,0.06113831394044534,-0.039978012630558224
1.5056498552392008,0.03146961942071043,0.025661924269253025,0.013496870470295333,0.06056758256733585,-0.03891408061615565
1.5057213723941274,0.03149161794629547,0.026278380606755285,0.013134126432083434,0.05863534875506162,-0.037627769289934714
1.505792889549054,0.030427310908792447,0.025200478580781838,0.011855838401314541,0.053864353867114696,-0.03469161923879547
1.5058644067039806,0.02809465201809536,0.022459500446634806,0.009674998552531539,0.046945395907310145,-0.030640210817241983
1.5059359238589072,0.024683284499830333,0.018377988527745137,0.006168765257997816,0.04110697472261122,-0.02826372425179619
1.5060074410138338,0.020766913938386953,0.01581876863225449,0.003987129865862614,0.036421774025325676,-0.025963125104663923
1.5060789581687604,0.017165658691511196,0.016809934456363116,0.004506773893992003,0.033905614381188276,-0.023671993135933374
1.506150475323687,0.014695536880755058,0.019185133866085724,0.005603202541494299,0.03330338275252431,-0.022516662322276712
1.5062219924786135,0.013907828977730352,0.021114321055138212,0.006474304461408025,0.032558851843987116,-0.021390783036314184
1.5062935096335401,0.014929925183180436,0.020963181428264095,0.007024475314287043,0.028009277831851156,-0.01749174337699987
1.5063650267884667,0.01746107614733839,0.018789819619823955,0.006681651925523114,0.01931808689593782,-0.01091538519845937
1.5064365439433933,0.020900617081537138,0.019084063693847443,0.008103902228742074,0.0110249994524771,-0.003549080509191808
1.50650806109832,0.024545654709518663,0.02219943048198482,0.01119024144466396,0.005414900472042634,0.002760388566843956
1.5065795782532465,0.027795889555703463,0.02894265295037557,0.015188716512202768,0.008117910437439533,0.003147345638089734
1.506651095408173,0.030315638754338018,0.038497869283587706,0.02020329875354711,0.01704529440185053,-0.0006916468594294359
1.5067226125630997,0.03210575674634778,0.04874760904938454,0.02516307524326057,0.031100632122541074,-0.008572342479213152
1.5067941297180263,0.03344435853615213,0.055671035175689304,0.02809340030703321,0.0467563002914548,-0.018980596686436944
1.5068656468729529,0.03469846610783441,0.05783914597891488,0.028836225363534616,0.05943367747165841,-0.028438375552930734
1.5069371640278795,0.03608805388876267,0.05810897794024753,0.029158238083419115,0.06765256670380787,-0.0346756720438196
1.507008681182806,0.03753193323000867,0.058517022195276935,0.029645090979329304,0.07194952881809293,-0.03773942264880468
1.5070801983377327,0.038657419159163646,0.05839938755011897,0.03000532215028713,0.06992672511470431,-0.03592817901898721
1.5071517154926592,0.038950459296790155,0.05686384519082226,0.029635790998015537,0.06576700242933885,-0.03289925332597146
1.5072232326475858,0.03795818995272562,0.05102664969182717,0.026170643808596194,0.05905710515314514,-0.029810975861794802
1.5072947498025124,0.035465807062779846,0.04359881932065193,0.02167628316777021,0.04998754670246813,-0.025521968998681335
1.507366266957439,0.03160750390290827,0.03743537762581273,0.01779655130545853,0.04197668911162881,-0.021680541515507194
1.5074377841123656,0.02689036393457737,0.03223765458808165,0.014369878001425985,0.0361127939497609,-0.01923686970574236
1.5075093012672922,0.022110982309926926,0.028050119894101798,0.012274203971852665,0.032534473627625696,-0.01774907314030423
1.5075808184222188,0.018158898886019043,0.025561110952904757,0.010838451012952628,0.03205203456930171,-0.018268913723677095
1.5076523355771454,0.015750547010193554,0.024026502901508647,0.009985828883372298,0.032140051344299335,-0.018870297111373755
1.507723852732072,0.015198153002695225,0.02069247139832798,0.008495434228764531,0.028873086426203048,-0.017248031310530144
1.5077953698869986,0.01632710132796861,0.0157124938944474,0.006411917338543193,0.020629437741292674,-0.012108305843246722
1.5078668870419252,0.01858159605132472,0.011592759562112784,0.00521914285473996,0.011315842314262275,-0.005578101505552049
1.5079384041968518,0.02125563485920751,0.00885368994073858,0.005152249488431391,0.002556009631094141,0.0012216834799131918
1.5080099213517784,0.023737553869918368,0.008264162866679792,0.0057615299185219465,-0.001175474146902792,0.004516411119635758
1.508081438506705,0.025680396681245936,0.010307992725749457,0.007453924502377228,0.0005959898146537225,0.004189988362502616
1.5081529556616315,0.027059576075294776,0.01284404770362281,0.008842952470356694,0.007180719433989724,-8.494303747744483e-05
1.5082244728165581,0.028112039179855254,0.013242432191632642,0.008942296206187028,0.015124901676294088,-0.006227761267418967
1.5082959899714847,0.029172386947160022,0.012263346635244367,0.008780907310022895,0.022331476761681863,-0.01195832608654788
1.5083675071264113,0.03045818310099522,0.013060350485663409,0.010026451111954632,0.028692427544155404,-0.016150536227257695
1.508439024281338,0.03190386747651281,0.017374356640588066,0.012747040105629182,0.03440606383473238,-0.018916591364084422
1.5085105414362645,0.03314377564440417,0.02317780445099962,0.01600259242207933,0.03782946497707386,-0.01955876739322589
1.508582058591191,0.03366149064758627,0.027897756879060945,0.0186299276568245,0.03976990755472273,-0.019434025088618415
1.5086535757461177,0.03301661123576188,0.027459493066598735,0.017302793300784304,0.03893287277311876,-0.019608970362107247
1.5087250929010443,0.031031763736761156,0.0231247912780404,0.013978643770450466,0.034515465510361054,-0.018232644998036004
1.5087966100559709,0.02787943173947238,0.01742511390823645,0.009773118861112214,0.02743198763610658,-0.015323819077634016
1.5088681272108975,0.024071143965329337,0.01213887456186088,0.005405399448016361,0.021436173235074192,-0.013367196181038687
1.508939644365824,0.020368522042175177,0.008171177050781613,0.002619426200917792,0.017060477383682604,-0.01168889710181781
1.5090111615207507,0.017622660517009992,0.006356729702726088,0.001280243020763253,0.015206544587592194,-0.011077096010002715
1.5090826786756772,0.016549556574789192,0.005868440340203557,0.001094148915450876,0.01493507187391969,-0.010981267010529051
1.5091541958306038,0.01749078347259404,0.005751847529998385,0.001728275756159572,0.012584916892322143,-0.008749582682180825
1.5092257129855304,0.02026609634215111,0.0058355054161567015,0.002622344403247119,0.007967148070957974,-0.004584521985470837
1.509297230140457,0.024225306810832306,0.008470484101438904,0.005090188490138515,0.002690807461452016,0.0010776469268595603
1.5093687472953836,0.028505184243561566,0.015798652339111197,0.010396256019729185,0.0005538621635205037,0.006060671828092809
1.5094402644503102,0.032363241212534366,0.026548508937780747,0.017181792517199104,0.0036800345748666118,0.007858246237380503
1.5095117816052368,0.035420479974014,0.03886248243271515,0.023785576506019895,0.012001734728149277,0.005486648927315513
1.5095832987601634,0.03772295943106026,0.04848500694902783,0.028541189697550762,0.02213631378102407,0.000544705171839495
1.50965481591509,0.039632532833370364,0.05210136750842078,0.030196375009199177,0.031536660955531905,-0.005764636716386912
1.5097263330700166,0.041605230836871475,0.048456493251970656,0.028415936049993602,0.03715746506506366,-0.011272102154336024
1.5097978502249432,0.04392716574129624,0.04187939243914028,0.026087173799228647,0.03659902995498544,-0.012292264601873918
1.5098693673798698,0.04649881119729661,0.03771877977378748,0.025125670272120693,0.032321682592430026,-0.009550069632777993
1.5099408845347964,0.048782229516577,0.037401412311373,0.025898717163670308,0.027858215629313218,-0.005578417255479327
1.510012401689723,0.04998265464348263,0.03971967686394381,0.027970420605425636,0.02425604106731271,-0.001468233872367299
1.5100839188446495,0.04939582665258717,0.039797927339603106,0.02744804663090382,0.021073400771433094,0.0006913167470589581
1.5101554359995761,0.046726633743720845,0.037169924875126076,0.024915387052692306,0.017785769787907375,0.0016756107786990676
1.5102269531545027,0.04221494386441091,0.034187114669493146,0.022036546886626967,0.01395989771364253,0.002864090449159784
1.5102984703094293,0.0365554045951188,0.03264179528495664,0.019143160662124768,0.01410976548892145,0.000938653735422821
1.510369987464356,0.030705701566729478,0.032838231265908326,0.01712115674686206,0.016317535938792274,-0.0020494094804135677
1.5104415046192825,0.025671938650474672,0.03440062870132054,0.016152578444133103,0.020715369443080174,-0.006090151215247732
1.510513021774209,0.02230380117340663,0.036362817805619695,0.01595046449902194,0.025495731155648252,-0.009951366040486567
1.5105845389291357,0.02110478427342222,0.03475078666098056,0.014310671393420193,0.025852682451166387,-0.011254932311056157
1.5106560560840623,0.022087028251984653,0.029113468483500347,0.011927341615445858,0.02017727162981289,-0.00830977715980412
1.5107275732389889,0.02474352062355467,0.020101099096507598,0.008315005741078718,0.010503901179939821,-0.0030102118559096514
1.5107990903939155,0.028206425428266402,0.01313854692956428,0.006455089330600415,0.0018628500853846936,0.002576753833609522
1.510870607548842,0.03156791810921427,0.009944250228365401,0.006924877381908108,-0.0021224202986740446,0.005982523968463653
1.5109421247037687,0.034217944840168574,0.010629004815006067,0.0085255112555674,0.0016228253160999963,0.004057378408070168
1.5110136418586952,0.036025983655989566,0.014923031513505672,0.01161661354179527,0.01115155633510764,-0.0014536252760570492
1.5110851590136218,0.03729532439305516,0.01790235406184905,0.013294021431409462,0.023053419766798318,-0.00970295611484224
1.5111566761685484,0.03854470610167679,0.018051952241221546,0.013163190298163863,0.03515034955142792,-0.019238407702601937
1.511228193323475,0.04022460916569971,0.017766604525656485,0.013651672900344249,0.042551041919739054,-0.024719577444297085
1.5112997104784016,0.04246467581659284,0.018869375938520845,0.01442102957265151,0.04538378859721715,-0.02645442998888461
1.5113712276333282,0.04493429586497486,0.02333178920219773,0.016921655013448497,0.04538902951125939,-0.024896120313536153
1.5114427447882548,0.04689231770787431,0.028253889771676692,0.019784155718843215,0.042658903094554265,-0.020971786671105243
1.5115142619431814,0.047454803887083834,0.029870848342634024,0.02007376929597759,0.038511158144674415,-0.01754731241407021
1.511585779098108,0.04599085839647899,0.026247307926879945,0.017243949592298295,0.033220962057937904,-0.015180357119499863
