freq,gls,usurper,pdc_unbiased,shape_periodogram,shift_periodogram
1.5,0.031605246424144244,0.0336405308833641,0.022003088454338578,0.05296804095709584,-0.027004953820953522
1.5000715171549266,0.028595336453250155,0.02701385565326553,0.01679692217781675,0.04540030126283112,-0.024450523845435005
1.5001430343098532,0.024797888546036324,0.021274565490660615,0.011419584810450916,0.0391842873180943,-0.02305248828618436
1.5002145514647798,0.020789812632417533,0.01928262541334949,0.008796510756732951,0.033584971295319725,-0.020384818386888194
1.5002860686197064,0.017345459787468324,0.021585825252389418,0.009479677332466734,0.030315618246614537,-0.017422404880299253
1.500357585774633,0.015271945925960987,0.02577108447712001,0.011714688134418397,0.028689102676175682,-0.014745996302868637
1.5004291029295596,0.015165201318802408,0.03074337115163334,0.01415548030345099,0.03148520383312337,-0.015359504463059684
1.5005006200844861,0.01716595655706576,0.03509752232709312,0.016954003693511403,0.032013634624498646,-0.013991680132998884
1.5005721372394127,0.02086274426290797,0.03793099783298129,0.019187221778694714,0.03014090760563331,-0.011125109023830777
1.5006436543943393,0.02544081002802935,0.04044615343291731,0.02137618975240262,0.028807514654563115,-0.008703673952526749
1.500715171549266,0.03000884122307953,0.04343955082073767,0.02421994995090846,0.028681816558800935,-0.0068001439386984035
1.5007866887041925,0.03391266896856934,0.04741502640079702,0.02666061786266369,0.03434081017650846,-0.009626701325230545
1.500858205859119,0.0368882624749449,0.052390028056805954,0.029368029530911475,0.04460773124649159,-0.015851089761593433
1.5009297230140457,0.0390355018056212,0.0583110755038452,0.03287087235373193,0.060042223753191,-0.02557922568490524
1.5010012401689723,0.04067274274449097,0.06124794650870637,0.0349635290275476,0.0757060202360712,-0.03639887720554178
1.5010727573238989,0.04213722341942038,0.06253278599052145,0.036798409825528795,0.08805764401887743,-0.04482824437419132
1.5011442744788255,0.043587855733941964,0.06328533552222969,0.03793328428010061,0.09811006787759441,-0.05192805133677273
1.501215791633752,0.044880915226329254,0.06320770486143941,0.03824814004694497,0.1036322723180831,-0.05602944653230984
1.5012873087886787,0.045592465454410994,0.06402630722760605,0.03896037083855539,0.10580100233997274,-0.05726663654114113
1.5013588259436053,0.04519857422015515,0.0632367309782641,0.038338310339186395,0.10562165148075398,-0.05752265892311508
1.5014303430985318,0.04331902735671992,0.05966952611779827,0.03525172960142179,0.10345710506198556,-0.05779897463696116
1.5015018602534584,0.03989064242203222,0.05206487533832763,0.029380562295107576,0.098024114347953,-0.05729887140525214
1.501573377408385,0.035207008956161204,0.04314101067196732,0.02275340008029923,0.09116657288199442,-0.056170928017495673
1.5016448945633116,0.029854908046904056,0.03490398257526407,0.01716592382272006,0.08261871656099873,-0.053072622367017076
1.5017164117182382,0.02460404968418353,0.027959236753830306,0.01272729457488559,0.07350688289957676,-0.048814110828623226
1.5017879288731648,0.020274028275387688,0.023727804212756252,0.010756457121333964,0.06465004589340856,-0.04319521442104228
1.5018594460280914,0.01756978332877583,0.02156976625274417,0.009814843547662735,0.058268319527651095,-0.03884669791623826
1.501930963183018,0.016887968997375314,0.02055475359291532,0.009773529530205848,0.04911637392982454,-0.031784656705633796
1.5020024803379446,0.018154766828972088,0.018741490692565185,0.009545857603491862,0.03814898895510726,-0.02344036097059764
1.5020739974928712,0.020807783027131654,0.01825025685563668,0.00997328939183271,0.028052012921136463,-0.015358419068055604
1.5021455146477978,0.023992628107040868,0.020059635746906047,0.01144212206274167,0.022735478097667444,-0.010314852569962809
1.5022170318027244,0.026898257150269028,0.024529038171543033,0.014028974316248104,0.02520310353512687,-0.010581100825969345
1.502288548957651,0.029041972437567,0.029796430049579454,0.016679671046279716,0.033401080377400326,-0.015239151543866415
1.5023600661125776,0.03036170293294545,0.03599449805096409,0.019990738498687276,0.04698731712613323,-0.023651331829903737
1.5024315832675041,0.031115659296329378,0.03815707849713613,0.02077896981185265,0.06221414251143724,-0.034947121625999764
1.5025031004224307,0.031680428730509906,0.03674482043422649,0.019519808615351825,0.073465073516107,-0.04447264024780165
1.5025746175773573,0.032340192227813126,0.03402097824015081,0.018649627815208736,0.07918846497546686,-0.04946752184869902
1.502646134732284,0.033131945974426154,0.03148933317646385,0.017871043624403338,0.0782721747659883,-0.04925007882339509
1.5027176518872105,0.033797027787609374,0.030565254898485272,0.01799769758677829,0.07426314439437555,-0.0460579008837672
1.502789169042137,0.033871437590867574,0.028796853701032653,0.017486670760106647,0.06891022134589736,-0.04222921213355021
1.5028606861970637,0.03289397904446062,0.0252902606101092,0.015274482970942199,0.0626751804230359,-0.038798423272305996
1.5029322033519903,0.030638444170610023,0.021471418742249088,0.012011118949132128,0.05749911454938427,-0.036857651257728816
1.5030037205069169,0.02725242384486997,0.019407772762073443,0.009441040885373031,0.053865724431826294,-0.035673376427771894
1.5030752376618435,0.023245599290448483,0.020747165438227168,0.008606550278537486,0.05283327152068473,-0.035403058635310285
1.50314675481677,0.019358366958489085,0.024025715790707263,0.008953985446160287,0.05284794723389995,-0.03519406040873829
1.5032182719716967,0.01638051368297583,0.028260861357618117,0.010426555451109277,0.05357874448433144,-0.034825984374302815
1.5032897891266233,0.01497089818834955,0.03231109036533828,0.012350463029946239,0.05381100823024006,-0.03378534633250869
1.5033613062815498,0.015499460648454992,0.03508554531476889,0.013981854206916533,0.050788313133383035,-0.030409149465802778
1.5034328234364764,0.01793079665045714,0.034468363872536795,0.01416864675154985,0.0427481302993781,-0.024065894053989977
1.503504340591403,0.021792554285279486,0.032404093186246805,0.013806564009865633,0.031233520011579512,-0.015386298278627544
1.5035758577463296,0.026283745634476982,0.03368728997828924,0.015751292513310384,0.022710066177874546,-0.007559960297905187
1.5036473749012562,0.03053094650102892,0.03816141486330904,0.019003856556851165,0.022453728957753372,-0.005296716044877305
1.5037188920561828,0.03389868374654469,0.04513435399589112,0.02304438568669538,0.031231384598350974,-0.009518870438270469
1.5037904092111094,0.03619247413189749,0.05474339289257946,0.02836367437687625,0.04931565363299815,-0.020134688234456615
1.503861926366036,0.03764566473947448,0.06278088645701936,0.03246316988130233,0.07152294634038434,-0.0347424321763121
1.5039334435209626,0.038716510453014726,0.06758928489928949,0.03408384953452373,0.09245764204198309,-0.049977360140640595
1.5040049606758892,0.0398171228344044,0.07046367828353306,0.03557140334761458,0.10856814641652554,-0.06157998350855042
1.5040764778308158,0.041095739566223526,0.07439538007662572,0.037525773851031737,0.11851508688170843,-0.06810082770837626
1.5041479949857424,0.04234364882306056,0.07755505305787849,0.038887791087543686,0.12161919293303088,-0.06966014659903857
1.504219512140669,0.043051695709888996,0.07842578662497685,0.03921573232033744,0.11948305269413104,-0.06778221702009991
1.5042910292955955,0.04260283060723393,0.07347576945769389,0.036347749549566495,0.11310004209823632,-0.0646218648412755
1.5043625464505221,0.04053910287302065,0.06264227926292931,0.030363706364527798,0.10264100133988616,-0.06026982581767107
1.5044340636054487,0.03679439695722014,0.049252044629010824,0.02344001313236871,0.08978116451735665,-0.05465787950396737
1.5045055807603753,0.03178229372791513,0.03762882105792792,0.01698689592080203,0.07939507490624165,-0.05068277785003374
1.504577097915302,0.026296542555493532,0.02972764056885012,0.012446934359831944,0.0707974143704438,-0.0468899974077643
1.5046486150702285,0.021278189004975218,0.027047967442312828,0.011187449324425095,0.06580700435413919,-0.043818812068758366
1.504720132225155,0.017555651134353225,0.026504309413631646,0.011283372248322305,0.06280705729029579,-0.041432490073997415
1.5047916493800817,0.01564621916050789,0.025577557275465478,0.010644076718018416,0.059820638163221536,-0.03952354436760249
1.5048631665350083,0.015656872938766518,0.02304490982198989,0.009217644422453899,0.05248633048030415,-0.03474677818270299
1.5049346836899349,0.017286051262519187,0.020495558099930887,0.008230188330603324,0.04144515799310363,-0.026825732771276836
1.5050062008448615,0.019918755698584013,0.019254788103753216,0.007905738300784866,0.030563836234291566,-0.01861312285409295
1.505077717999788,0.022804926807040774,0.020367953726270517,0.009361654152707073,0.021616906778551992,-0.010770283233286155
1.5051492351547147,0.025289013466251117,0.024657902077427823,0.011726326065843064,0.021746383364795695,-0.009369673660341481
1.5052207523096413,0.027015644551186973,0.029777054513523003,0.014241445734319206,0.02983213863894795,-0.014026291020012474
1.5052922694645678,0.028012475009877,0.03310633116429535,0.015961322224474977,0.04116102140013928,-0.021699598661001178
1.5053637866194944,0.028596359216805502,0.03134584364173525,0.014919408532213189,0.05273008259218188,-0.03131798971766242
1.505435303774421,0.02915112616185344,0.02638958716404512,0.013309044659559194,0.061426353154437,-0.03907746095399095
1.5055068209293476,0.029900153036102176,0.02279311955685187,0.012321918805932341,0.06619810258794522,-0.04340256250171974
1.5055783380842742,0.030782681811496897,0.02223193259608213,0.01250866989698158,0.0666693053472381,-0.04364946433378367
1.5056498552392008,0.03146961942071043,0.024076161141335706,0.013496870470295333,0.06540173835098234,-0.04203988158647745
1.5057213723941274,0.03149161794629547,0.0247437302690136,0.013134126432083434,0.063215223038296,-0.04057495438030735
1.505792889549054,0.030427310908792447,0.023883729994405457,0.011855838401314541,0.058698441788705896,-0.03788539123399965
1.5058644067039806,0.02809465201809536,0.021323333847740766,0.009674998552531539,0.05177589697340931,-0.03390650488585411
1.5059359238589072,0.024683284499830333,0.017320421989756172,0.006168765257997816,0.045648596865045084,-0.03138662707224742
1.5060074410138338,0.020766913938386953,0.01479459720778322,0.003987129865862614,0.040491534484531,-0.0287792414468512
1.5060789581687604,0.017165658691511196,0.015809048168097046,0.004506773893992003,0.037300102148484525,-0.025980381285021482
1.506150475323687,0.014695536880755058,0.018337446255392933,0.005603202541494299,0.036136702486785424,-0.024384819932703902
1.5062219924786135,0.013907828977730352,0.020481940666246524,0.006474304461408025,0.034847297712622384,-0.022834700397700018
1.5062935096335401,0.014929925183180436,0.020521633200910428,0.007024475314287043,0.029767281373393246,-0.01855618853542084
1.5063650267884667,0.01746107614733839,0.018540077459993146,0.006681651925523114,0.020824086371384196,-0.01185791535367312
1.5064365439433933,0.020900617081537138,0.01901323588165017,0.008103902228742074,0.012465844578873347,-0.004493629034026323
1.50650806109832,0.024545654709518663,0.022186821520168036,0.01119024144466396,0.007110244715763268,0.0016047570721483032
1.5065795782532465,0.027795889555703463,0.028824465470833626,0.015188716512202768,0.010629032638690033,0.0014226389402857548
1.506651095408173,0.030315638754338018,0.038151226699200264,0.02020329875354711,0.02054573860658378,-0.0030598663549212496
1.5067226125630997,0.03210575674634778,0.04809953219395174,0.02516307524326057,0.03589834109197739,-0.01178324316806774
1.5067941297180263,0.03344435853615213,0.05464855339702096,0.02809340030703321,0.052253071498723686,-0.022581488855975308
1.5068656468729529,0.03469846610783441,0.05636617596509032,0.028836225363534616,0.06489936330443086,-0.03191032386501136
1.5069371640278795,0.03608805388876267,0.05630416192095868,0.029158238083419115,0.0724955709708354,-0.03759848269215122
1.507008681182806,0.03753193323000867,0.056496669481546656,0.029645090979329304,0.07567434720841053,-0.03975640443415775
1.5070801983377327,0.038657419159163646,0.056425377540906034,0.03000532215028713,0.07261256615492567,-0.03715082004642669
1.5071517154926592,0.038950459296790155,0.054922417893914874,0.029635790998015537,0.06744952132461256,-0.033379867416556505
1.5072232326475858,0.03795818995272562,0.04925927739655657,0.026170643808596194,0.06030907368439786,-0.03004561456907614
1.5072947498025124,0.035465807062779846,0.04211358265378328,0.02167628316777021,0.05113124688210573,-0.025789825754498546
1.507366266957439,0.03160750390290827,0.036215388715040396,0.01779655130545853,0.043348808544033675,-0.022227817118146576
1.5074377841123656,0.02689036393457737,0.03127308295100011,0.014369878001425985,0.03795860658691332,-0.020231592164397395
1.5075093012672922,0.022110982309926926,0.027275323067307174,0.012274203971852665,0.03461756257874641,-0.0189767243948498
1.5075808184222188,0.018158898886019043,0.025044271012557868,0.010838451012952628,0.03449171035762008,-0.019790537499078678
1.5076523355771454,0.015750547010193554,0.02384731668751876,0.009985828883372298,0.03493715321043638,-0.02067620275656159
1.507723852732072,0.015198153002695225,0.020826238617802514,0.008495434228764531,0.03179398705280983,-0.01919045631048535
1.5077953698869986,0.01632710132796861,0.016102344135412498,0.006411917338543193,0.023597434419527198,-0.014173473640488304
1.5078668870419252,0.01858159605132472,0.012164599814039338,0.00521914285473996,0.014177516690403472,-0.007647341414936339
1.5079384041968518,0.02125563485920751,0.009558550373057584,0.005152249488431391,0.00544711022783287,-0.000941212818841761
1.5080099213517784,0.023737553869918368,0.008962035834939637,0.0057615299185219465,0.0019890015344747555,0.002118291654196632
1.508081438506705,0.025680396681245936,0.01082320493537826,0.007453924502377228,0.004366274829140067,0.001354693694268446
1.5081529556616315,0.027059576075294776,0.013068077032460547,0.008842952470356694,0.011684912361817526,-0.0034209620098494906
1.5082244728165581,0.028112039179855254,0.013082574922521814,0.008942296206187028,0.01991944582663743,-0.00972394239662173
1.5082959899714847,0.029172386947160022,0.011680555729216965,0.008780907310022895,0.027144214307615534,-0.015413012898753497
1.5083675071264113,0.03045818310099522,0.012127060244610976,0.010026451111954632,0.03324759027428198,-0.019343373378879397
1.508439024281338,0.03190386747651281,0.016278431512274406,0.012747040105629182,0.038571433451632484,-0.021735818219437923
1.5085105414362645,0.03314377564440417,0.022065460600874172,0.01600259242207933,0.04168456539489154,-0.022078597303020097
1.508582058591191,0.03366149064758627,0.026713812065094617,0.0186299276568245,0.04317169119912924,-0.021561576442874212
1.5086535757461177,0.03301661123576188,0.026304754310630243,0.017302793300784304,0.042203254645498955,-0.02165461702783777
1.5087250929010443,0.031031763736761156,0.02204555707430302,0.013978643770450466,0.037570663553248146,-0.020179742556495125
1.5087966100559709,0.02787943173947238,0.016449650800972652,0.009773118861112214,0.030237168372541742,-0.017175514709464813
1.5088681272108975,0.024071143965329337,0.01129185873184742,0.005405399448016361,0.024174551362248168,-0.015258361349568275
1.508939644365824,0.020368522042175177,0.00737878785784505,0.002619426200917792,0.019640448629556675,-0.013520182480521946
1.5090111615207507,0.017622660517009992,0.0056459360042073,0.001280243020763253,0.01772340790095796,-0.01288771131758299
1.5090826786756772,0.016549556574789192,0.0052976586321039,0.001094148915450876,0.017376281487235565,-0.012737414836013577
1.5091541958306038,0.01749078347259404,0.005329229729148909,0.001728275756159572,0.01499902828390448,-0.01049731906526375
1.5092257129855304,0.02026609634215111,0.005429611525371616,0.002622344403247119,0.010163448275684767,-0.0061920490934157454
1.509297230140457,0.024225306810832306,0.00804246734680471,0.005090188490138515,0.0049063231939793905,-0.0005625907147356651
1.5093687472953836,0.028505184243561566,0.01535017476314288,0.010396256019729185,0.0029443195373926576,0.004320829155874291
1.5094402644503102,0.032363241212534366,0.02605556703728029,0.017181792517199104,0.006628490703541525,0.005779825172097952
1.5095117816052368,0.035420479974014,0.03832886945312682,0.023785576506019895,0.015959044641680454,0.002760878942737497
1.5095832987601634,0.03772295943106026,0.04794284615629017,0.028541189697550762,0.027235257705695518,-0.0029358522927389777
1.50965481591509,0.039632532833370364,0.05149492753647688,0.030196375009199177,0.03731765379354831,-0.009682559155280572
1.5097263330700166,0.041605230836871475,0.04764717253576189,0.028415936049993602,0.04303769457176293,-0.015240962370918265
1.5097978502249432,0.04392716574129624,0.0408178942189972,0.026087173799228647,0.04176465327246235,-0.015735625758638322
1.5098693673798698,0.04649881119729661,0.03657867063914411,0.025125670272120693,0.03644528334811825,-0.012230183291175555
1.5099408845347964,0.048782229516577,0.03638350899991971,0.025898717163670308,0.03116607008058793,-0.007655009528204382
1.510012401689723,0.04998265464348263,0.03887538984508726,0.027970420605425636,0.02699120223827036,-0.003109833011957462
1.5100839188446495,0.04939582665258717,0.03923266274113307,0.02744804663090382,0.02375636402772282,-0.000940478846723573
1.5101554359995761,0.046726633743720845,0.036927816082189986,0.024915387052692306,0.020701582681996816,-0.00018769321521751518
1.5102269531545027,0.04221494386441091,0.03429165296080978,0.022036546886626967,0.017287012036171404,0.000623590688578711
1.5102984703094293,0.0365554045951188,0.033023305539367845,0.019143160662124768,0.018020861230417604,-0.0017809856469021086
1.510369987464356,0.030705701566729478,0.0335230227134547,0.01712115674686206,0.021156332231547264,-0.005488925976777578
1.5104415046192825,0.025671938650474672,0.03531592393523484,0.016152578444133103,0.02642179203438727,-0.010175470298442301
1.510513021774209,0.02230380117340663,0.03754276162334209,0.01595046449902194,0.03198638159358422,-0.014607718154156575
1.5105845389291357,0.02110478427342222,0.03619205580973743,0.014310671393420193,0.03283876249338185,-0.01630804573758614
1.5106560560840623,0.022087028251984653,0.03063187612767246,0.011927341615445858,0.027011222781309126,-0.013313360790971548
1.5107275732389889,0.02474352062355467,0.021482098677191263,0.008315005741078718,0.016569961839569824,-0.007532408451328364
1.5107990903939155,0.028206425428266402,0.014270578426867327,0.006455089330600415,0.0070239077756867,-0.0013333202234429768
1.510870607548842,0.03156791810921427,0.01072071468327502,0.006924877381908108,0.0022710730102130337,0.0026384373993144305
1.5109421247037687,0.034217944840168574,0.010919358210614094,0.0085255112555674,0.005614592842587362,0.001069799300967116
1.5110136418586952,0.036025983655989566,0.014774561598753929,0.01161661354179527,0.015473313501001219,-0.004589316553597272
1.5110851590136218,0.03729532439305516,0.01735213038542203,0.013294021431409462,0.027922961311800845,-0.013151044533557829
1.5111566761685484,0.03854470610167679,0.01702923865109904,0.013163190298163863,0.04037811989229661,-0.022869793505710407
1.511228193323475,0.04022460916569971,0.016267604320976813,0.013651672900344249,0.04766829649096349,-0.0282027894872588
1.5112997104784016,0.04246467581659284,0.01712524641464741,0.01442102957265151,0.05006129028403289,-0.029567436583875006
1.5113712276333282,0.04493429586497486,0.02154167185239821,0.016921655013448497,0.049610942514108705,-0.02763147973777147
1.5114427447882548,0.04689231770787431,0.02650896221818582,0.019784155718843215,0.046261067775371756,-0.023220230799318217
1.5115142619431814,0.047454803887083834,0.028316848801102655,0.02007376929597759,0.041610557885427966,-0.019436381858298064
1.511585779098108,0.04599085839647899,0.024944881599742237,0.017243949592298295,0.035882870505122615,-0.016800950208264245
