freq,gls,usurper,pdc_unbiased,shape_periodogram,shift_periodogram
1.5,0.031605246424144244,0.029829176361718678,0.022003088454338578,0.020130232170664026,0.011261104204837441
1.5000715171549266,0.028595336453250155,0.022945762478266216,0.01679692217781675,0.01550490187098889,0.008535586393526931
1.5001430343098532,0.024797888546036324,0.01713383311973303,0.011419584810450916,0.01182878631419802,0.005250301512266891
1.5002145514647798,0.020789812632417533,0.015345016610240337,0.008796510756732951,0.008561324740900551,0.004279836206063103
1.5002860686197064,0.017345459787468324,0.017910789628199742,0.009479677332466734,0.00721962099945355,0.005472052295673114
1.500357585774633,0.015271945925960987,0.02241220503158995,0.011714688134418397,0.007776497170466644,0.007253156129444061
1.5004291029295596,0.015165201318802408,0.02773888984428428,0.01415548030345099,0.010604791563761366,0.008247275802963253
1.5005006200844861,0.01716595655706576,0.03280358609571122,0.016954003693511403,0.013036889319660029,0.009734785389276477
1.5005721372394127,0.02086274426290797,0.036780379531214186,0.019187221778694714,0.015636274926009646,0.010640055085999833
1.5006436543943393,0.02544081002802935,0.04027391213770578,0.02137618975240262,0.01872212829230269,0.011297349120823126
1.500715171549266,0.03000884122307953,0.04398805594781919,0.02421994995090846,0.02069483909980462,0.013023911397892168
1.5007866887041925,0.03391266896856934,0.048279260936585834,0.02666061786266369,0.02520309479322748,0.013300843492850854
1.500858205859119,0.0368882624749449,0.05306728972020735,0.029368029530911475,0.030577572620733743,0.013449008453383858
1.5009297230140457,0.0390355018056212,0.05823734628341406,0.03287087235373193,0.03708315840405433,0.013834008118253464
1.5010012401689723,0.04067274274449097,0.06010861532361067,0.0349635290275476,0.04171858170186233,0.013744242965866939
1.5010727573238989,0.04213722341942038,0.06026476052568423,0.036798409825528795,0.04431789754785595,0.014293430529424594
1.5011442744788255,0.043587855733941964,0.060213166076751146,0.03793328428010061,0.04675466587448164,0.014278391372596054
1.501215791633752,0.044880915226329254,0.05991977923576661,0.03824814004694497,0.04914409291533334,0.013540572685822289
1.5012873087886787,0.045592465454410994,0.06089437443831035,0.03896037083855539,0.051535030808816225,0.013162241284008905
1.5013588259436053,0.04519857422015515,0.06011258850933278,0.038338310339186395,0.0514480800781851,0.012635557352582816
1.5014303430985318,0.04331902735671992,0.056101304021045316,0.03525172960142179,0.05202400444292592,0.009591069005495358
1.5015018602534584,0.03989064242203222,0.047937557558479144,0.029380562295107576,0.05037671122657609,0.004977482897225866
1.501573377408385,0.035207008956161204,0.038454560579567997,0.02275340008029923,0.048005650380707136,-6.809958712720832e-06
1.5016448945633116,0.029854908046904056,0.029875887832245797,0.01716592382272006,0.04277515202435526,-0.0028196122644964933
1.5017164117182382,0.02460404968418353,0.02267487258178221,0.01272729457488559,0.036610482230847625,-0.004190045532703521
1.5017879288731648,0.020274028275387688,0.01832577196553813,0.010756457121333964,0.03138037199288546,-0.0037290479126595964
1.5018594460280914,0.01756978332877583,0.016229614136325975,0.009814843547662735,0.028368441916140155,-0.0032888327528714403
1.501930963183018,0.016887968997375314,0.015905834388374583,0.009773529530205848,0.02602314978942715,-0.002320669024442695
1.5020024803379446,0.018154766828972088,0.015315202638511122,0.009545857603491862,0.023689468331672955,-0.001526058600200571
1.5020739974928712,0.020807783027131654,0.01611434516438332,0.00997328939183271,0.022269301875781827,-0.0005309574139594269
1.5021455146477978,0.023992628107040868,0.018776404377980692,0.01144212206274167,0.022169184095606368,0.0008396574664480623
1.5022170318027244,0.026898257150269028,0.02337265361543028,0.014028974316248104,0.024213101902409252,0.0023021816899169525
1.502288548957651,0.029041972437567,0.028146820857253174,0.016679671046279716,0.026463089748344475,0.0037345184070475767
1.5023600661125776,0.03036170293294545,0.03324119052885243,0.019990738498687276,0.02937387889443288,0.005481420662368339
1.5024315832675041,0.031115659296329378,0.03397326010286023,0.02077896981185265,0.030729560473160805,0.005613424543721757
1.5025031004224307,0.031680428730509906,0.03108298054450631,0.019519808615351825,0.030629501028610794,0.004517416859123114
1.5025746175773573,0.032340192227813126,0.027374517751054102,0.018649627815208736,0.02847364878043655,0.004654303662551211
1.502646134732284,0.033131945974426154,0.02486340045253422,0.017871043624403338,0.0256354226571344,0.005166459636455919
1.5027176518872105,0.033797027787609374,0.024447137830164445,0.01799769758677829,0.023779487829325704,0.006076207914641256
1.502789169042137,0.033871437590867574,0.023215381912404194,0.017486670760106647,0.021073293955340983,0.006773620238974074
1.5028606861970637,0.03289397904446062,0.01975887632575614,0.015274482970942199,0.018931922015799404,0.00569118617956129
1.5029322033519903,0.030638444170610023,0.01586348343897585,0.012011118949132128,0.01753053111548893,0.003341853822974822
1.5030037205069169,0.02725242384486997,0.013743365095676256,0.009441040885373031,0.016899187547982975,0.0012895081812573728
1.5030752376618435,0.023245599290448483,0.015141041640822679,0.008606550278537486,0.016700304712933992,0.0006205470905523734
1.50314675481677,0.019358366958489085,0.018552428261977356,0.008953985446160287,0.01676534822275872,0.0009066737062953884
1.5032182719716967,0.01638051368297583,0.022968462059597395,0.010426555451109277,0.017190134044244933,0.002055534892922037
1.5032897891266233,0.01497089818834955,0.02729899889327652,0.012350463029946239,0.018371789944665293,0.0032880905067679232
1.5033613062815498,0.015499460648454992,0.030767849956493357,0.013981854206916533,0.019417678187314893,0.004314566574394145
1.5034328234364764,0.01793079665045714,0.03137745930262238,0.01416864675154985,0.018420141914739264,0.004910842022743566
1.503504340591403,0.021792554285279486,0.03106767345197834,0.013806564009865633,0.017186023226896715,0.005112331630304699
1.5035758577463296,0.026283745634476982,0.033943324770118556,0.015751292513310384,0.01857302308482587,0.00627597921831652
1.5036473749012562,0.03053094650102892,0.039442221629652954,0.019003856556851165,0.023485209584099494,0.00711205452712847
1.5037188920561828,0.03389868374654469,0.04673030766414941,0.02304438568669538,0.03023516674361612,0.007874436451258625
1.5037904092111094,0.03619247413189749,0.05563005896736236,0.02836367437687625,0.03701662539972026,0.009782389928442025
1.503861926366036,0.03764566473947448,0.062362106167792294,0.03246316988130233,0.04294836308070546,0.010953025005083033
1.5039334435209626,0.038716510453014726,0.06548407741614419,0.03408384953452373,0.048778503395694485,0.009923432422750091
1.5040049606758892,0.0398171228344044,0.06693732437592677,0.03557140334761458,0.05245124721080873,0.009697721051182138
1.5040764778308158,0.041095739566223526,0.07029661920121714,0.037525773851031737,0.055883909161788044,0.009998431848178295
1.5041479949857424,0.04234364882306056,0.07354246842318833,0.038887791087543686,0.05942421436600858,0.009716312131446962
1.504219512140669,0.043051695709888996,0.07480041985069752,0.03921573232033744,0.06253535077506828,0.008680108488513062
1.5042910292955955,0.04260283060723393,0.0698294289755708,0.036347749549566495,0.06358744651654386,0.0056270197894083464
1.5043625464505221,0.04053910287302065,0.05853529976216282,0.030363706364527798,0.061174611066906054,0.001236073235398961
1.5044340636054487,0.03679439695722014,0.04459457173351977,0.02344001313236871,0.05486093201330618,-0.0023269510412345013
1.5045055807603753,0.03178229372791513,0.03256763853489818,0.01698689592080203,0.04841112118157794,-0.005400171846493447
1.504577097915302,0.026296542555493532,0.024372053407237124,0.012446934359831944,0.04233840653120875,-0.006901123664141869
1.5046486150702285,0.021278189004975218,0.02131865249252963,0.011187449324425095,0.03729111690790487,-0.005874523131664179
1.504720132225155,0.017555651134353225,0.02039142521181011,0.011283372248322305,0.03367262157457908,-0.004235668926764583
1.5047916493800817,0.01564621916050789,0.019369036108227707,0.010644076718018416,0.03160442633264583,-0.00392673478691995
1.5048631665350083,0.015656872938766518,0.01721974604423473,0.009217644422453899,0.028898072140650558,-0.004055803117535142
1.5049346836899349,0.017286051262519187,0.015839236653258235,0.008230188330603324,0.0258703330624991,-0.0036502426718539593
1.5050062008448615,0.019918755698584013,0.015950452159546342,0.007905738300784866,0.023499636815912873,-0.002927165399302181
1.505077717999788,0.022804926807040774,0.01835982818979355,0.009361654152707073,0.021994163006801452,-0.0009658741205944035
1.5051492351547147,0.025289013466251117,0.023436526774984846,0.011726326065843064,0.024650358172168808,3.310458383342034e-05
1.5052207523096413,0.027015644551186973,0.028672232150474344,0.014241445734319206,0.02715305150353262,0.0012342146926508535
1.5052922694645678,0.028012475009877,0.03139995353012973,0.015961322224474977,0.027433680718745978,0.002669011992270763
1.5053637866194944,0.028596359216805502,0.028241865884740706,0.014919408532213189,0.024939347044001428,0.002795966116728212
1.505435303774421,0.02915112616185344,0.021658373779983312,0.013309044659559194,0.019604853101624818,0.0036261812880637517
1.5055068209293476,0.029900153036102176,0.0171468422648328,0.012321918805932341,0.015281446383264282,0.004586474679229327
1.5055783380842742,0.030782681811496897,0.016520056438872596,0.01250866989698158,0.013062354023409568,0.005706051573063309
1.5056498552392008,0.03146961942071043,0.018872222907062308,0.013496870470295333,0.01374055110203564,0.006308620464156318
1.5057213723941274,0.03149161794629547,0.019954172707337858,0.013134126432083434,0.015419146155537335,0.005261574509949579
1.505792889549054,0.030427310908792447,0.01916033294639489,0.011855838401314541,0.018062198172791245,0.0029736763798746332
1.5058644067039806,0.02809465201809536,0.016840835458769614,0.009674998552531539,0.01915632601265714,0.0005336444316707819
1.5059359238589072,0.024683284499830333,0.0131686974976271,0.006168765257997816,0.01887869567986439,-0.002516249054725012
1.5060074410138338,0.020766913938386953,0.010962680650877644,0.003987129865862614,0.01774636125846879,-0.004002464685690988
1.5060789581687604,0.017165658691511196,0.012241989559782106,0.004506773893992003,0.016300338845015517,-0.00291308050389604
1.506150475323687,0.014695536880755058,0.014868975780049743,0.005603202541494299,0.01647979803478497,-0.0019991685675731733
1.5062219924786135,0.013907828977730352,0.017292769480575423,0.006474304461408025,0.017029980012781238,-0.0014477481504296939
1.5062935096335401,0.014929925183180436,0.017979779702697662,0.007024475314287043,0.015822798543253372,-0.0004331746303207964
1.5063650267884667,0.01746107614733839,0.017260100671127425,0.006681651925523114,0.015282199406080142,-0.0005113062234679754
1.5064365439433933,0.020900617081537138,0.019237441832989716,0.008103902228742074,0.015519980083164292,0.0006721079834812011
1.50650806109832,0.024545654709518663,0.023833056224717604,0.01119024144466396,0.01541112751127621,0.0035080865126827085
1.5065795782532465,0.027795889555703463,0.03137767248338569,0.015188716512202768,0.01895488097287724,0.005603818776546587
1.506651095408173,0.030315638754338018,0.04117895983243518,0.02020329875354711,0.02393836993052515,0.008002495809502729
1.5067226125630997,0.03210575674634778,0.050922090135702404,0.02516307524326057,0.029619878902213997,0.010054627588247232
1.5067941297180263,0.03344435853615213,0.056533869454268866,0.02809340030703321,0.034664267413962266,0.010545409103911252
1.5068656468729529,0.03469846610783441,0.057014615699234134,0.028836225363534616,0.036828699768626565,0.010290609903847269
1.5069371640278795,0.03608805388876267,0.05592726779481166,0.029158238083419115,0.037627023926179684,0.010240119889560997
1.507008681182806,0.03753193323000867,0.05554850467949743,0.029645090979329304,0.03914128373440089,0.010032180408195795
1.5070801983377327,0.038657419159163646,0.05556681011133039,0.03000532215028713,0.04038775364133209,0.009824337051690692
1.5071517154926592,0.038950459296790155,0.05410430043830577,0.029635790998015537,0.040077594058826826,0.009622654483003588
1.5072232326475858,0.03795818995272562,0.04805518952196487,0.026170643808596194,0.039577781912545275,0.0067000801004354765
1.5072947498025124,0.035465807062779846,0.040532136382413854,0.02167628316777021,0.038340805142905575,0.0031630138070858093
1.507366266957439,0.03160750390290827,0.034343563654777434,0.01779655130545853,0.03636682982154259,0.0004993497884816718
1.5074377841123656,0.02689036393457737,0.029104472282062904,0.014369878001425985,0.03406986703234684,-0.0016149926330364234
1.5075093012672922,0.022110982309926926,0.024549704914582072,0.012274203971852665,0.03067232197025451,-0.002053178771939557
1.5075808184222188,0.018158898886019043,0.02148913576696862,0.010838451012952628,0.028933243568708248,-0.002605612508043793
1.5076523355771454,0.015750547010193554,0.019597543772367696,0.009985828883372298,0.027422085968760744,-0.0027285089898634297
1.507723852732072,0.015198153002695225,0.01635708705114441,0.008495434228764531,0.02433266264949015,-0.002751263333329838
1.5077953698869986,0.01632710132796861,0.012150353767600118,0.006411917338543193,0.020077324296050015,-0.002810273079329942
1.5078668870419252,0.01858159605132472,0.009242588648379933,0.00521914285473996,0.015553590912653023,-0.001949275989990524
1.5079384041968518,0.02125563485920751,0.0077242469841227405,0.005152249488431391,0.011034359881695746,-7.297395976916747e-05
1.5080099213517784,0.023737553869918368,0.007907290885189744,0.0057615299185219465,0.008236331051714313,0.0016765903268848835
1.508081438506705,0.025680396681245936,0.010277616019304457,0.007453924502377228,0.0062354406609260666,0.004063219896798716
1.5081529556616315,0.027059576075294776,0.01253185998417016,0.008842952470356694,0.004696332840503103,0.005977816651965232
1.5082244728165581,0.028112039179855254,0.011991829186768985,0.008942296206187028,0.0027284546893159814,0.006910737397381346
1.5082959899714847,0.029172386947160022,0.009831252027327432,0.008780907310022895,0.0006283896848846632,0.007664705173308668
1.5083675071264113,0.03045818310099522,0.009854930714141744,0.010026451111954632,-0.0006133523587802895,0.009322166222447845
1.508439024281338,0.03190386747651281,0.014105200879886896,0.012747040105629182,0.0004413163618960431,0.011328550316783438
1.5085105414362645,0.03314377564440417,0.02033241537282607,0.01600259242207933,0.003952936840713865,0.012766019322073907
1.508582058591191,0.03366149064758627,0.0253848344022713,0.0186299276568245,0.007307751029841476,0.013703450949977854
1.5086535757461177,0.03301661123576188,0.02494601852311947,0.017302793300784304,0.009358468411988204,0.011625651907336285
1.5087250929010443,0.031031763736761156,0.020441681197951804,0.013978643770450466,0.010323627054832394,0.008207907981020416
1.5087966100559709,0.02787943173947238,0.014772598461433363,0.009773118861112214,0.009819786476993922,0.004623151329171579
1.5088681272108975,0.024071143965329337,0.009613188183896814,0.005405399448016361,0.00958720930810466,0.0007759190118017626
1.508939644365824,0.020368522042175177,0.005535467012683286,0.002619426200917792,0.007747728517911268,-0.0009532145920688216
1.5090111615207507,0.017622660517009992,0.0035697242907185662,0.001280243020763253,0.007175900826988128,-0.0019182120029372664
1.5090826786756772,0.016549556574789192,0.002895278349437961,0.001094148915450876,0.008069033228127409,-0.002469095212540347
1.5091541958306038,0.01749078347259404,0.003084532289897534,0.001728275756159572,0.00817054559031539,-0.00193962207448865
1.5092257129855304,0.02026609634215111,0.003988902447390959,0.002622344403247119,0.006809509563993579,-0.0005485298689791845
1.509297230140457,0.024225306810832306,0.0079663344427696,0.005090188490138515,0.006030262907764913,0.002015271842303274
1.5093687472953836,0.028505184243561566,0.01674403185063164,0.010396256019729185,0.007600977048712414,0.006136927300242772
1.5094402644503102,0.032363241212534366,0.02866397220628483,0.017181792517199104,0.011598241670639046,0.0105569163203446
1.5095117816052368,0.035420479974014,0.04165381571295193,0.023785576506019895,0.016872560473205463,0.014267861981347451
1.5095832987601634,0.03772295943106026,0.05136751577598615,0.028541189697550762,0.020934057477351414,0.016829521777799932
1.50965481591509,0.039632532833370364,0.05421024341168439,0.030196375009199177,0.023092519282377853,0.017402770700485893
1.5097263330700166,0.041605230836871475,0.04918059149153565,0.028415936049993602,0.021909417735555353,0.016298707544580102
1.5097978502249432,0.04392716574129624,0.04154974657731296,0.026087173799228647,0.0169101913427661,0.016332840301099192
1.5098693673798698,0.04649881119729661,0.037225247746377005,0.025125670272120693,0.012542739418194733,0.017333310988705917
1.5099408845347964,0.048782229516577,0.03745216973104188,0.025898717163670308,0.011851316219508376,0.01832819939415951
1.510012401689723,0.04998265464348263,0.040440892323586684,0.027970420605425636,0.012897390414490187,0.019753435011692386
1.5100839188446495,0.04939582665258717,0.0406550728180981,0.02744804663090382,0.014455663404847273,0.01861410774710975
1.5101554359995761,0.046726633743720845,0.037484528878557265,0.024915387052692306,0.015426614353759931,0.015908496251941136
1.5102269531545027,0.04221494386441091,0.03403150874454724,0.022036546886626967,0.016063268818962997,0.01303308209792305
1.5102984703094293,0.0365554045951188,0.03192793083645867,0.019143160662124768,0.017435998645030756,0.009829350724612822
1.510369987464356,0.030705701566729478,0.03150254054682337,0.01712115674686206,0.0190200086375831,0.007322840303780341
1.5104415046192825,0.025671938650474672,0.0322892873592176,0.016152578444133103,0.02038084235892068,0.005864191994274783
1.510513021774209,0.02230380117340663,0.03361377756114315,0.01595046449902194,0.022160745377508936,0.004918835691660863
1.5105845389291357,0.02110478427342222,0.03182788461654506,0.014310671393420193,0.022105905213150777,0.003459884974114616
1.5106560560840623,0.022087028251984653,0.026358155741935747,0.011927341615445858,0.017953403362096297,0.0030849258253611584
1.5107275732389889,0.02474352062355467,0.01782197102897655,0.008315005741078718,0.01149555371623775,0.0025874398387027283
1.5107990903939155,0.028206425428266402,0.01139614103578118,0.006455089330600415,0.004918699157760052,0.0037248732301802165
1.510870607548842,0.03156791810921427,0.008492236859707524,0.006924877381908108,-0.00013508925828877998,0.006314807090430615
1.5109421247037687,0.034217944840168574,0.008999218964139938,0.0085255112555674,-0.0027615282165802998,0.008886425737383312
1.5110136418586952,0.036025983655989566,0.012767268434150438,0.01161661354179527,-0.0037779306726291634,0.012114834199598216
1.5110851590136218,0.03729532439305516,0.01481044878284511,0.013294021431409462,-0.0036460956881676767,0.013573940976854309
1.5111566761685484,0.03854470610167679,0.013444146500082538,0.013163190298163863,-0.0034215296117101925,0.013359517322693205
1.511228193323475,0.04022460916569971,0.012102094950776422,0.013651672900344249,-0.005130465298711821,0.014533059025138132
1.5112997104784016,0.04246467581659284,0.013291739830078338,0.01442102957265151,-0.005564289714317177,0.015414055539143094
1.5113712276333282,0.04493429586497486,0.01877251651225981,0.016921655013448497,-0.003557447102078771,0.016813680375016134
1.5114427447882548,0.04689231770787431,0.02512413440377383,0.019784155718843215,-0.0005337019501541325,0.018104983501312635
1.5115142619431814,0.047454803887083834,0.027767640831346158,0.02007376929597759,0.0030576541784333457,0.01682855970894059
