freq,gls,usurper,pdc_unbiased,shape_periodogram,shift_periodogram
1.5,0.031605246424144244,0.03068690136802988,0.022003088454338578,0.01645910838475003,0.011275583899233728
1.5000715171549266,0.028595336453250155,0.024083382914315683,0.01679692217781675,0.0118299776095942,0.00896189137287357
1.5001430343098532,0.024797888546036324,0.018567150206801258,0.011419584810450916,0.008666885712032748,0.005789556116072844
1.5002145514647798,0.020789812632417533,0.017082091662198776,0.008796510756732951,0.006581489873355006,0.004505305491991534
1.5002860686197064,0.017345459787468324,0.019885574798630064,0.009479677332466734,0.006054925384914573,0.005358116886267902
1.500357585774633,0.015271945925960987,0.024562827141877054,0.011714688134418397,0.007009743935591916,0.006850719627937669
1.5004291029295596,0.015165201318802408,0.02990427608237976,0.01415548030345099,0.010063269598915956,0.007506621393859418
1.5005006200844861,0.01716595655706576,0.0348056760444225,0.016954003693511403,0.012155074055190463,0.00894183907428218
1.5005721372394127,0.02086274426290797,0.03862503639878822,0.019187221778694714,0.014537890374970013,0.009741737147875058
1.5006436543943393,0.02544081002802935,0.04186029334318622,0.02137618975240262,0.0169769866906603,0.010475982283885887
1.500715171549266,0.03000884122307953,0.04546274602109151,0.02421994995090846,0.01874907450695903,0.01210693549692584
1.5007866887041925,0.03391266896856934,0.04979027138669587,0.02666061786266369,0.023217819292951945,0.012079390580029029
1.500858205859119,0.0368882624749449,0.0545857587732449,0.029368029530911475,0.028798261842214175,0.011747686386758134
1.5009297230140457,0.0390355018056212,0.05959391598327941,0.03287087235373193,0.035474037247645904,0.011583371984455512
1.5010012401689723,0.04067274274449097,0.06113329884295583,0.0349635290275476,0.04027895650070905,0.011090254244352714
1.5010727573238989,0.04213722341942038,0.06081978649998121,0.036798409825528795,0.04294227636777104,0.011409125382345984
1.5011442744788255,0.043587855733941964,0.060510223036877586,0.03793328428010061,0.04510515331875209,0.011356770139100032
1.501215791633752,0.044880915226329254,0.06008564508956185,0.03824814004694497,0.04724504248118594,0.010596151343871728
1.5012873087886787,0.045592465454410994,0.06104875417912632,0.03896037083855539,0.04937526261052591,0.010188855576369641
1.5013588259436053,0.04519857422015515,0.06039650100282572,0.038338310339186395,0.04893217529389356,0.009857665571475771
1.5014303430985318,0.04331902735671992,0.05677189488827763,0.03525172960142179,0.049190806001570275,0.007023929949168082
1.5015018602534584,0.03989064242203222,0.048932793290595904,0.029380562295107576,0.04742335274714174,0.002731493973130456
1.501573377408385,0.035207008956161204,0.039677354920013674,0.02275340008029923,0.045296403214478045,-0.0020457662949315203
1.5016448945633116,0.029854908046904056,0.031292853182151865,0.01716592382272006,0.041086712243596286,-0.004898061977959198
1.5017164117182382,0.02460404968418353,0.02406879150984879,0.01272729457488559,0.035751963375716546,-0.006196358227573965
1.5017879288731648,0.020274028275387688,0.019547954538685925,0.010756457121333964,0.03086423314951552,-0.005550655359132316
1.5018594460280914,0.01756978332877583,0.017174801820065064,0.009814843547662735,0.0278802240015253,-0.004927610325403097
1.501930963183018,0.016887968997375314,0.01643090258949596,0.009773529530205848,0.024947009346054736,-0.0035414712184893013
1.5020024803379446,0.018154766828972088,0.01549126559204179,0.009545857603491862,0.022693316533453328,-0.0026480473633742987
1.5020739974928712,0.020807783027131654,0.016056917648306288,0.00997328939183271,0.0211879868893699,-0.001544262701860681
1.5021455146477978,0.023992628107040868,0.018682158178372033,0.01144212206274167,0.020910806128656607,-0.00012457434556435132
1.5022170318027244,0.026898257150269028,0.023506751615197902,0.014028974316248104,0.022576167268518067,0.0013320471016759782
1.502288548957651,0.029041972437567,0.028448310147432605,0.016679671046279716,0.024379404692692522,0.002778077364345496
1.5023600661125776,0.03036170293294545,0.03368495806345321,0.019990738498687276,0.0269610078084812,0.004425450452893504
1.5024315832675041,0.031115659296329378,0.0343880296451314,0.02077896981185265,0.028101810094144933,0.004562692778702863
1.5025031004224307,0.031680428730509906,0.031185349456997236,0.019519808615351825,0.027560699306892266,0.003722474080987876
1.5025746175773573,0.032340192227813126,0.027113501292679837,0.018649627815208736,0.02455567904590142,0.004417097487344954
1.502646134732284,0.033131945974426154,0.024228555210814885,0.017871043624403338,0.020828821131900203,0.005541665560456234
1.5027176518872105,0.033797027787609374,0.023686417583095858,0.01799769758677829,0.018420691823200462,0.006819425300457502
1.502789169042137,0.033871437590867574,0.02243152241152377,0.017486670760106647,0.015185970473332863,0.00793949861700227
1.5028606861970637,0.03289397904446062,0.019195708369090916,0.015274482970942199,0.012831926726589655,0.00714423524721608
1.5029322033519903,0.030638444170610023,0.015627777999466966,0.012011118949132128,0.011521049504009463,0.004924040636095696
1.5030037205069169,0.02725242384486997,0.013921102186058272,0.009441040885373031,0.011403840791281223,0.0027322483302258125
1.5030752376618435,0.023245599290448483,0.015897797727444648,0.008606550278537486,0.01211559210731451,0.0016572313920044188
1.50314675481677,0.019358366958489085,0.019858682762197814,0.008953985446160287,0.013317166573086877,0.001378865386144499
1.5032182719716967,0.01638051368297583,0.024597038952343928,0.010426555451109277,0.014175087846789433,0.0022514673233096495
1.5032897891266233,0.01497089818834955,0.029047041088568905,0.012350463029946239,0.01530644595362865,0.0033865539609739047
1.5033613062815498,0.015499460648454992,0.0324590613310959,0.013981854206916533,0.015781701095676955,0.004583765280604548
1.5034328234364764,0.01793079665045714,0.03289841243873613,0.01416864675154985,0.01448476215534661,0.005375697103709372
1.503504340591403,0.021792554285279486,0.03237445589496428,0.013806564009865633,0.012688916446660368,0.005929079398944653
1.5035758577463296,0.026283745634476982,0.03512835494522496,0.015751292513310384,0.013433848867753471,0.007269813841369439
1.5036473749012562,0.03053094650102892,0.04074368344936707,0.019003856556851165,0.017977831078122404,0.007914641063848355
1.5037188920561828,0.03389868374654469,0.048172959866775326,0.02304438568669538,0.024731199483040932,0.008179685524283819
1.5037904092111094,0.03619247413189749,0.05723337005019774,0.02836367437687625,0.03158342147165873,0.00951855482140288
1.503861926366036,0.03764566473947448,0.06407375539366665,0.03246316988130233,0.0374885100772994,0.010250064678599081
1.5039334435209626,0.038716510453014726,0.06729580667571068,0.03408384953452373,0.04340554486308236,0.00880381845248648
1.5040049606758892,0.0398171228344044,0.06878789172152228,0.03557140334761458,0.04730438310262347,0.008218882250729904
1.5040764778308158,0.041095739566223526,0.07223054789001027,0.037525773851031737,0.05087746702642936,0.008201665761504414
1.5041479949857424,0.04234364882306056,0.07561195563520966,0.038887791087543686,0.05449546587054877,0.007643084777185309
1.504219512140669,0.043051695709888996,0.07695721229272372,0.03921573232033744,0.05749392485649534,0.0064769174680587615
1.5042910292955955,0.04260283060723393,0.07219381938216751,0.036347749549566495,0.05882731991919927,0.00331178841795764
1.5043625464505221,0.04053910287302065,0.06097849983916115,0.030363706364527798,0.0573217257449658,-0.0012094175294286307
1.5044340636054487,0.03679439695722014,0.046819450210038076,0.02344001313236871,0.05220860150712605,-0.004798902320887037
1.5045055807603753,0.03178229372791513,0.03456395495965551,0.01698689592080203,0.04710675118390824,-0.007976711431035776
1.504577097915302,0.026296542555493532,0.026216711795427207,0.012446934359831944,0.042339519895793425,-0.00963849660727164
1.5046486150702285,0.021278189004975218,0.02304782740418049,0.011187449324425095,0.037710409084637485,-0.008494588359024693
1.504720132225155,0.017555651134353225,0.022013292512569664,0.011283372248322305,0.03429747769486488,-0.006754761466152665
1.5047916493800817,0.01564621916050789,0.02075951759389081,0.010644076718018416,0.032020579819992075,-0.006209873266158726
1.5048631665350083,0.015656872938766518,0.018428941155714022,0.009217644422453899,0.02904951718341393,-0.00601730746874364
1.5049346836899349,0.017286051262519187,0.01696520453641381,0.008230188330603324,0.025976239121412947,-0.005391081457403084
1.5050062008448615,0.019918755698584013,0.016943924959899666,0.007905738300784866,0.02309356873421126,-0.004277261727604036
1.505077717999788,0.022804926807040774,0.01928148416839559,0.009361654152707073,0.021271970562175373,-0.0021201794789344613
1.5051492351547147,0.025289013466251117,0.024559024454312267,0.011726326065843064,0.02401159271514296,-0.0013790100346495328
1.5052207523096413,0.027015644551186973,0.02977602115501664,0.014241445734319206,0.026248803796502067,-0.0002623210146237473
1.5052922694645678,0.028012475009877,0.03226821634343969,0.015961322224474977,0.025847247726991457,0.001437781932650449
1.5053637866194944,0.028596359216805502,0.028742681768173402,0.014919408532213189,0.02270763734597396,0.002047646593066771
1.505435303774421,0.02915112616185344,0.02168992203746627,0.013309044659559194,0.016840182388551173,0.003482063505271309
1.5055068209293476,0.029900153036102176,0.016828939831258705,0.012321918805932341,0.011707407319854313,0.005105667365555232
1.5055783380842742,0.030782681811496897,0.016047110161339986,0.01250866989698158,0.008535771001862091,0.006805919271310834
1.5056498552392008,0.03146961942071043,0.01845348728017377,0.013496870470295333,0.008529914088532351,0.007673341203827759
1.5057213723941274,0.03149161794629547,0.019825931710169553,0.013134126432083434,0.009834898299394539,0.006723649421827384
1.505792889549054,0.030427310908792447,0.019480059638518548,0.011855838401314541,0.012555540918761834,0.004286876035678709
1.5058644067039806,0.02809465201809536,0.017532878316588646,0.009674998552531539,0.014517755832975786,0.0014278272711911422
1.5059359238589072,0.024683284499830333,0.014072583797556236,0.006168765257997816,0.015462649943586601,-0.0020977609161498224
1.5060074410138338,0.020766913938386953,0.012038114950661339,0.003987129865862614,0.015642794112054215,-0.004093683946017334
1.5060789581687604,0.017165658691511196,0.013384728345406861,0.004506773893992003,0.014576396072006536,-0.0031221749073658926
1.506150475323687,0.014695536880755058,0.016124983243118327,0.005603202541494299,0.014491537096505277,-0.0021218440851549607
1.5062219924786135,0.013907828977730352,0.01846129337751387,0.006474304461408025,0.014115509745848628,-0.001177496426892889
1.5062935096335401,0.014929925183180436,0.018865027863961305,0.007024475314287043,0.011908760044547953,0.0003733705937756331
1.5063650267884667,0.01746107614733839,0.017881639872048702,0.006681651925523114,0.010777435305369357,0.0006217510712744354
1.5064365439433933,0.020900617081537138,0.01966676627071225,0.008103902228742074,0.01022671217837119,0.002132892112122647
1.50650806109832,0.024545654709518663,0.024256261318024493,0.01119024144466396,0.00971867228991697,0.005079238546297113
1.5065795782532465,0.027795889555703463,0.03227107012746322,0.015188716512202768,0.013481028053999559,0.006754670898243589
1.506651095408173,0.030315638754338018,0.042532724380433366,0.02020329875354711,0.01862063352091911,0.008653052805612424
1.5067226125630997,0.03210575674634778,0.052783437615698994,0.02516307524326057,0.024710167288760552,0.010045093080722796
1.5067941297180263,0.03344435853615213,0.05885641051386639,0.02809340030703321,0.030116262759786235,0.00999259413370378
1.5068656468729529,0.03469846610783441,0.05948176091186566,0.028836225363534616,0.032675897670398274,0.009403261228078925
1.5069371640278795,0.03608805388876267,0.05840961420450749,0.029158238083419115,0.03341281589109489,0.009328357335974608
1.507008681182806,0.03753193323000867,0.05806133192231468,0.029645090979329304,0.03490081234384551,0.009033984454660157
1.5070801983377327,0.038657419159163646,0.05812406731017863,0.03000532215028713,0.03625639927421781,0.008692809263380957
1.5071517154926592,0.038950459296790155,0.05677430891909768,0.029635790998015537,0.03625995821049121,0.008367238214717965
1.5072232326475858,0.03795818995272562,0.050882404523489556,0.026170643808596194,0.03643081658561224,0.005248048056949659
1.5072947498025124,0.035465807062779846,0.04340064462507869,0.02167628316777021,0.03660692760140064,0.001225403719741829
1.507366266957439,0.03160750390290827,0.03713637815663891,0.01779655130545853,0.0362219762059447,-0.001985837984015638
1.5074377841123656,0.02689036393457737,0.03184350374598214,0.014369878001425985,0.035878659928562734,-0.004819762415557097
1.5075093012672922,0.022110982309926926,0.02712781262966776,0.012274203971852665,0.034169466001098825,-0.005825323511715634
1.5075808184222188,0.018158898886019043,0.02396988061477714,0.010838451012952628,0.03344768561182682,-0.0067319799206003745
1.5076523355771454,0.015750547010193554,0.02186153360869414,0.009985828883372298,0.032166747667221905,-0.00685690837255836
1.507723852732072,0.015198153002695225,0.01815894952189553,0.008495434228764531,0.028828521349906707,-0.0065421639676040986
1.5077953698869986,0.01632710132796861,0.01340443829967209,0.006411917338543193,0.024327245200328487,-0.006182520781305884
1.5078668870419252,0.01858159605132472,0.009992546476438139,0.00521914285473996,0.019123599287287723,-0.004703204095264049
1.5079384041968518,0.02125563485920751,0.008029698265224552,0.005152249488431391,0.013544776877952646,-0.0020574633739454274
1.5080099213517784,0.023737553869918368,0.007918304724064074,0.0057615299185219465,0.010022662146818146,0.00018260742127564292
1.508081438506705,0.025680396681245936,0.010097942801592746,0.007453924502377228,0.007624844967170926,0.002825182427930436
1.5081529556616315,0.027059576075294776,0.0122428854299905,0.008842952470356694,0.005756018651555196,0.004945946783807386
1.5082244728165581,0.028112039179855254,0.011712327080602446,0.008942296206187028,0.0035055761811852645,0.006123375621968951
1.5082959899714847,0.029172386947160022,0.009379647157507488,0.008780907310022895,0.0012280501157659876,0.007085837445799605
1.5083675071264113,0.03045818310099522,0.009204010639992738,0.010026451111954632,-0.0005441784659682816,0.00903415742095106
1.508439024281338,0.03190386747651281,0.013409524261354399,0.012747040105629182,-0.00010065486149717707,0.011199105547561962
1.5085105414362645,0.03314377564440417,0.019784249936217548,0.01600259242207933,0.0024089294901643537,0.01283117465459968
1.508582058591191,0.03366149064758627,0.025027629043243377,0.0186299276568245,0.005009730296076702,0.013869847655291059
1.5086535757461177,0.03301661123576188,0.02495686213176394,0.017302793300784304,0.006673200495842034,0.011902834912585475
1.5087250929010443,0.031031763736761156,0.020774962252996316,0.013978643770450466,0.007810270913364148,0.008443538270761625
1.5087966100559709,0.02787943173947238,0.01520928194016377,0.009773118861112214,0.007536006750343994,0.004897123578440174
1.5088681272108975,0.024071143965329337,0.010053760720818322,0.005405399448016361,0.007749738239240369,0.000972611111037887
1.508939644365824,0.020368522042175177,0.005835056378439538,0.002619426200917792,0.00636056908445147,-0.0007912229063775525
1.5090111615207507,0.017622660517009992,0.003735109928908367,0.001280243020763253,0.00563001693175223,-0.0016086078148434574
1.5090826786756772,0.016549556574789192,0.002959984935043882,0.001094148915450876,0.006386817485972421,-0.002138168046088035
1.5091541958306038,0.01749078347259404,0.0027880501746846936,0.001728275756159572,0.006103324224150878,-0.0014460803765616967
1.5092257129855304,0.02026609634215111,0.00329949263701998,0.002622344403247119,0.004145931382580081,0.00028461502175995717
1.509297230140457,0.024225306810832306,0.007101179630570075,0.005090188490138515,0.0026335051683827313,0.003176294378279798
1.5093687472953836,0.028505184243561566,0.01598124599473489,0.010396256019729185,0.003118730376305597,0.007582736523996173
1.5094402644503102,0.032363241212534366,0.02832951949303369,0.017181792517199104,0.0065599199081262955,0.011851844883612744
1.5095117816052368,0.035420479974014,0.042031323573687364,0.023785576506019895,0.011710485162407615,0.015135784674538088
1.5095832987601634,0.03772295943106026,0.052301142813657,0.028541189697550762,0.01566749235201641,0.017382454747142572
1.50965481591509,0.039632532833370364,0.055627575823298046,0.030196375009199177,0.018048984836580198,0.017678638979565498
1.5097263330700166,0.041605230836871475,0.05084364684186117,0.028415936049993602,0.01768508772528143,0.016295861045852098
1.5097978502249432,0.04392716574129624,0.043172467190563335,0.026087173799228647,0.013616079315142086,0.01622749059133972
1.5098693673798698,0.04649881119729661,0.03875221810654623,0.025125670272120693,0.009552840373254467,0.017353568816137328
1.5099408845347964,0.048782229516577,0.0388817796417707,0.025898717163670308,0.0087840164276341,0.018402436693978494
1.510012401689723,0.04998265464348263,0.041905610984677245,0.027970420605425636,0.009994944713850819,0.01962933636938309
1.5100839188446495,0.04939582665258717,0.04252375072425777,0.02744804663090382,0.011923766263579858,0.018238188526527827
1.5101554359995761,0.046726633743720845,0.03991698958105238,0.024915387052692306,0.013932540101951489,0.015048526103292492
1.5102269531545027,0.04221494386441091,0.03683874714140669,0.022036546886626967,0.015776524696287982,0.011635518496127093
1.5102984703094293,0.0365554045951188,0.035060480263726386,0.019143160662124768,0.01860899055296905,0.007730761279480387
1.510369987464356,0.030705701566729478,0.034998933957907936,0.01712115674686206,0.021707142001491996,0.004459655079478349
1.5104415046192825,0.025671938650474672,0.03601371040540754,0.016152578444133103,0.02406304716837875,0.0024700383979399908
1.510513021774209,0.02230380117340663,0.03731267330503217,0.01595046449902194,0.026705821502108717,0.0010120767349169322
1.5105845389291357,0.02110478427342222,0.03515137979715484,0.014310671393420193,0.027088137221165588,-0.0006086434291391062
1.5106560560840623,0.022087028251984653,0.02891187829090449,0.011927341615445858,0.023147891108542845,-0.000784383243875634
1.5107275732389889,0.02474352062355467,0.01934596875619227,0.008315005741078718,0.016621479200204996,-0.0007817057233205065
1.5107990903939155,0.028206425428266402,0.011945593702601651,0.006455089330600415,0.009316828762259364,0.0011314165717197413
1.510870607548842,0.03156791810921427,0.008353762152556963,0.006924877381908108,0.003396273534948081,0.004411556978933773
1.5109421247037687,0.034217944840168574,0.008566496961463973,0.0085255112555674,5.4252193661045074e-05,0.007431229968372736
1.5110136418586952,0.036025983655989566,0.012202700378674235,0.01161661354179527,-0.0015096578873621902,0.010892981161055726
1.5110851590136218,0.03729532439305516,0.014274264824651791,0.013294021431409462,-0.0017759866458803607,0.01248933830636362
1.5111566761685484,0.03854470610167679,0.013073610665744301,0.013163190298163863,-0.0013542688290324992,0.012170556834941023
1.511228193323475,0.04022460916569971,0.01166265727528613,0.013651672900344249,-0.0029923486836521736,0.013391561295404784
1.5112997104784016,0.04246467581659284,0.01279027036896138,0.01442102957265151,-0.003753223310874642,0.014433211177063792
1.5113712276333282,0.04493429586497486,0.018335949816736405,0.016921655013448497,-0.0024107761378544955,0.0159702010564933
1.5114427447882548,0.04689231770787431,0.024809783664418054,0.019784155718843215,-0.00023807255250793261,0.017421764585254185
1.5115142619431814,0.047454803887083834,0.027798992333612063,0.02007376929597759,0.002389702164761656,0.016402247812160153
