freq,gls,usurper,pdc_unbiased,shape_periodogram,shift_periodogram
1.0,0.02176245538732735,0.0009509261556651951,-0.007335655112181927,0.0033171435129820672,-0.007346051803654654
1.0000470820251304,0.05134779247241603,0.002826757504304895,0.016081221596065367,0.004609514313889136,0.01606687661109065
1.0000941640502607,0.09689124580742478,0.006416893032584532,0.05094334186944231,0.008092064765178916,0.0509195002173104
1.0001412460753911,0.14848755125694818,0.009185646121613154,0.08456655871201842,0.014728347124604023,0.08452959753609471
1.0001883281005215,0.19664060203551523,0.012270800201254383,0.10917973127593883,0.02506556238080552,0.10913594779495979
1.0002354101256519,0.23592916525893703,0.015942990443847806,0.12678225514793529,0.03422659626624344,0.12675004966423292
1.0002824921507822,0.26363730657080775,0.021131016604030703,0.13936052532630389,0.04172694656693229,0.1393519187308837
1.0003295741759126,0.2780607972143743,0.024125622757018364,0.14663287491158739,0.04576880214350882,0.14664373992510424
1.000376656201043,0.27778293516045677,0.025092021309465147,0.14742341655727248,0.048191527165115586,0.14744420336277506
1.0004237382261734,0.2619162710265795,0.025864870671722426,0.139633635428265,0.04833759333746736,0.13964597788761177
1.0004708202513037,0.23107843684954268,0.025719174079768686,0.12167319492364326,0.04708286834299012,0.12166127865900384
1.0005179022764341,0.1884924826566669,0.024580424526958827,0.09811663264576473,0.04548693848789411,0.09807622863829425
1.0005649843015645,0.1401213853463462,0.0248281942676039,0.07552593926328457,0.04478542407615883,0.07546173327610277
1.0006120663266949,0.09311329616242185,0.02588819234593701,0.056936636782797936,0.04443858582242736,0.056853783681821805
1.0006591483518252,0.05338098213176131,0.027597866546864497,0.04656239048066332,0.04394048498134377,0.04646972226023256
1.0007062303769556,0.024158292773911582,0.029680847982957132,0.0379052596807291,0.04129174434894482,0.03780817761795191
1.000753312402086,0.006389706849983347,0.03121604867217861,0.024925530867037873,0.03784295033012467,0.02482472178663383
1.0008003944272164,4.4957735270936574e-05,0.03159008281581659,0.013623927240606612,0.03451882300614249,0.013523795525825257
1.0008474764523467,0.004476680458159687,0.030983580984362023,0.005279248516488982,0.03364962543978133,0.005176729014304428
1.000894558477477,0.016631009383087918,0.034061213949089446,0.00604487589630294,0.03401004296614952,0.005941730483628425
1.0009416405026075,0.030279800796216314,0.03800953976802165,0.01614856324889533,0.03700388353885065,0.0160435752323427
1.0009887225277379,0.04019506929021177,0.042001827869511815,0.031662352407458065,0.03968105140875304,0.03156289077782635
1.0010358045528682,0.045271217739530065,0.04590426977024979,0.049643587368788454,0.0443467893475801,0.04955354225039483
1.0010828865779986,0.04665854735345898,0.051096786705667356,0.06394396252727896,0.04795877237018137,0.0638674982726693
1.001129968603129,0.04557434040645729,0.05249314229811398,0.06951556918541625,0.05133281778895006,0.06944667540156763
1.0011770506282593,0.04281463251624272,0.05091660889461051,0.06676401531502141,0.05274159841437934,0.06669195274682092
1.0012241326533897,0.03911406922799136,0.04986172861098595,0.05756222886158259,0.05156391187358849,0.05747739990877468
1.00127121467852,0.035734840091298535,0.047463375944459575,0.04469056838221148,0.04833395028660618,0.04459137722302104
1.0013182967036505,0.034632288517627896,0.045971785405321416,0.03354469161607427,0.04552744144758628,0.03343675459471171
1.0013653787287808,0.03686446430802818,0.04418523848128557,0.03235087082016887,0.04522018027298705,0.032242199900345866
1.0014124607539112,0.040499198873267514,0.042631093803113196,0.04235422606047071,0.04770621574355372,0.04225297127882244
1.0014595427790416,0.04245011553894062,0.04376460057409387,0.05148956578485458,0.05251850113863373,0.05139615925204318
1.001506624804172,0.04142424671447975,0.0465790014632478,0.057489670337512934,0.0565823238429353,0.05740464694824382
1.0015537068293023,0.03772147907862947,0.04921933689934085,0.05838903434484734,0.05789868747805182,0.05830574556829961
1.0016007888544327,0.032149333674356434,0.04858444791254145,0.05286952532393206,0.055605662520434036,0.05277720253272771
1.001647870879563,0.025799799790141527,0.04398855868165715,0.040386054375886556,0.050287577319267786,0.0402795615654949
1.0016949529046935,0.020580986012262138,0.03861145080966689,0.02276083148008517,0.04272473973207901,0.02264762940576046
1.0017420349298238,0.01993155776046648,0.03460673078922467,0.008396000375120035,0.03759848215656291,0.00828402662208295
1.0017891169549542,0.027489951613850306,0.0323850269019086,0.00883020356959996,0.0393134075614782,0.008713735298720613
1.0018361989800846,0.042074300128446054,0.03232670129995225,0.022145335055818467,0.041761081092091604,0.022033690493317864
1.001883281005215,0.05845891480384451,0.035694362773956614,0.04104344236602053,0.04632872209416192,0.04094233989580304
1.0019303630303453,0.07582159493280267,0.03625485362054808,0.05832937685591873,0.05049562097158572,0.05824573903509766
1.0019774450554757,0.09824195100672209,0.03363450332508276,0.07041397317164165,0.053997438912063905,0.07034782611732923
1.002024527080606,0.1303669711588208,0.02965906081149426,0.07896421651578898,0.052319613497751244,0.07890883627106153
1.0020716091057364,0.17464242099810953,0.027099334081259113,0.08832693698111686,0.05022445776621971,0.08828152904737756
1.0021186911308668,0.22917237164395338,0.025876982738025547,0.11355266104308831,0.04900940640453715,0.11353619218891069
1.0021657731559972,0.2864808872447173,0.026453756649869386,0.14880372324738836,0.04862092527876485,0.14882782493446922
1.0022128551811276,0.335488571803669,0.027381395650682816,0.17945522269565434,0.0486029089456921,0.17951470944525913
1.002259937206258,0.3667004160945303,0.027350149663685736,0.20044309409803335,0.04799322881742681,0.20052253802974734
1.0023070192313883,0.37630521047742305,0.026369428208491755,0.20989430295355302,0.04622339969880105,0.20997250536740028
1.0023541012565187,0.3658732131217113,0.024747381057113996,0.20800353236518512,0.04368155238827854,0.2080644851663629
1.002401183281649,0.3393357840705059,0.021311915374236948,0.19716291122807472,0.04173346163539319,0.1972039038033335
1.0024482653067794,0.30043566038503033,0.017478927221335122,0.1783931936762516,0.03908518294623035,0.1784076713856558
1.0024953473319098,0.25183659939415354,0.016257763562083454,0.15384153094853617,0.033125848432381755,0.15382308959196916
1.0025424293570402,0.1956066522565673,0.01489176906717208,0.12081929242955049,0.02488975105569722,0.1207792964150758
1.0025895113821706,0.13475970805500284,0.013327565406150831,0.07564140824241966,0.013513521789762466,0.07560592605788154
1.002636593407301,0.07582916802294695,0.011919542047018929,0.025728531183742454,0.0029351324541909743,0.025719328600228266
1.0026836754324313,0.03145358980808763,0.006080141590123359,-0.0040036080406334615,0.002449503791968528,-0.004011274911527964
1.0027307574575617,0.01779891286180085,0.0018923614433467776,-0.006351274616742859,0.014936758809203284,-0.006398753570809597
1.002777839482692,0.04358985242398123,0.010589366943392275,0.006591376950054447,0.029651758072842,0.0065013056108343134
1.0028249215078224,0.1037077589167159,0.022144874928271746,0.04281328660270074,0.04440804512745475,0.0427163846879611
1.0028720035329528,0.18101238562213362,0.0340567592225939,0.0979436666785688,0.04663011007584476,0.0979046644698724
1.0029190855580832,0.25636899888384335,0.03974162486688564,0.15380629462607742,0.04753960466052778,0.15383167784303697
1.0029661675832136,0.31832235074100634,0.03923739404222378,0.19704252226634572,0.051178428842607024,0.1971388070521831
1.003013249608344,0.36361141655314383,0.0410501599789274,0.228525784613192,0.049949408629591366,0.22865083099562783
1.0030603316334743,0.39341420767750745,0.041568894567641894,0.24979870354304085,0.04665250780375542,0.2499199905879371
1.0031074136586047,0.4102870696014962,0.0412651086948,0.26258314989231946,0.04457958404315657,0.2626996304132194
1.003154495683735,0.41662904201390033,0.04013740679536925,0.266777273312063,0.04198914147355425,0.26687690860621033
1.0032015777088654,0.41405085665469693,0.0386994181953665,0.26326150551395927,0.038933426611445526,0.2633366014624153
1.0032486597339958,0.4030953535584088,0.03676914626779659,0.251751202986526,0.03531410607609016,0.25179685354768616
1.0032957417591262,0.38301151602067063,0.0344850810204362,0.2324239377319079,0.03123288104334354,0.2324400964374009
1.0033428237842565,0.3514583105172215,0.0317422674251634,0.2047530276495091,0.026646456245618087,0.2047434243044375
1.003389905809387,0.3042863356687068,0.028416431871139652,0.16911475512504195,0.021786379747603654,0.16908758099322563
1.0034369878345173,0.2364892670841809,0.02495540729496293,0.12615890065588273,0.016835898458931915,0.1261243874018219
1.0034840698596477,0.14805992805189566,0.021923276435765554,0.07745804013496241,0.012167081370773917,0.07742558009582845
1.003531151884778,0.05937981673678241,0.020797175918229792,0.035632586371168055,0.009467782942740184,0.0356043978870087
1.0035782339099084,0.016571701488668728,0.0233544584114558,0.012038086514572617,0.009042832715622631,0.01201019198499582
1.0036253159350388,0.04141534161646615,0.029963777346988348,0.014399178728297872,0.01429908644555238,0.014355788108098776
1.0036723979601692,0.0978579156313711,0.039102812770103225,0.03595348541122598,0.02716501846696912,0.03588158616756064
1.0037194799852995,0.14599333246590304,0.051433171916890855,0.06503465797160808,0.040669923455514574,0.06496124099740389
1.00376656201043,0.17300879075255565,0.06193911382425713,0.0922030709843016,0.05088601913855355,0.09216360255064414
1.0038136440355603,0.18229222765708752,0.06682621175417422,0.11374971918924169,0.05737327532509265,0.11375784421434884
1.0038607260606907,0.18262972424027749,0.06588876382653892,0.12736778710133306,0.060580373068207655,0.12741218411055685
1.003907808085821,0.18292620727983336,0.06716680239962958,0.13485525602086357,0.05890987310741186,0.1349050736592097
1.0039548901109514,0.18798821740501145,0.0677829208073169,0.13913083302593265,0.05774228734970926,0.13918220372859164
1.0040019721360818,0.19658928748535154,0.0645710968185575,0.1397247738744464,0.05552301475633344,0.13976660330577845
1.0040490541612122,0.20361099360789395,0.0606142343276254,0.1356935801867525,0.05589154768151771,0.1357308863308205
1.0040961361863425,0.20356945018764083,0.055539610884094974,0.1287855413388881,0.05316211977348774,0.12880159971046287
1.004143218211473,0.19261735903368254,0.05123277999623715,0.11776025800915435,0.049000683323935555,0.117748828422025
1.0041903002366033,0.1692114287165738,0.04531424416330752,0.09836742477706704,0.043816112965327725,0.09832516755761266
1.0042373822617336,0.13469585530973552,0.038760258742826445,0.07519967777083232,0.037365945332083164,0.07513540257952897
1.004284464286864,0.094068350002802,0.03223827646168686,0.051842634052145065,0.03046013494487078,0.051771286206853784
1.0043315463119944,0.0558705414627791,0.025474420127683462,0.03082107495389939,0.022960422109605236,0.030757188223173654
1.0043786283371248,0.029785725493520713,0.021128314530400243,0.019809015244991575,0.016447094316543544,0.01976008878023797
1.0044257103622551,0.022326134922130727,0.01878784826180301,0.01684685304795892,0.011796913189073449,0.016810994013965824
1.0044727923873855,0.03362727707623793,0.01811761843027722,0.01768087969631584,0.009536847692346523,0.01765172900677918
1.004519874412516,0.057935866130881315,0.019694570267810324,0.0238553638180855,0.00999920862637516,0.02382513485928349
1.0045669564376463,0.08691312585069338,0.0224511983630058,0.038233159934289905,0.013823910708696348,0.03819339917243578
1.0046140384627766,0.11302745450084833,0.02545652593183568,0.05542672474865837,0.02191432537139988,0.055371364889709354
1.004661120487907,0.13143773576861661,0.027629731513526306,0.07126698378066398,0.031769486321432505,0.07120361327098892
1.0047082025130374,0.140315951549541,0.03137958394139914,0.0817840112464661,0.040983254482049224,0.08172469412629414
1.0047552845381678,0.14016084842095028,0.031585935583959404,0.0846685751900148,0.04786168591876963,0.08461609056423412
1.0048023665632981,0.13271042804166153,0.030350333366828602,0.08028160564993014,0.05372011894734089,0.08022962686081492
1.0048494485884285,0.1199532079956697,0.026566631633597737,0.06958311394397716,0.05715449746030599,0.06951808607124599
1.0048965306135589,0.10352759540252561,0.024755035704504744,0.05738407400153901,0.057078406608900636,0.05729894629049291
1.0049436126386893,0.08458770500586026,0.024558621679733182,0.04469505929439128,0.05444044023607489,0.04459077502971697
1.0049906946638196,0.06411017510052013,0.02211448586072449,0.03435472552873721,0.05115062115248991,0.03423934521357024
1.00503777668895,0.043500849939608656,0.018932161303477083,0.022887706523455283,0.0473864605200009,0.02276480110068194
1.0050848587140804,0.02497562650004661,0.014199846504161716,0.013888116903115118,0.042649159764952684,0.013766984710804033
1.0051319407392107,0.011013597455985432,0.008297375448419513,0.011624969459267675,0.03873935449871645,0.011512200885017587
1.0051790227643411,0.003334338693202587,0.003679643531968266,0.009001101837417943,0.03309760059697734,0.008902247175093069
1.0052261047894715,0.0027948227754708652,0.0011611933220708576,0.005716764128480125,0.02243354690214696,0.005647873033766883
1.0052731868146019,0.010164673003053454,0.002051443098525713,0.005314070387151807,0.011674212863814688,0.005277828388563792
1.0053202688397322,0.026566180290056158,0.00308817918943743,0.008193549268036414,0.004297073162683655,0.008180122532952456
1.0053673508648626,0.05291846997433676,0.0035593442160219636,0.011498759854167706,0.00022915863562512806,0.011497985876754466
1.005414432889993,0.08828034555015178,0.002288512690884216,0.017065936640710815,-0.0036879103674096005,0.017077518739568854
1.0054615149151234,0.12763762777320273,0.0019969265228496876,0.025647230237824777,-0.006796700101076984,0.025668971025729452
1.0055085969402537,0.16155770115500132,0.003964766091922446,0.038076850744054896,-0.005865288279254168,0.03809565533342819
1.0055556789653841,0.18078890709766565,0.006164528486156507,0.05135766337998839,-0.000687801782494415,0.05135957054863294
1.0056027609905145,0.18307418566708303,0.006528731456976603,0.06056084021799014,0.005213086004282564,0.06054512008808155
1.0056498430156449,0.1741533504439713,0.00826110068176807,0.06655908741414072,0.012027629963494381,0.06652611859052082
1.0056969250407752,0.16242605985016223,0.010075269908827187,0.07063087442771013,0.01836149838743339,0.070585270134714
1.0057440070659056,0.15418810481596457,0.009784814022253261,0.07107575192890922,0.0242101103007105,0.07102083607691696
1.005791089091036,0.1523552110015489,0.00823382902851225,0.0660360559428213,0.027757378751761135,0.06597464271101086
1.0058381711161664,0.15691036178882456,0.007764942666676462,0.06130313889977103,0.02868665291301248,0.0612385729528229
1.0058852531412967,0.16538784679386007,0.00854211815231153,0.06307528196508604,0.02665384795510923,0.06301425886681103
1.005932335166427,0.17322460684996496,0.010979920723625908,0.06323184659303546,0.023608280548353056,0.06317554942813895
1.0059794171915575,0.17475929729964576,0.00982764727971372,0.05880087400333982,0.020822209884163518,0.05874837791586146
1.0060264992166879,0.16548577922015562,0.008004211198423214,0.05204155960234529,0.018598159320878455,0.05199223856944105
1.0060735812418182,0.1445721481217929,0.00639498204323353,0.04234591607178599,0.016910412036103117,0.04229890549264069
1.0061206632669486,0.11538472372115638,0.004772082162473754,0.03266210113426135,0.017699831830454572,0.03261167658336534
1.006167745292079,0.08342022676517998,0.00478344572555579,0.0259645785337829,0.018805997032362506,0.025910167625982302
1.0062148273172093,0.053714935068683495,0.0060989901982787635,0.01794830890199036,0.019474047739016023,0.017890626666575697
1.0062619093423397,0.029620632829972474,0.008377939009532674,0.006428025048282717,0.02324347917198633,0.006356889907453301
1.00630899136747,0.012907514843990737,0.009914169118744948,-0.004503164505502606,0.023448093319615587,-0.004577865251977368
1.0063560733926005,0.004292560353454192,0.01285802522303103,-0.010519166817943732,0.022692148916430555,-0.010592928682902942
1.0064031554177308,0.0038095921685766332,0.015096269398483277,-0.007972360122875525,0.024017333795811453,-0.00804988566076732
1.0064502374428612,0.010924293923755681,0.018367168285879133,0.0013341291502741227,0.025080114876214053,0.0012559379976725957
1.0064973194679916,0.02453035587728399,0.024064411619498235,0.011333716656649779,0.02739509625526946,0.011252066937169463
1.006544401493122,0.042966387475684646,0.028936688630984263,0.020787738978896356,0.02923537553874855,0.020704943592197787
1.0065914835182523,0.06411092062196938,0.033769943744743694,0.03329944681240632,0.029944334722530216,0.03322049961129469
1.0066385655433827,0.08556714248621351,0.03768173496624043,0.049462130528264495,0.03023574581658204,0.04939002817048392
1.006685647568513,0.10493697207975199,0.0401978304016995,0.06485229624100503,0.03179660808412303,0.06478560326882525
1.0067327295936435,0.12014720761669652,0.039189787698208384,0.07640706666955516,0.03269928564025572,0.0763457258136098
1.0067798116187738,0.12974860817624662,0.03700057672125684,0.08294186479002422,0.02963529953937581,0.08288571923564077
1.0068268936439042,0.1331160769266914,0.0335065510089629,0.08436945777741765,0.025609961189517885,0.08431711962678086
1.0068739756690346,0.13051634907150206,0.03193257730828632,0.08386978816652868,0.0210887720470217,0.08382251101216556
1.006921057694165,0.12301693370584733,0.03000115312275853,0.08185258015702256,0.015049986829129577,0.08181470409104917
1.0069681397192953,0.11219272060745543,0.026072298456391294,0.07585112215539112,0.010518041360304223,0.07582225130037325
1.0070152217444257,0.09964098937742749,0.02098077176144671,0.06985230351433948,0.006729623426919821,0.0698326050570068
1.007062303769556,0.08648287672211809,0.01724146931910678,0.06302251331950957,0.004184999029578944,0.06300972058533148
1.0071093857946865,0.07315337862299943,0.013314365182064537,0.053521194673379444,0.0028059391511974893,0.0535123890839138
1.0071564678198168,0.05967551136841471,0.008988921027181764,0.042771215350936226,0.002883532842119441,0.04276217347526446
1.0072035498449472,0.046352747241279996,0.006944893923770713,0.029687677967592516,0.004054632557011766,0.0296750890903396
1.0072506318700776,0.03458526276589038,0.005163218617098353,0.01916866027493343,0.0049926907314718156,0.0191531705968585
1.007297713895208,0.02727830692374265,0.005077432575192166,0.01473006896934623,0.0061691437660989544,0.014710953968522561
1.0073447959203383,0.0280866607277734,0.0061198597444824965,0.01711698325886342,0.008809872355718259,0.017089971719136662
1.0073918779454687,0.03925806445151868,0.008256099866866056,0.028584290137595406,0.012658390962859568,0.028546823118113625
1.007438959970599,0.059562255279517966,0.01197740844730468,0.043832242766228824,0.016658541366695503,0.04378604866739293
1.0074860419957294,0.08449757331606145,0.015755166355175602,0.058037587268334905,0.02277469878259995,0.05798129498550047
1.0075331240208598,0.10858230355013457,0.0183949068420012,0.06858033205585247,0.028085566612310483,0.06851952246867368
1.0075802060459902,0.12742598805780986,0.018485012159883935,0.07621925524513734,0.03182490793838693,0.07615839121353377
1.0076272880711206,0.13840784538629322,0.018548815180108324,0.07904744927672683,0.035035964722427135,0.07898650781118936
1.007674370096251,0.14057521646913557,0.017250432120471355,0.0769603579802706,0.037908957335888734,0.07689720735666673
1.0077214521213813,0.1345761316442056,0.013911156405957817,0.07084930100861353,0.03944925621459065,0.07078110431855271
1.0077685341465117,0.12269802495893224,0.01190790923029822,0.062425783036096825,0.03696386162416375,0.06235278563228201
