freq,gls,usurper,pdc_unbiased,shape_periodogram,shift_periodogram
1.0,0.02176245538732735,0.03821948426260864,-0.007335655112181927,0.025902049697607548,-0.010308273761014062
1.0000470820251304,0.05134779247241603,0.06813167886445094,0.016081221596065367,0.04859256685613408,0.010320617251363729
1.0000941640502607,0.09689124580742478,0.10233968657546023,0.05094334186944231,0.08028795154713031,0.04140047597130262
1.0001412460753911,0.14848755125694818,0.1380824524421227,0.08456655871201842,0.11590785529424003,0.07108003896895655
1.0001883281005215,0.19664060203551523,0.170237294887678,0.10917973127593883,0.1516019365032526,0.09209045146447538
1.0002354101256519,0.23592916525893703,0.19401756295570224,0.12678225514793529,0.17908779356049787,0.10718689430302157
1.0002824921507822,0.26363730657080775,0.20931203216000321,0.13936052532630389,0.1973475155283974,0.11827499199166205
1.0003295741759126,0.2780607972143743,0.2188056563149181,0.14663287491158739,0.20878191225468704,0.12467451446188729
1.000376656201043,0.27778293516045677,0.22233620086582617,0.14742341655727248,0.21434245944974414,0.12498884274269048
1.0004237382261734,0.2619162710265795,0.21801564380812244,0.139633635428265,0.21373273653532412,0.11705114658678642
1.0004708202513037,0.23107843684954268,0.2054828905664621,0.12167319492364326,0.2054682128581142,0.09943262841375163
1.0005179022764341,0.1884924826566669,0.18848437391081543,0.09811663264576473,0.1933179673706339,0.07660771557822804
1.0005649843015645,0.1401213853463462,0.1762503144603647,0.07552593926328457,0.18456716704179105,0.05456742076930154
1.0006120663266949,0.09311329616242185,0.1698223891660875,0.056936636782797936,0.17940569252372268,0.03629142153235345
1.0006591483518252,0.05338098213176131,0.1697187258624642,0.04656239048066332,0.17622371180299715,0.026152362232106752
1.0007062303769556,0.024158292773911582,0.1692992889453573,0.0379052596807291,0.1714260429841176,0.017952838471984565
1.000753312402086,0.006389706849983347,0.16476663299940705,0.024925530867037873,0.1613986312617084,0.00602717660908038
1.0008003944272164,4.4957735270936574e-05,0.1606181959655548,0.013623927240606612,0.15060628711539453,-0.0040710076767500256
1.0008474764523467,0.004476680458159687,0.15800503103327465,0.005279248516488982,0.14802106681666885,-0.012145103629667024
1.000894558477477,0.016631009383087918,0.1661661578506208,0.00604487589630294,0.15602979462059174,-0.012335527849681423
1.0009416405026075,0.030279800796216314,0.18658163629089508,0.01614856324889533,0.175643384640551,-0.0045050338304986615
1.0009887225277379,0.04019506929021177,0.21495048830530872,0.031662352407458065,0.20458981104451024,0.007776490038346248
1.0010358045528682,0.045271217739530065,0.24229436602238869,0.049643587368788454,0.23694381553521465,0.02237605001563869
1.0010828865779986,0.04665854735345898,0.26281707246775937,0.06394396252727896,0.26450229836650513,0.03399571004532231
1.001129968603129,0.04557434040645729,0.27271347864280276,0.06951556918541625,0.2804369329622802,0.03801624888197044
1.0011770506282593,0.04281463251624272,0.26921289747605903,0.06676401531502141,0.2819769583055129,0.03498476021473684
1.0012241326533897,0.03911406922799136,0.2544097928418977,0.05756222886158259,0.27147418384514227,0.026607828410417644
1.00127121467852,0.035734840091298535,0.23350873824192303,0.04469056838221148,0.25454538816390493,0.015257525827453195
1.0013182967036505,0.034632288517627896,0.21720144940558261,0.03354469161607427,0.2415706038254236,0.0053315209100056864
1.0013653787287808,0.03686446430802818,0.21550059804618038,0.03235087082016887,0.23956120111033036,0.004346858249151663
1.0014124607539112,0.040499198873267514,0.2272762652734879,0.04235422606047071,0.2490247155475639,0.013497232197272117
1.0014595427790416,0.04245011553894062,0.24417004762949923,0.05148956578485458,0.2642040666273967,0.02115399072505527
1.001506624804172,0.04142424671447975,0.2560148381726742,0.057489670337512934,0.27333666907652665,0.02632171534838954
1.0015537068293023,0.03772147907862947,0.2581709501747107,0.05838903434484734,0.27070884628812275,0.027550847715387253
1.0016007888544327,0.032149333674356434,0.24801223320819105,0.05286952532393206,0.2547240423415405,0.023662309551121714
1.001647870879563,0.025799799790141527,0.2250295527410372,0.040386054375886556,0.22559810484791876,0.014209303526150161
1.0016949529046935,0.020580986012262138,0.19339853119645295,0.02276083148008517,0.1899738477118236,0.00047396859567637906
1.0017420349298238,0.01993155776046648,0.16872686757634597,0.008396000375120035,0.16126059604292087,-0.010597995535820378
1.0017891169549542,0.027489951613850306,0.16035786628222695,0.00883020356959996,0.15242934667242708,-0.00910510877230104
1.0018361989800846,0.042074300128446054,0.16424426066422215,0.022145335055818467,0.15986170574552652,0.0034076976603593734
1.001883281005215,0.05845891480384451,0.17939569651287018,0.04104344236602053,0.17875954241299957,0.02028169748506987
1.0019303630303453,0.07582159493280267,0.19597836380938943,0.05832937685591873,0.1990573513011587,0.035514156927270876
1.0019774450554757,0.09824195100672209,0.203777592513353,0.07041397317164165,0.21382344758587657,0.04620176463162326
1.002024527080606,0.1303669711588208,0.1964674202421614,0.07896421651578898,0.21444739474079583,0.054867943413133224
1.0020716091057364,0.17464242099810953,0.18441515126353805,0.08832693698111686,0.20913091568222825,0.06499200437860995
1.0021186911308668,0.22917237164395338,0.18669500642200793,0.11355266104308831,0.21121820905868746,0.09056792345919815
1.0021657731559972,0.2864808872447173,0.20045417473741003,0.14880372324738836,0.22164515141250984,0.1257613980405791
1.0022128551811276,0.335488571803669,0.2148567594668954,0.17945522269565434,0.23304628483396955,0.15641669011761847
1.002259937206258,0.3667004160945303,0.22290917260959608,0.20044309409803335,0.23874793676519687,0.17771606049212532
1.0023070192313883,0.37630521047742305,0.22290229140548698,0.20989430295355302,0.23658971894770267,0.18766211490411272
1.0023541012565187,0.3658732131217113,0.21543629564630504,0.20800353236518512,0.22713618289907186,0.18636119701625575
1.002401183281649,0.3393357840705059,0.20298856848962313,0.19716291122807472,0.2119876826339061,0.17629236304798446
1.0024482653067794,0.30043566038503033,0.1862966373176957,0.1783931936762516,0.18990966746156132,0.15881243968791373
1.0024953473319098,0.25183659939415354,0.16371712985504516,0.15384153094853617,0.15941548398395478,0.1365216989927178
1.0025424293570402,0.1956066522565673,0.1316189091785151,0.12081929242955049,0.12095013534414292,0.10695400093554586
1.0025895113821706,0.13475970805500284,0.09094712528420854,0.07564140824241966,0.07352360317290388,0.06680217724689137
1.002636593407301,0.07582916802294695,0.05289788891403381,0.025728531183742454,0.03106260569820671,0.021945762008867203
1.0026836754324313,0.03145358980808763,0.03383769644144152,-0.0040036080406334615,0.013547800379871498,-0.0055560994790269875
1.0027307574575617,0.01779891286180085,0.03934478958000489,-0.006351274616742859,0.027051260492011328,-0.009464633873769755
1.002777839482692,0.04358985242398123,0.05704606136951503,0.006591376950054447,0.05981079083102592,-0.0004266171672673721
1.0028249215078224,0.1037077589167159,0.09202654900508368,0.04281328660270074,0.10074479217042732,0.030958838006407467
1.0028720035329528,0.18101238562213362,0.13973742918113174,0.0979436666785688,0.14301101001713037,0.08164290621913749
1.0029190855580832,0.25636899888384335,0.18342345065221335,0.15380629462607742,0.17746025973471896,0.13482705020420155
1.0029661675832136,0.31832235074100634,0.2147960238742234,0.19704252226634572,0.19894534869290542,0.1771710523969542
1.003013249608344,0.36361141655314383,0.23349269031420591,0.228525784613192,0.21150917466479346,0.20861306425311144
1.0030603316334743,0.39341420767750745,0.2437312142497143,0.24979870354304085,0.21729804918305434,0.23018687434179894
1.0031074136586047,0.4102870696014962,0.24753025201211912,0.26258314989231946,0.21866662637194476,0.24331774241606594
1.003154495683735,0.41662904201390033,0.24667959507467666,0.266777273312063,0.21606279105113815,0.24779884401277266
1.0032015777088654,0.41405085665469693,0.24153410226506852,0.26326150551395927,0.20955425702327665,0.24454098583453016
1.0032486597339958,0.4030953535584088,0.23191915631855275,0.251751202986526,0.19884151416986534,0.2333432677651859
1.0032957417591262,0.38301151602067063,0.21750072928253963,0.2324239377319079,0.1837793089280195,0.2145414076371032
1.0033428237842565,0.3514583105172215,0.19772783791192566,0.2047530276495091,0.16409471551952204,0.1878184007862052
1.003389905809387,0.3042863356687068,0.17224716962665507,0.16911475512504195,0.1402605142476171,0.15375344038335043
1.0034369878345173,0.2364892670841809,0.14188596309638787,0.12615890065588273,0.11290689289717339,0.11314277683363877
1.0034840698596477,0.14805992805189566,0.10935044988973965,0.07745804013496241,0.08455352245585993,0.06739325770062622
1.003531151884778,0.05937981673678241,0.08707911583852865,0.035632586371168055,0.06542488350196696,0.027834104063360784
1.0035782339099084,0.016571701488668728,0.08710485564040757,0.012038086514572617,0.06603527588276481,0.004268103198279701
1.0036253159350388,0.04141534161646615,0.11566954311635204,0.014399178728297872,0.09347105091408314,0.0034210734910768903
1.0036723979601692,0.0978579156313711,0.16264951132286887,0.03595348541122598,0.13979449499866148,0.019623888809446974
1.0037194799852995,0.14599333246590304,0.21693494465093766,0.06503465797160808,0.19168782622181388,0.043142884282723185
1.00376656201043,0.17300879075255565,0.2608956822467789,0.0922030709843016,0.23679288324113495,0.0661012346502098
1.0038136440355603,0.18229222765708752,0.29033388323211967,0.11374971918924169,0.2666901850843923,0.08541442906346837
1.0038607260606907,0.18262972424027749,0.3055816364407235,0.12736778710133306,0.2852262013115288,0.09790178285972971
1.003907808085821,0.18292620727983336,0.3115706611586144,0.13485525602086357,0.29579372762383377,0.10482442459456529
1.0039548901109514,0.18798821740501145,0.31260889278371795,0.13913083302593265,0.29923668719423013,0.10902781059252076
1.0040019721360818,0.19658928748535154,0.307318956381595,0.1397247738744464,0.2962343760246029,0.10990675544472371
1.0040490541612122,0.20361099360789395,0.2964178418823965,0.1356935801867525,0.28818372393922903,0.10636295149277512
1.0040961361863425,0.20356945018764083,0.27889615501593507,0.1287855413388881,0.27429566245220294,0.10036525580249309
1.004143218211473,0.19261735903368254,0.2553454477399931,0.11776025800915435,0.2550115264820191,0.09068433623191956
1.0041903002366033,0.1692114287165738,0.22385343453002585,0.09836742477706704,0.2273069665476945,0.07340270153303406
1.0042373822617336,0.13469585530973552,0.18794263782669537,0.07519967777083232,0.19375253183732724,0.05324716915117568
1.004284464286864,0.094068350002802,0.1530093740925024,0.051842634052145065,0.15956735307978664,0.03336613202249703
1.0043315463119944,0.0558705414627791,0.12204218016546646,0.03082107495389939,0.1267314331598986,0.015978600763274068
1.0043786283371248,0.029785725493520713,0.10219476883465527,0.019809015244991575,0.10160326731409887,0.007873939258767532
1.0044257103622551,0.022326134922130727,0.09356551669883055,0.01684685304795892,0.08655586510745303,0.006669011522378295
1.0044727923873855,0.03362727707623793,0.09483600388479088,0.01768087969631584,0.0830036669555859,0.007914000341265503
1.004519874412516,0.057935866130881315,0.10440093176040607,0.0238553638180855,0.08952565225412645,0.013315315298080525
1.0045669564376463,0.08691312585069338,0.1226183509510956,0.038233159934289905,0.1073901057165441,0.025621087917768515
1.0046140384627766,0.11302745450084833,0.1462594964296883,0.05542672474865837,0.13467880316984523,0.03976451078149916
1.004661120487907,0.13143773576861661,0.16965530880783752,0.07126698378066398,0.1644059295453116,0.052438200085806796
1.0047082025130374,0.140315951549541,0.18927772308485274,0.0817840112464661,0.19114406202028292,0.06021969464514172
1.0047552845381678,0.14016084842095028,0.19901462737718392,0.0846685751900148,0.2101266536443767,0.06115203371981845
1.0048023665632981,0.13271042804166153,0.1988208118421295,0.08028160564993014,0.2193863457194092,0.055689774524651764
1.0048494485884285,0.1199532079956697,0.1909240650843092,0.06958311394397716,0.22100085850727214,0.044572338453479986
1.0048965306135589,0.10352759540252561,0.17918644908915374,0.05738407400153901,0.21402180450509892,0.032881871971476385
1.0049436126386893,0.08458770500586026,0.16289941857020962,0.04469505929439128,0.1996799973064919,0.021586874344645932
1.0049906946638196,0.06411017510052013,0.14654798947228015,0.03435472552873721,0.1815428821046293,0.013195455450017365
1.00503777668895,0.043500849939608656,0.12820334535360253,0.022887706523455283,0.1605310338025524,0.004076572948653482
1.0050848587140804,0.02497562650004661,0.10776319481852227,0.013888116903115118,0.1361950974810594,-0.0021017410480764676
1.0051319407392107,0.011013597455985432,0.09074635532817008,0.011624969459267675,0.11320079296256917,-0.0016605436403082552
1.0051790227643411,0.003334338693202587,0.07496314768146975,0.009001101837417943,0.08939571178914632,-0.0014871477022810119
1.0052261047894715,0.0027948227754708652,0.05560933826863725,0.005716764128480125,0.06287320437205898,-0.0016548245855044865
1.0052731868146019,0.010164673003053454,0.038723886703348934,0.005314070387151807,0.039264958345135076,0.0007011482894542639
1.0053202688397322,0.026566180290056158,0.027233184112017497,0.008193549268036414,0.021718658287470688,0.005607343993265926
1.0053673508648626,0.05291846997433676,0.021117694234000818,0.011498759854167706,0.011939096609843602,0.010029527777008574
1.005414432889993,0.08828034555015178,0.018978605969941907,0.017065936640710815,0.007872221194967173,0.01603278148770765
1.0054615149151234,0.12763762777320273,0.020912689203499733,0.025647230237824777,0.009602627810853765,0.02435521892030351
1.0055085969402537,0.16155770115500132,0.028075127512666886,0.038076850744054896,0.02025273037078302,0.03546867368196383
1.0055556789653841,0.18078890709766565,0.038208669514596075,0.05135766337998839,0.036307439477189445,0.04682186855893514
1.0056027609905145,0.18307418566708303,0.04635030970703445,0.06056084021799014,0.053467273659442906,0.05402397640604808
1.0056498430156449,0.1741533504439713,0.05353368693132485,0.06655908741414072,0.06805485390181341,0.05835462534166151
1.0056969250407752,0.16242605985016223,0.059306486992486855,0.07063087442771013,0.0807751912879006,0.06099449222898851
1.0057440070659056,0.15418810481596457,0.06198744444023885,0.07107575192890922,0.08968116842014871,0.060448846473951726
1.005791089091036,0.1523552110015489,0.06124560677079422,0.0660360559428213,0.09378642843006567,0.05495556961334599
1.0058381711161664,0.15691036178882456,0.06165761862399604,0.06130313889977103,0.09533800444691738,0.05005134855846111
1.0058852531412967,0.16538784679386007,0.06537426355519961,0.06307528196508604,0.09595547279352229,0.051753909454510506
1.005932335166427,0.17322460684996496,0.06732083662888652,0.06323184659303546,0.09415220309392369,0.05211177754885698
1.0059794171915575,0.17475929729964576,0.06488007733654856,0.05880087400333982,0.08807450946934385,0.04836542301498804
1.0060264992166879,0.16548577922015562,0.05987856796864857,0.05204155960234529,0.07951174056488763,0.04258408671852148
1.0060735812418182,0.1445721481217929,0.05332062231722121,0.04234591607178599,0.06836818946880868,0.034184989702888836
1.0061206632669486,0.11538472372115638,0.047898923368597066,0.03266210113426135,0.057705548371575634,0.02576410269002524
1.006167745292079,0.08342022676517998,0.04495281907398622,0.0259645785337829,0.049202826250953756,0.02008071280365943
1.0062148273172093,0.053714935068683495,0.04548654366062081,0.01794830890199036,0.04409331025010492,0.012699966563126353
1.0062619093423397,0.029620632829972474,0.046304406513090035,0.006428025048282717,0.04126701307396043,0.001574975278245075
1.00630899136747,0.012907514843990737,0.045888718425804956,-0.004503164505502606,0.039222731467611266,-0.009051484305041971
1.0063560733926005,0.004292560353454192,0.04789737675120874,-0.010519166817943732,0.0403270339630068,-0.015159731968619718
1.0064031554177308,0.0038095921685766332,0.05271564981542147,-0.007972360122875525,0.04371072051510915,-0.013025169878267092
1.0064502374428612,0.010924293923755681,0.06555351541212276,0.0013341291502741227,0.05588090743112417,-0.005197323502887163
1.0064973194679916,0.02453035587728399,0.08011655660063394,0.011333716656649779,0.07195571109057332,0.002876385747210404
1.006544401493122,0.042966387475684646,0.09334504000141017,0.020787738978896356,0.0881118272249008,0.010418808196544399
1.0065914835182523,0.06411092062196938,0.1044917867751267,0.03329944681240632,0.10153746848003208,0.02135959140300963
1.0066385655433827,0.08556714248621351,0.11694823575822713,0.049462130528264495,0.11375767824595388,0.03613492320931944
1.006685647568513,0.10493697207975199,0.1261954212019937,0.06485229624100503,0.12311061277465436,0.050514592615397265
1.0067327295936435,0.12014720761669652,0.13062509980848974,0.07640706666955516,0.12797137466893435,0.06158055636624742
1.0067798116187738,0.12974860817624662,0.12918472321667532,0.08294186479002422,0.12677965585628212,0.06827437882029694
1.0068268936439042,0.1331160769266914,0.12424338847726375,0.08436945777741765,0.11981502684815445,0.0704599233885039
1.0068739756690346,0.13051634907150206,0.11533844251075877,0.08386978816652868,0.10986623274680457,0.07103604488412377
1.006921057694165,0.12301693370584733,0.1019208551458617,0.08185258015702256,0.09567107552663777,0.070563519805815
1.0069681397192953,0.11219272060745543,0.08537354551519508,0.07585112215539112,0.07901216224112104,0.06640196523871697
1.0070152217444257,0.09964098937742749,0.068326795054487,0.06985230351433948,0.06197867448990629,0.062319443507903874
1.007062303769556,0.08648287672211809,0.054414353792156506,0.06302251331950957,0.04805071014551323,0.057088786553524715
1.0071093857946865,0.07315337862299943,0.0438264714698893,0.053521194673379444,0.037144864360640614,0.04887770555598363
1.0071564678198168,0.05967551136841471,0.036031338507416015,0.042771215350936226,0.02917665139283234,0.039103972416635206
1.0072035498449472,0.046352747241279996,0.030145973364929513,0.029687677967592516,0.024444565304803493,0.026647145812974508
1.0072506318700776,0.03458526276589038,0.027993071783493174,0.01916866027493343,0.02358939059871793,0.016293907673061547
1.007297713895208,0.02727830692374265,0.030279001321178937,0.01473006896934623,0.02547249004695696,0.011664766111585722
1.0073447959203383,0.0280866607277734,0.038824660623409266,0.01711698325886342,0.03286453154613015,0.013177567075811412
1.0073918779454687,0.03925806445151868,0.056992855233874914,0.028584290137595406,0.04875920259210502,0.022738082077376015
1.007438959970599,0.059562255279517966,0.0797736974684255,0.043832242766228824,0.06820904128027001,0.03568423260008333
1.0074860419957294,0.08449757331606145,0.10155689732786188,0.058037587268334905,0.08891444159536703,0.04750869807685895
1.0075331240208598,0.10858230355013457,0.11915489881748825,0.06858033205585247,0.10714394939571956,0.056018076007031715
1.0075802060459902,0.12742598805780986,0.12965708847052054,0.07621925524513734,0.1186605336840732,0.06240749426896732
1.0076272880711206,0.13840784538629322,0.13221959944746006,0.07904744927672683,0.12284502079531752,0.06478964193980306
1.007674370096251,0.14057521646913557,0.12657969480279066,0.0769603579802706,0.12090350064425086,0.06290624523956534
1.0077214521213813,0.1345761316442056,0.11503402201311085,0.07084930100861353,0.11282532315276092,0.057663623553688675
1.0077685341465117,0.12269802495893224,0.09866337376018704,0.062425783036096825,0.09864125496237103,0.05080463136157737
1.007815616171642,0.10844877640211482,0.08202936570099056,0.054884533548136764,0.08092423005247336,0.045261051203090215
