freq,gls,usurper,pdc_unbiased,shape_periodogram,shift_periodogram
1.0,0.02176245538732735,0.005646700039766166,-0.007335655112181927,0.006693621269876709,-0.0074301662287005275
1.0000470820251304,0.05134779247241603,0.0058616629311833875,0.016081221596065367,0.003971139742630917,0.016023331403577562
1.0000941640502607,0.09689124580742478,0.010922120388972728,0.05094334186944231,0.002445004662291038,0.05090376606024221
1.0001412460753911,0.14848755125694818,0.01651299904444832,0.08456655871201842,0.006534745120395188,0.08446803338947036
1.0001883281005215,0.19664060203551523,0.021906703528068134,0.10917973127593883,0.016158327433584366,0.10895743080479987
1.0002354101256519,0.23592916525893703,0.026882600071729858,0.12678225514793529,0.024689276248594433,0.12646525102778056
1.0002824921507822,0.26363730657080775,0.029699204663861854,0.13936052532630389,0.03016424946260903,0.13899261773839489
1.0003295741759126,0.2780607972143743,0.031427582473919226,0.14663287491158739,0.0328846889601008,0.14624356240777892
1.000376656201043,0.27778293516045677,0.03150118141246893,0.14742341655727248,0.035135554495673495,0.14701465153474463
1.0004237382261734,0.2619162710265795,0.029637355078352457,0.139633635428265,0.0362473207136935,0.13920951320325722
1.0004708202513037,0.23107843684954268,0.025949523733479682,0.12167319492364326,0.03560933606187747,0.12124212389176404
1.0005179022764341,0.1884924826566669,0.021292477414098294,0.09811663264576473,0.035057052800157126,0.09767539436962669
1.0005649843015645,0.1401213853463462,0.017722177364469023,0.07552593926328457,0.03451461889661897,0.0750766711546413
1.0006120663266949,0.09311329616242185,0.015515545087434171,0.056936636782797936,0.03340554160203548,0.05649004893292452
1.0006591483518252,0.05338098213176131,0.01566701724832748,0.04656239048066332,0.0306949634321938,0.04614473589573842
1.0007062303769556,0.024158292773911582,0.015939890892451708,0.0379052596807291,0.025478280102587913,0.037552429089085355
1.000753312402086,0.006389706849983347,0.01742745168497767,0.024925530867037873,0.019804564092157008,0.02464675435712619
1.0008003944272164,4.4957735270936574e-05,0.01974014887123268,0.013623927240606612,0.014690488621238465,0.013415357308005698
1.0008474764523467,0.004476680458159687,0.019600623615601182,0.005279248516488982,0.013716636550321947,0.005084337004507958
1.000894558477477,0.016631009383087918,0.02241902183526219,0.00604487589630294,0.015780354802519166,0.005820819433293954
1.0009416405026075,0.030279800796216314,0.02638031607691376,0.01614856324889533,0.02083665874234293,0.015854473644940404
1.0009887225277379,0.04019506929021177,0.031765271220677294,0.031662352407458065,0.027419221878144762,0.03128195826772999
1.0010358045528682,0.045271217739530065,0.0351474619786591,0.049643587368788454,0.03609226843965137,0.04915967286959921
1.0010828865779986,0.04665854735345898,0.039659735768212676,0.06394396252727896,0.04380625541955764,0.06337957684170148
1.001129968603129,0.04557434040645729,0.04379693205363327,0.06951556918541625,0.05010580015076982,0.06888798108853357
1.0011770506282593,0.04281463251624272,0.04646494994424487,0.06676401531502141,0.052319024595572555,0.0661090944331504
1.0012241326533897,0.03911406922799136,0.04412159148284898,0.05756222886158259,0.050732602339909456,0.056912292826762904
1.00127121467852,0.035734840091298535,0.037598874659599296,0.04469056838221148,0.047824449382177066,0.044058970837537195
1.0013182967036505,0.034632288517627896,0.03243838985660516,0.03354469161607427,0.04517663016567122,0.03293416105744409
1.0013653787287808,0.03686446430802818,0.029653648728737273,0.03235087082016887,0.0433503613842738,0.031762531088413336
1.0014124607539112,0.040499198873267514,0.029651539237686854,0.04235422606047071,0.04304429713267432,0.041778727498639534
1.0014595427790416,0.04245011553894062,0.03202841924763162,0.05148956578485458,0.044728743236013,0.05090225272331358
1.001506624804172,0.04142424671447975,0.03221192569930568,0.057489670337512934,0.04435978155538862,0.056912621716405855
1.0015537068293023,0.03772147907862947,0.03192715803672521,0.05838903434484734,0.04076670985162476,0.05785487510773949
1.0016007888544327,0.032149333674356434,0.02980420877283122,0.05286952532393206,0.03477618283858928,0.052403819314113746
1.001647870879563,0.025799799790141527,0.025918619730242305,0.040386054375886556,0.02623377064050468,0.040023951898084255
1.0016949529046935,0.020580986012262138,0.019501663435200406,0.02276083148008517,0.016975452421309788,0.02252080336142434
1.0017420349298238,0.01993155776046648,0.016412230872163265,0.008396000375120035,0.010652287746329994,0.008244305221031686
1.0017891169549542,0.027489951613850306,0.017026930422402085,0.00883020356959996,0.012586204130180481,0.00865121274630347
1.0018361989800846,0.042074300128446054,0.018599799343125088,0.022145335055818467,0.017561707548127508,0.02189716827427629
1.001883281005215,0.05845891480384451,0.024023108941211884,0.04104344236602053,0.026372093035279605,0.04067971583564688
1.0019303630303453,0.07582159493280267,0.025934973578071573,0.05832937685591873,0.03587887733522697,0.05785349916036314
1.0019774450554757,0.09824195100672209,0.024490797942941005,0.07041397317164165,0.04497329755378312,0.06984301686324755
1.002024527080606,0.1303669711588208,0.02009098165805465,0.07896421651578898,0.048689780047165954,0.07836336327747066
1.0020716091057364,0.17464242099810953,0.016608480845505848,0.08832693698111686,0.05123014246957351,0.08771301725020235
1.0021186911308668,0.22917237164395338,0.01737547228537204,0.11355266104308831,0.05263100568393657,0.11296253736094211
1.0021657731559972,0.2864808872447173,0.02105148477531013,0.14880372324738836,0.0545876081723507,0.148255225659478
1.0022128551811276,0.335488571803669,0.024874965727103408,0.17945522269565434,0.056977584430380965,0.17894827994301923
1.002259937206258,0.3667004160945303,0.027217777560415678,0.20044309409803335,0.05838684453278567,0.1999710272262079
1.0023070192313883,0.37630521047742305,0.028178490272782054,0.20989430295355302,0.0582183122263084,0.209440512808538
1.0023541012565187,0.3658732131217113,0.028366116968513832,0.20800353236518512,0.05659398872019622,0.20754921210777771
1.002401183281649,0.3393357840705059,0.02986887411245055,0.19716291122807472,0.0533601084768195,0.19669874357704772
1.0024482653067794,0.30043566038503033,0.029813295427597107,0.1783931936762516,0.04604328474901744,0.17793525766444168
1.0024953473319098,0.25183659939415354,0.025472168158107506,0.15384153094853617,0.03435356851444879,0.15344393848378132
1.0025424293570402,0.1956066522565673,0.017974475157213326,0.12081929242955049,0.019628613050081203,0.12055738208732014
1.0025895113821706,0.13475970805500284,0.012952397185359541,0.07564140824241966,0.0036153009434777886,0.07558338868400617
1.002636593407301,0.07582916802294695,0.009865036033958887,0.025728531183742454,-0.007752611534591441,0.025836739802155305
1.0026836754324313,0.03145358980808763,0.00867629768064684,-0.0040036080406334615,-0.005904706222725237,-0.0039193893123452275
1.0027307574575617,0.01779891286180085,0.01030351682797351,-0.006351274616742859,0.00933563612482752,-0.0064835344159359055
1.002777839482692,0.04358985242398123,0.009397467320751035,0.006591376950054447,0.0287911406495785,0.006184280093449615
1.0028249215078224,0.1037077589167159,0.017013824405616794,0.04281328660270074,0.044652935122621154,0.04221836628567319
1.0028720035329528,0.18101238562213362,0.031443335469145905,0.0979436666785688,0.04676795599536539,0.09738449315416345
1.0029190855580832,0.25636899888384335,0.04455235047730416,0.15380629462607742,0.04890659299836543,0.15329988913665266
1.0029661675832136,0.31832235074100634,0.047828773744189,0.19704252226634572,0.052256206665265516,0.1965819160167343
1.003013249608344,0.36361141655314383,0.05042034214046105,0.228525784613192,0.05045318826064502,0.2281178392836032
1.0030603316334743,0.39341420767750745,0.05124476499697591,0.24979870354304085,0.04612687087349276,0.24942898536258581
1.0031074136586047,0.4102870696014962,0.05041746737205855,0.26258314989231946,0.04326026555539925,0.26223485039915034
1.003154495683735,0.41662904201390033,0.048801443308820365,0.266777273312063,0.040075928885466836,0.2664413622583192
1.0032015777088654,0.41405085665469693,0.04616675112920298,0.26326150551395927,0.0362887478849199,0.26293502004674346
1.0032486597339958,0.4030953535584088,0.04241043722584897,0.251751202986526,0.03148400190538859,0.2514386714593196
1.0032957417591262,0.38301151602067063,0.03769091097728992,0.2324239377319079,0.02608155714395808,0.23213550401833438
1.0033428237842565,0.3514583105172215,0.03199598642295657,0.2047530276495091,0.019937617848265993,0.20450653658377207
1.003389905809387,0.3042863356687068,0.024810169542651413,0.16911475512504195,0.013241549309360293,0.16893245132375603
1.0034369878345173,0.2364892670841809,0.016910709003544355,0.12615890065588273,0.0061887113462318726,0.1260629165565592
1.0034840698596477,0.14805992805189566,0.00950920633938144,0.07745804013496241,-0.00043884250719536134,0.07745645599841326
1.003531151884778,0.05937981673678241,0.005745044639385795,0.035632586371168055,-0.005403179853667787,0.035706129209656975
1.0035782339099084,0.016571701488668728,0.007612358083992384,0.012038086514572617,-0.007276841185019267,0.012140548767157982
1.0036253159350388,0.04141534161646615,0.016224438415151185,0.014399178728297872,-0.004265135424123692,0.014458430969733847
1.0036723979601692,0.0978579156313711,0.028719860448731642,0.03595348541122598,0.005862497360094869,0.0358673530253941
1.0037194799852995,0.14599333246590304,0.04378014368824381,0.06503465797160808,0.016181625835110514,0.06480814019434102
1.00376656201043,0.17300879075255565,0.05391044282358896,0.0922030709843016,0.025105544807689787,0.09187041720691724
1.0038136440355603,0.18229222765708752,0.06095431159113691,0.11374971918924169,0.031432629843242015,0.11335573869914993
1.0038607260606907,0.18262972424027749,0.06468392884217014,0.12736778710133306,0.03484766062952262,0.12694789221430505
1.003907808085821,0.18292620727983336,0.0680775483045926,0.13485525602086357,0.03708605399893752,0.1344200840667322
1.0039548901109514,0.18798821740501145,0.06919365739041344,0.13913083302593265,0.040957592327498495,0.13866606542437998
1.0040019721360818,0.19658928748535154,0.06510784722827499,0.1397247738744464,0.04417338182510365,0.13923488449519858
1.0040490541612122,0.20361099360789395,0.05752735151197066,0.1356935801867525,0.04660769608300564,0.13518034572007614
1.0040961361863425,0.20356945018764083,0.04876973950094321,0.1287855413388881,0.04549788861339321,0.12827298142646695
1.004143218211473,0.19261735903368254,0.04085712764573415,0.11776025800915435,0.04419126483320132,0.1172466478951945
1.0041903002366033,0.1692114287165738,0.031600066741689546,0.09836742477706704,0.040519243766893615,0.09786984967197067
1.0042373822617336,0.13469585530973552,0.02202956765359678,0.07519967777083232,0.03314449717183364,0.07476607787712641
1.004284464286864,0.094068350002802,0.01168531385342869,0.051842634052145065,0.024463796655021255,0.05150663702205942
1.0043315463119944,0.0558705414627791,0.002392160083764819,0.03082107495389939,0.014712475823168135,0.030612561172853808
1.0043786283371248,0.029785725493520713,-0.002992552732954344,0.019809015244991575,0.004728723009744311,0.019740098539041274
1.0044257103622551,0.022326134922130727,-0.004668845849334278,0.01684685304795892,-0.002921345646389701,0.016886709723156933
1.0044727923873855,0.03362727707623793,-0.0037948246747825996,0.01768087969631584,-0.006590271402727402,0.01777306213121716
1.004519874412516,0.057935866130881315,-0.000693958921498188,0.0238553638180855,-0.0054423794083967745,0.023930562766166192
1.0045669564376463,0.08691312585069338,0.00412214138844093,0.038233159934289905,0.00020448460982729058,0.03822640936101937
1.0046140384627766,0.11302745450084833,0.009469441532732294,0.05542672474865837,0.010555673414275237,0.05527494824819693
1.004661120487907,0.13143773576861661,0.015026662983099006,0.07126698378066398,0.022498600448559388,0.07096049486358107
1.0047082025130374,0.140315951549541,0.020814945655714474,0.0817840112464661,0.033682835431093995,0.0813479171320377
1.0047552845381678,0.14016084842095028,0.023004780650323624,0.0846685751900148,0.04254092793951505,0.08413780527066615
1.0048023665632981,0.13271042804166153,0.023748464916737492,0.08028160564993014,0.049041716347909804,0.07967877989597974
1.0048494485884285,0.1199532079956697,0.021445984384862855,0.06958311394397716,0.053849312614491676,0.06891612374109449
1.0048965306135589,0.10352759540252561,0.02104429307360912,0.05738407400153901,0.05590708260519693,0.05667628438955335
1.0049436126386893,0.08458770500586026,0.018893438754002206,0.04469505929439128,0.053871194187455715,0.0439912479895674
1.0049906946638196,0.06411017510052013,0.016818843811732737,0.03435472552873721,0.04835655618299741,0.03370486376091875
1.00503777668895,0.043500849939608656,0.012177464842408841,0.022887706523455283,0.04303320744516585,0.02229515877135166
1.0050848587140804,0.02497562650004661,0.007517160694717953,0.013888116903115118,0.03736861787911824,0.013365320774788067
1.0051319407392107,0.011013597455985432,0.004053169232751759,0.011624969459267675,0.02954367607752726,0.011209059533021527
1.0051790227643411,0.003334338693202587,0.0025705017462380616,0.009001101837417943,0.019621765922863174,0.008723149746346068
1.0052261047894715,0.0027948227754708652,-0.002426431565029128,0.005716764128480125,0.008450751054550081,0.005596337519691969
1.0052731868146019,0.010164673003053454,-0.005333880942588724,0.005314070387151807,-0.00017514890674135095,0.005316022345632869
1.0053202688397322,0.026566180290056158,-0.006878135606292404,0.008193549268036414,-0.004489954674893103,0.008256585587953074
1.0053673508648626,0.05291846997433676,-0.007278763604893924,0.011498759854167706,-0.005668946209536985,0.011578305215757588
1.005414432889993,0.08828034555015178,-0.006806647255244727,0.017065936640710815,-0.0038610655542894723,0.017119170527784725
1.0054615149151234,0.12763762777320273,-0.005212607517210247,0.025647230237824777,0.0009561476674216423,0.025631085321114126
1.0055085969402537,0.16155770115500132,-0.003459065218337019,0.038076850744054896,0.008680465236291507,0.037951389958408195
1.0055556789653841,0.18078890709766565,-0.0008572111520501249,0.05135766337998839,0.0179283585162491,0.05110699022406434
1.0056027609905145,0.18307418566708303,-0.00011158579685602784,0.06056084021799014,0.027333994060401146,0.06019096045821681
1.0056498430156449,0.1741533504439713,0.0020154433561928617,0.06655908741414072,0.03576028990387552,0.06608980577904529
1.0056969250407752,0.16242605985016223,0.0030514139521593394,0.07063087442771013,0.04258032235192446,0.07008660152257579
1.0057440070659056,0.15418810481596457,0.0025717115206498045,0.07107575192890922,0.04583483631003425,0.07049606827981482
1.005791089091036,0.1523552110015489,0.0004777288846933747,0.0660360559428213,0.04630165756491951,0.06544578295475062
1.0058381711161664,0.15691036178882456,0.0002607941017466065,0.06130313889977103,0.04477446810381081,0.060725109234097095
1.0058852531412967,0.16538784679386007,0.00197440309918024,0.06307528196508604,0.041426219375934686,0.06253737184694896
1.005932335166427,0.17322460684996496,0.00421671881739719,0.06323184659303546,0.035335409381657204,0.06276552526764158
1.0059794171915575,0.17475929729964576,0.004250561130528406,0.05880087400333982,0.028129418381197466,0.058420436023070656
1.0060264992166879,0.16548577922015562,0.00321494876598774,0.05204155960234529,0.0216762977375078,0.051741745582340765
1.0060735812418182,0.1445721481217929,0.0010279554688620424,0.04234591607178599,0.016278179381821026,0.04211658364809343
1.0061206632669486,0.11538472372115638,-0.0018902278228517327,0.03266210113426135,0.012612588454855682,0.03248249421290909
1.006167745292079,0.08342022676517998,-0.002339218369377605,0.0259645785337829,0.0097396494265381,0.025824957271011587
1.0062148273172093,0.053714935068683495,-0.0007830832157829276,0.01794830890199036,0.009089710506623066,0.01781816335082951
1.0062619093423397,0.029620632829972474,0.0017916863563437076,0.006428025048282717,0.009603940128943842,0.006291236748118328
1.00630899136747,0.012907514843990737,0.003993650206587607,-0.004503164505502606,0.010081821648833712,-0.004646168747329785
1.0063560733926005,0.004292560353454192,0.007361629699075205,-0.010519166817943732,0.011192087081086816,-0.010677747289598066
1.0064031554177308,0.0038095921685766332,0.010435287411132893,-0.007972360122875525,0.012144861902706767,-0.008144675023298896
1.0064502374428612,0.010924293923755681,0.01459042880157839,0.0013341291502741227,0.014487076097014377,0.0011283032499260993
1.0064973194679916,0.02453035587728399,0.01751555092378626,0.011333716656649779,0.017619253806219766,0.011084033261807487
1.006544401493122,0.042966387475684646,0.01874687303806609,0.020787738978896356,0.01991985520611116,0.020506899484349052
1.0065914835182523,0.06411092062196938,0.01915999669857682,0.03329944681240632,0.02153180912734499,0.032998344941633735
1.0066385655433827,0.08556714248621351,0.022107557750015057,0.049462130528264495,0.02295780487250098,0.049145111663329716
1.006685647568513,0.10493697207975199,0.02362380016227862,0.06485229624100503,0.02335438881104202,0.06453360399611789
1.0067327295936435,0.12014720761669652,0.02337091474267812,0.07640706666955516,0.022829503386406273,0.07609761619485415
1.0067798116187738,0.12974860817624662,0.020619321359388123,0.08294186479002422,0.021017881278322346,0.0826561606867506
1.0068268936439042,0.1331160769266914,0.01834500577884978,0.08436945777741765,0.01738601196630684,0.08412926069757416
1.0068739756690346,0.13051634907150206,0.015896641625997413,0.08386978816652868,0.014194865290286759,0.08367021443871868
1.006921057694165,0.12301693370584733,0.01251055251356061,0.08185258015702256,0.00877052440905674,0.08172414725028093
1.0069681397192953,0.11219272060745543,0.008076100369648656,0.07585112215539112,0.0035394150075448334,0.07579413392717563
1.0070152217444257,0.09964098937742749,0.003208768346357671,0.06985230351433948,-0.0009956491579461734,0.0698593643397091
1.007062303769556,0.08648287672211809,-0.0005154737824634278,0.06302251331950957,-0.0038705120252451345,0.06307130789944992
1.0071093857946865,0.07315337862299943,-0.003918458929123852,0.053521194673379444,-0.005078613585317776,0.053588337059009235
1.0071564678198168,0.05967551136841471,-0.007798103797655406,0.042771215350936226,-0.00585524843700947,0.042850593940293176
1.0072035498449472,0.046352747241279996,-0.009383241395308087,0.029687677967592516,-0.005155219554579711,0.02975822012905485
1.0072506318700776,0.03458526276589038,-0.010038138436886524,0.01916866027493343,-0.004023479218234646,0.01922400991807766
1.007297713895208,0.02727830692374265,-0.00991589685538729,0.01473006896934623,-0.0025282653488000167,0.014764535954906325
1.0073447959203383,0.0280866607277734,-0.008718880659787407,0.01711698325886342,-0.00011111000506349663,0.01711683426415301
1.0073918779454687,0.03925806445151868,-0.004770765926831879,0.028584290137595406,0.003421117342474211,0.028533032153074574
1.007438959970599,0.059562255279517966,0.0016704512505399413,0.043832242766228824,0.0066255413434583394,0.043734930930327695
1.0074860419957294,0.08449757331606145,0.007336182083180598,0.058037587268334905,0.010720191947772207,0.0578835356751929
1.0075331240208598,0.10858230355013457,0.011256390192048358,0.06858033205585247,0.013607722598939793,0.06838778657285781
1.0075802060459902,0.12742598805780986,0.013460995288843479,0.07621925524513734,0.015938741413588385,0.07599673714441835
1.0076272880711206,0.13840784538629322,0.015399306508982701,0.07904744927672683,0.01778186833379631,0.07880164244949468
1.007674370096251,0.14057521646913557,0.015711353712946494,0.0769603579802706,0.019269044773491943,0.07669546772400791
1.0077214521213813,0.1345761316442056,0.013219289985534975,0.07084930100861353,0.019105104438277273,0.07058562295149733
