freq,gls,usurper,pdc_unbiased,shape_periodogram,shift_periodogram
1.0,0.02176245538732735,0.027311277579288598,-0.007335655112181927,0.010713118015711478,-0.007790331816933321
1.0000470820251304,0.05134779247241603,0.04283337184381173,0.016081221596065367,0.018496479300503348,0.015273189057213405
1.0000941640502607,0.09689124580742478,0.06027405552029796,0.05094334186944231,0.0344607944247646,0.04944804877370795
1.0001412460753911,0.14848755125694818,0.07899668670728409,0.08456655871201842,0.0543248936870393,0.08229577380153874
1.0001883281005215,0.19664060203551523,0.09695234410490348,0.10917973127593883,0.07682137085730721,0.10614082117140483
1.0002354101256519,0.23592916525893703,0.11034648625269211,0.12678225514793529,0.09465310877973172,0.12323259084781235
1.0002824921507822,0.26363730657080775,0.11808902589555627,0.13936052532630389,0.10618615083323026,0.13554438287244755
1.0003295741759126,0.2780607972143743,0.12322668776061484,0.14663287491158739,0.11377459994272116,0.14266284531355733
1.000376656201043,0.27778293516045677,0.12517977903227606,0.14742341655727248,0.11785776316773057,0.14335505451539318
1.0004237382261734,0.2619162710265795,0.12207633923202578,0.139633635428265,0.11877660573815745,0.1354798763644586
1.0004708202513037,0.23107843684954268,0.1142515855761597,0.12167319492364326,0.11534233215183393,0.11747675081561265
1.0005179022764341,0.1884924826566669,0.1035381307291606,0.09811663264576473,0.10930860893756801,0.09394473734646289
1.0005649843015645,0.1401213853463462,0.0946112277052596,0.07552593926328457,0.10298188345451614,0.07143781618793477
1.0006120663266949,0.09311329616242185,0.08739580232361326,0.056936636782797936,0.09533136926863016,0.053040629314740066
1.0006591483518252,0.05338098213176131,0.08263980981632403,0.04656239048066332,0.08488601256753411,0.04303204160130685
1.0007062303769556,0.024158292773911582,0.07618967698479773,0.0379052596807291,0.07106175748291955,0.0349060695961574
1.000753312402086,0.006389706849983347,0.06827924336657257,0.024925530867037873,0.05445455167888688,0.022594352312770873
1.0008003944272164,4.4957735270936574e-05,0.06299030929056765,0.013623927240606612,0.039891271133375386,0.011904380263014781
1.0008474764523467,0.004476680458159687,0.05853914722772133,0.005279248516488982,0.03425456789308119,0.003802404227780089
1.000894558477477,0.016631009383087918,0.06155262578475942,0.00604487589630294,0.03675241795729047,0.004460623121397995
1.0009416405026075,0.030279800796216314,0.07220547411682184,0.01614856324889533,0.04658842557368866,0.014144601447509581
1.0009887225277379,0.04019506929021177,0.08752860594263472,0.031662352407458065,0.063090538238397,0.028979206517332153
1.0010358045528682,0.045271217739530065,0.10028178445420899,0.049643587368788454,0.08254928065571028,0.04621457516967877
1.0010828865779986,0.04665854735345898,0.10871002607145022,0.06394396252727896,0.1002795967088428,0.059894675317892374
1.001129968603129,0.04557434040645729,0.11315639535079162,0.06951556918541625,0.11264512538720255,0.06504845220143203
1.0011770506282593,0.04281463251624272,0.11097010629259123,0.06676401531502141,0.11714008548332575,0.062118191959920736
1.0012241326533897,0.03911406922799136,0.10303008920819955,0.05756222886158259,0.11519102305127873,0.05292539531729179
1.00127121467852,0.035734840091298535,0.09211057444469324,0.04469056838221148,0.10975956044188834,0.040180525853251575
1.0013182967036505,0.034632288517627896,0.08324504997303304,0.03354469161607427,0.1053444192118051,0.02914859079846916
1.0013653787287808,0.03686446430802818,0.08175204656827471,0.03235087082016887,0.1036080748824064,0.02801863766616615
1.0014124607539112,0.040499198873267514,0.08695656781462766,0.04235422606047071,0.10573031664204006,0.0379882654218648
1.0014595427790416,0.04245011553894062,0.09390954238425557,0.05148956578485458,0.1095999526417735,0.047024800536715754
1.001506624804172,0.04142424671447975,0.0978019768921005,0.057489670337512934,0.10920893153268814,0.05307446281849946
1.0015537068293023,0.03772147907862947,0.0977849676899174,0.05838903434484734,0.10261559694316237,0.05422508704075728
1.0016007888544327,0.032149333674356434,0.09251540771888796,0.05286952532393206,0.08961026577655752,0.0491764267644573
1.001647870879563,0.025799799790141527,0.08154835208155707,0.040386054375886556,0.07038742874163384,0.03741893263817338
1.0016949529046935,0.020580986012262138,0.06588887250634258,0.02276083148008517,0.04923014709604552,0.02064753219149608
1.0017420349298238,0.01993155776046648,0.05546795185508225,0.008396000375120035,0.03359398659624729,0.0069464695439848045
1.0017891169549542,0.027489951613850306,0.0543224652431109,0.00883020356959996,0.032103205091639574,0.007444355806140704
1.0018361989800846,0.042074300128446054,0.05808605512338809,0.022145335055818467,0.040686504157414705,0.02039184664431686
1.001883281005215,0.05845891480384451,0.0691165647082069,0.04104344236602053,0.05705742662015884,0.03861851833671056
1.0019303630303453,0.07582159493280267,0.08264183371506681,0.05832937685591873,0.07600238642276404,0.05517941607466376
1.0019774450554757,0.09824195100672209,0.09235436363888969,0.07041397317164165,0.09549365481393383,0.06657087556536585
1.002024527080606,0.1303669711588208,0.09348120497185639,0.07896421651578898,0.1085128187608744,0.07470108745011468
1.0020716091057364,0.17464242099810953,0.09080868059182826,0.08832693698111686,0.1164865532290906,0.08385456407730345
1.0021186911308668,0.22917237164395338,0.09490333649262782,0.11355266104308831,0.12279810808145247,0.10907683731138927
1.0021657731559972,0.2864808872447173,0.10340256975736825,0.14880372324738836,0.12927256495362416,0.14446947393754883
1.0022128551811276,0.335488571803669,0.11120683491431689,0.17945522269565434,0.1347044849351015,0.17531524484256042
1.002259937206258,0.3667004160945303,0.11541567159445384,0.20044309409803335,0.13690352498520741,0.19649383236369822
1.0023070192313883,0.37630521047742305,0.1153888790587113,0.20989430295355302,0.13490990186057591,0.20607636522607778
1.0023541012565187,0.3658732131217113,0.11140715538185997,0.20800353236518512,0.1290230914691889,0.20425022452967567
1.002401183281649,0.3393357840705059,0.10532184025557172,0.19716291122807472,0.11982801072410787,0.19346259174135752
1.0024482653067794,0.30043566038503033,0.09728635554435316,0.1783931936762516,0.10527718101715548,0.17485356650688402
1.0024953473319098,0.25183659939415354,0.08557815871834834,0.15384153094853617,0.08413203270753074,0.15072852863403977
1.0025424293570402,0.1956066522565673,0.06764428322432509,0.12081929242955049,0.05800344722284172,0.11846258319961546
1.0025895113821706,0.13475970805500284,0.04593785504899666,0.07564140824241966,0.02717839380314005,0.07443923317322997
1.002636593407301,0.07582916802294695,0.0280023431593978,0.025728531183742454,0.002437532447147416,0.02559998265987218
1.0026836754324313,0.03145358980808763,0.022503885106011583,-0.0040036080406334615,-0.0024809313748941817,-0.0038931400263436007
1.0027307574575617,0.01779891286180085,0.03204006913839018,-0.006351274616742859,0.016309440154334855,-0.007048197535717244
1.002777839482692,0.04358985242398123,0.045112155622683184,0.006591376950054447,0.048008993103426385,0.004524397453115434
1.0028249215078224,0.1037077589167159,0.06675060155071112,0.04281328660270074,0.0784704164421626,0.039526769203846526
1.0028720035329528,0.18101238562213362,0.09318823687888018,0.0979436666785688,0.10055003109504672,0.09405821552257855
1.0029190855580832,0.25636899888384335,0.11635651084815116,0.15380629462607742,0.11421158044004498,0.14987850534443778
1.0029661675832136,0.31832235074100634,0.13275238118021307,0.19704252226634572,0.11978981697343855,0.19334186772217712
1.003013249608344,0.36361141655314383,0.1414929146667369,0.228525784613192,0.1221367948514701,0.22506638106393617
1.0030603316334743,0.39341420767750745,0.14561397513261032,0.24979870354304085,0.12181072634659812,0.24653783533998158
1.0031074136586047,0.4102870696014962,0.14585617738977322,0.26258314989231946,0.11969841590915285,0.25945980837429244
1.003154495683735,0.41662904201390033,0.1436843797788386,0.266777273312063,0.1158057885336564,0.2637288807242349
1.0032015777088654,0.41405085665469693,0.13915146857264052,0.26326150551395927,0.1099519894066259,0.2602492355874821
1.0032486597339958,0.4030953535584088,0.13220911935699872,0.251751202986526,0.10191666859227992,0.24876550237913517
1.0032957417591262,0.38301151602067063,0.1226242012246565,0.2324239377319079,0.09163121914771985,0.22950141215674844
1.0033428237842565,0.3514583105172215,0.11002311714573768,0.2047530276495091,0.07889434062619005,0.20198753553583473
1.003389905809387,0.3042863356687068,0.09394102510779387,0.16911475512504195,0.06396585260675536,0.16665669411526457
1.0034369878345173,0.2364892670841809,0.07508926056119947,0.12615890065588273,0.04720572828237733,0.12419604424036708
1.0034840698596477,0.14805992805189566,0.0551137875981334,0.07745804013496241,0.030018471474234608,0.07614029446673458
1.003531151884778,0.05937981673678241,0.04067074325351043,0.035632586371168055,0.016810132171411935,0.03488241747211893
1.0035782339099084,0.016571701488668728,0.03730038241992631,0.012038086514572617,0.011790805150585981,0.011520394014531914
1.0036253159350388,0.04141534161646615,0.04816214683159063,0.014399178728297872,0.01944092032981463,0.013551957450756626
1.0036723979601692,0.0978579156313711,0.06833484477484479,0.03595348541122598,0.03742545256023034,0.03433652480872713
1.0037194799852995,0.14599333246590304,0.09345130281333072,0.06503465797160808,0.05871574898426932,0.0625705820477397
1.00376656201043,0.17300879075255565,0.11268312579409506,0.0922030709843016,0.07852526095547749,0.08905304297677337
1.0038136440355603,0.18229222765708752,0.12521043215495917,0.11374971918924169,0.09086891510396396,0.11025856633158633
1.0038607260606907,0.18262972424027749,0.13068440484462432,0.12736778710133306,0.09957757979990652,0.12367177345848496
1.003907808085821,0.18292620727983336,0.13239248654202848,0.13485525602086357,0.10699011392918896,0.13098777924491356
1.0039548901109514,0.18798821740501145,0.13319419217061282,0.13913083302593265,0.11138824422665297,0.13517019334520916
1.0040019721360818,0.19658928748535154,0.13099703505776186,0.1397247738744464,0.11255287764481144,0.13573683889196436
1.0040490541612122,0.20361099360789395,0.12660225375393874,0.1356935801867525,0.11218715026652705,0.13168693539082524
1.0040961361863425,0.20356945018764083,0.11884113414363587,0.1287855413388881,0.10982689925391766,0.12479756850570238
1.004143218211473,0.19261735903368254,0.10827007541785529,0.11776025800915435,0.10556766314462432,0.11382768207087302
1.0041903002366033,0.1692114287165738,0.09434774581809761,0.09836742477706704,0.09695091973346709,0.09460416471750938
1.0042373822617336,0.13469585530973552,0.07813617061483309,0.07519967777083232,0.08392456322694761,0.07179960304137757
1.004284464286864,0.094068350002802,0.06150467271510334,0.051842634052145065,0.06797854378841146,0.04899328001815466
1.0043315463119944,0.0558705414627791,0.04621397404726934,0.03082107495389939,0.04985173711184418,0.028685532694160038
1.0043786283371248,0.029785725493520713,0.0361045370838631,0.019809015244991575,0.03293274248829437,0.018384069391466664
1.0044257103622551,0.022326134922130727,0.03161855298471542,0.01684685304795892,0.020365212025787033,0.015958442899424444
1.0044727923873855,0.03362727707623793,0.032181564159895724,0.01768087969631584,0.014523702825647094,0.017041518377986124
1.004519874412516,0.057935866130881315,0.037224751159336135,0.0238553638180855,0.015352846225725697,0.023175803078119075
1.0045669564376463,0.08691312585069338,0.046833532326630956,0.038233159934289905,0.024191593257833214,0.03716972127073636
1.0046140384627766,0.11302745450084833,0.0597728018779194,0.05542672474865837,0.040989225148009636,0.053664278153839555
1.004661120487907,0.13143773576861661,0.07262948520693485,0.07126698378066398,0.06062938117590212,0.0687369133024002
1.0047082025130374,0.140315951549541,0.08428336945579482,0.0817840112464661,0.08019033555682449,0.07854202050936779
1.0047552845381678,0.14016084842095028,0.08998327097772467,0.0846685751900148,0.09621120631607832,0.08086495402876866
1.0048023665632981,0.13271042804166153,0.09014559719442738,0.08028160564993014,0.10711570484978267,0.07607482736598721
1.0048494485884285,0.1199532079956697,0.08676645402404395,0.06958311394397716,0.1146860098565586,0.06504381175320013
1.0048965306135589,0.10352759540252561,0.08362062893195112,0.05738407400153901,0.11776959225121107,0.052650805414746225
1.0049436126386893,0.08458770500586026,0.0783628888910307,0.04469505929439128,0.11602984111565388,0.0399427821644457
1.0049906946638196,0.06411017510052013,0.0735079372931629,0.03435472552873721,0.1101435462347126,0.0297708800020837
1.00503777668895,0.043500849939608656,0.06648569887724946,0.022887706523455283,0.1007582950029801,0.018627689761485707
1.0050848587140804,0.02497562650004661,0.05737143726864015,0.013888116903115118,0.08765538677818305,0.010142640890369654
1.0051319407392107,0.011013597455985432,0.04914829568277595,0.011624969459267675,0.0727487365755512,0.008506293020169555
1.0051790227643411,0.003334338693202587,0.040811161291116144,0.009001101837417943,0.055135574038363215,0.006630169769497607
1.0052261047894715,0.0027948227754708652,0.02919768123281866,0.005716764128480125,0.03567959589059069,0.004178624824093887
1.0052731868146019,0.010164673003053454,0.01905759031242847,0.005314070387151807,0.01859891874671254,0.004509505198400133
1.0053202688397322,0.026566180290056158,0.01231608017170116,0.008193549268036414,0.0052628117567698465,0.007959592310376452
1.0053673508648626,0.05291846997433676,0.009392409169148408,0.011498759854167706,-0.001800305426478105,0.01156559109181112
1.005414432889993,0.08828034555015178,0.00939842930889099,0.017065936640710815,-0.0037785698633272862,0.01721280032849148
1.0054615149151234,0.12763762777320273,0.011758522936057983,0.025647230237824777,-0.0010805812406667209,0.02566995721605692
1.0055085969402537,0.16155770115500132,0.01715843436742018,0.038076850744054896,0.009198947849755203,0.03764816336274745
1.0055556789653841,0.18078890709766565,0.024924730604516738,0.05135766337998839,0.02453191392422523,0.05027358556612996
1.0056027609905145,0.18307418566708303,0.031179000237091956,0.06056084021799014,0.041507296528945144,0.05877856031619518
1.0056498430156449,0.1741533504439713,0.03750221897783138,0.06655908741414072,0.05659332236625537,0.06418005215689854
1.0056969250407752,0.16242605985016223,0.0424794500308474,0.07063087442771013,0.06959679831104824,0.06775544615180157
1.0057440070659056,0.15418810481596457,0.04384739364105471,0.07107575192890922,0.07771231904854246,0.06789417229442209
1.005791089091036,0.1523552110015489,0.04200684682433618,0.0660360559428213,0.08063016690228018,0.06272993214025858
1.0058381711161664,0.15691036178882456,0.04125185387894201,0.06130313889977103,0.08053316884362756,0.057986730575428524
1.0058852531412967,0.16538784679386007,0.04251532472811052,0.06307528196508604,0.07826382380486954,0.059850719527896376
1.005932335166427,0.17322460684996496,0.04167040729238408,0.06323184659303546,0.07307689664158484,0.060206734722032085
1.0059794171915575,0.17475929729964576,0.03797392243129234,0.05880087400333982,0.06482430562675576,0.05608806567402074
1.0060264992166879,0.16548577922015562,0.03335057556922947,0.05204155960234529,0.055642362536520266,0.04968481393098805
1.0060735812418182,0.1445721481217929,0.028379553066364426,0.04234591607178599,0.04485468357527062,0.04042188418561628
1.0061206632669486,0.11538472372115638,0.024144548279741645,0.03266210113426135,0.034091293635216624,0.031185015960215855
1.006167745292079,0.08342022676517998,0.02224051843162359,0.0259645785337829,0.025727118130824265,0.02484259528473132
1.0062148273172093,0.053714935068683495,0.02317959893720856,0.01794830890199036,0.020125818345111485,0.017069374045442603
1.0062619093423397,0.029620632829972474,0.02471784663799196,0.006428025048282717,0.017087646591224585,0.0056875310396609985
1.00630899136747,0.012907514843990737,0.025648318574477406,-0.004503164505502606,0.01586159783534607,-0.005182263350649381
1.0063560733926005,0.004292560353454192,0.027586044098057913,-0.010519166817943732,0.016772839933782258,-0.011232734211524913
1.0064031554177308,0.0038095921685766332,0.030269201773133973,-0.007972360122875525,0.017706075794172025,-0.008728287300140518
1.0064502374428612,0.010924293923755681,0.03727927744664755,0.0013341291502741227,0.02396322534634618,0.00030166394043616506
1.0064973194679916,0.02453035587728399,0.044369749028226935,0.011333716656649779,0.03294253032996952,0.009911071965893907
1.006544401493122,0.042966387475684646,0.05037090925841417,0.020787738978896356,0.04235273341508589,0.01896382010664442
1.0065914835182523,0.06411092062196938,0.05448808752597233,0.03329944681240632,0.04938984257499234,0.031184342094489052
1.0066385655433827,0.08556714248621351,0.059945941829816135,0.049462130528264495,0.054924604331709335,0.04713183232349299
1.006685647568513,0.10493697207975199,0.06294622651619676,0.06485229624100503,0.05824869648348498,0.06240630230592827
1.0067327295936435,0.12014720761669652,0.06336568903950791,0.07640706666955516,0.05922493972242774,0.07393839179369939
1.0067798116187738,0.12974860817624662,0.06081523311214454,0.08294186479002422,0.057264517757152376,0.0805569614210411
1.0068268936439042,0.1331160769266914,0.05843636620592549,0.08436945777741765,0.05293395878683676,0.08215169229633468
1.0068739756690346,0.13051634907150206,0.053840486444848804,0.08386978816652868,0.04794285631758595,0.08184393904724438
1.006921057694165,0.12301693370584733,0.04702274007458679,0.08185258015702256,0.041285664016600145,0.08008567631080529
1.0069681397192953,0.11219272060745543,0.038529140742455115,0.07585112215539112,0.03344586516941716,0.07439536293421654
1.0070152217444257,0.09964098937742749,0.03030495200464289,0.06985230351433948,0.025973911799656378,0.06870114269550484
1.007062303769556,0.08648287672211809,0.024268816699328077,0.06302251331950957,0.020416641769508047,0.06210371426903386
1.0071093857946865,0.07315337862299943,0.0204693513175925,0.053521194673379444,0.016108749731771767,0.052788230374122676
1.0071564678198168,0.05967551136841471,0.017620807298846405,0.042771215350936226,0.012520225123299701,0.042197577809020906
1.0072035498449472,0.046352747241279996,0.015437668506846521,0.029687677967592516,0.010891832885336952,0.029193777201648223
1.0072506318700776,0.03458526276589038,0.015199716448009243,0.01916866027493343,0.011445445395921445,0.01865980895074105
1.007297713895208,0.02727830692374265,0.017065907530754817,0.01473006896934623,0.012446052855925425,0.014182043124261466
1.0073447959203383,0.0280866607277734,0.022199721638144383,0.01711698325886342,0.016090303870237087,0.016411057720275703
1.0073918779454687,0.03925806445151868,0.03325502605174549,0.028584290137595406,0.024730577657261225,0.02750314474787866
1.007438959970599,0.059562255279517966,0.047310932528265986,0.043832242766228824,0.035502912142035443,0.04229461051112851
1.0074860419957294,0.08449757331606145,0.06062044452874986,0.058037587268334905,0.047944928131120106,0.0559947924699067
1.0075331240208598,0.10858230355013457,0.07156092021602238,0.06858033205585247,0.059818820363345585,0.06607789134233077
1.0075802060459902,0.12742598805780986,0.07877208470477788,0.07621925524513734,0.0683218325238776,0.0734038188165985
1.0076272880711206,0.13840784538629322,0.08148833949586617,0.07904744927672683,0.07301311283315735,0.07606241874872245
1.007674370096251,0.14057521646913557,0.07845960504076897,0.0769603579802706,0.07396326567612606,0.07393473459549968
1.0077214521213813,0.1345761316442056,0.07193504428014011,0.07084930100861353,0.07096855397204606,0.0679221114040016
1.0077685341465117,0.12269802495893224,0.06226504708277086,0.062425783036096825,0.06366614839159897,0.05976423681943334
