freq,gls,usurper,pdc_unbiased,shape_periodogram,shift_periodogram
1.0,0.02176245538732735,0.0006366178089925365,-0.007335655112181927,0.0043274580031705,-0.007460848706789107
1.0000470820251304,0.05134779247241603,0.017199211348684552,0.016081221596065367,0.007073713146839989,0.015864802538396568
1.0000941640502607,0.09689124580742478,0.03628176639851076,0.05094334186944231,0.015826039071070355,0.05045966016328036
1.0001412460753911,0.14848755125694818,0.05629174697035161,0.08456655871201842,0.02926367086337319,0.08370637979786977
1.0001883281005215,0.19664060203551523,0.07277276747115934,0.10917973127593883,0.04161705202952978,0.10801204114662191
1.0002354101256519,0.23592916525893703,0.08397988873192008,0.12678225514793529,0.05121339434913084,0.1254062702180075
1.0002824921507822,0.26363730657080775,0.09335497058211037,0.13936052532630389,0.05569657904161957,0.13790562092483447
1.0003295741759126,0.2780607972143743,0.0976217987315566,0.14663287491158739,0.058495910663740686,0.1451328990064073
1.000376656201043,0.27778293516045677,0.09667702827979066,0.14742341655727248,0.05992206715867808,0.14589605031208255
1.0004237382261734,0.2619162710265795,0.0919073579021277,0.139633635428265,0.059167141909035575,0.13810612552516877
1.0004708202513037,0.23107843684954268,0.0821124340807434,0.12167319492364326,0.05616102523082288,0.12017786408890832
1.0005179022764341,0.1884924826566669,0.06989487528563162,0.09811663264576473,0.050881469937406616,0.09671011322332972
1.0005649843015645,0.1401213853463462,0.05939718955827054,0.07552593926328457,0.045548389005053265,0.07422977731885542
1.0006120663266949,0.09311329616242185,0.050555117277716576,0.056936636782797936,0.04040800782122056,0.05576417492707554
1.0006591483518252,0.05338098213176131,0.0467939576189244,0.04656239048066332,0.035139073883162904,0.045531014323754046
1.0007062303769556,0.024158292773911582,0.043903640050051776,0.0379052596807291,0.027808203389023678,0.03707980917104171
1.000753312402086,0.006389706849983347,0.039051407998630314,0.024925530867037873,0.01934285697629723,0.024345892347521342
1.0008003944272164,4.4957735270936574e-05,0.036743491401434465,0.013623927240606612,0.01515800151898225,0.013169947653203071
1.0008474764523467,0.004476680458159687,0.03084579209580179,0.005279248516488982,0.013361259448456765,0.0048810522702343
1.000894558477477,0.016631009383087918,0.02964935358938891,0.00604487589630294,0.013255504929991812,0.005649545164872297
1.0009416405026075,0.030279800796216314,0.033526417783568616,0.01614856324889533,0.01624562392634741,0.015661827550595316
1.0009887225277379,0.04019506929021177,0.04342559361308502,0.031662352407458065,0.020797887790178143,0.031039139153901447
1.0010358045528682,0.045271217739530065,0.053760187885866846,0.049643587368788454,0.026640200567882025,0.048851757574600904
1.0010828865779986,0.04665854735345898,0.05944162707059586,0.06394396252727896,0.033924218185498775,0.06295182913723503
1.001129968603129,0.04557434040645729,0.06018366001476664,0.06951556918541625,0.03978676374735083,0.06836724032235558
1.0011770506282593,0.04281463251624272,0.053650532428086026,0.06676401531502141,0.04244441293432599,0.06554283056425375
1.0012241326533897,0.03911406922799136,0.044699610549939456,0.05756222886158259,0.04384335667714731,0.05629676498989285
1.00127121467852,0.035734840091298535,0.03735540189376762,0.04469056838221148,0.0444938464550519,0.04339788868062292
1.0013182967036505,0.034632288517627896,0.03178314303155455,0.03354469161607427,0.04585824254551284,0.03220573981593575
1.0013653787287808,0.03686446430802818,0.03365829515732294,0.03235087082016887,0.04738281916333233,0.030968031471125618
1.0014124607539112,0.040499198873267514,0.041642857813703645,0.04235422606047071,0.05052791582840679,0.0408928879997983
1.0014595427790416,0.04245011553894062,0.0489222701410112,0.05148956578485458,0.05402712893280286,0.04994333605124264
1.001506624804172,0.04142424671447975,0.0551469027310102,0.057489670337512934,0.05421836852591689,0.055945994876394955
1.0015537068293023,0.03772147907862947,0.05768181595276793,0.05838903434484734,0.051337455209739126,0.05692303965790264
1.0016007888544327,0.032149333674356434,0.055143000126629954,0.05286952532393206,0.045181507089806575,0.05156413129786761
1.001647870879563,0.025799799790141527,0.04551152876511406,0.040386054375886556,0.03570750206505255,0.03933671725508549
1.0016949529046935,0.020580986012262138,0.033116689397097866,0.02276083148008517,0.023605455900217044,0.022057301881711514
1.0017420349298238,0.01993155776046648,0.02376310731778198,0.008396000375120035,0.014687286177695979,0.007957550933225031
1.0017891169549542,0.027489951613850306,0.02167868274358322,0.00883020356959996,0.012800650942512192,0.008447357456259724
1.0018361989800846,0.042074300128446054,0.025107924756437992,0.022145335055818467,0.017015765278957463,0.02163436363150359
1.001883281005215,0.05845891480384451,0.03431153484086006,0.04104344236602053,0.025941433545687256,0.04027136931683675
1.0019303630303453,0.07582159493280267,0.04330362269942549,0.05832937685591873,0.03453046947227535,0.05731874596372912
1.0019774450554757,0.09824195100672209,0.049009221938572586,0.07041397317164165,0.037752259117797525,0.0693206877407592
1.002024527080606,0.1303669711588208,0.04963223047485787,0.07896421651578898,0.038292786134619713,0.07786104687017331
1.0020716091057364,0.17464242099810953,0.048314924567148615,0.08832693698111686,0.037557239859660786,0.08724827039707778
1.0021186911308668,0.22917237164395338,0.057252853844475766,0.11355266104308831,0.039505098839347295,0.11244054183667701
1.0021657731559972,0.2864808872447173,0.07218161840353958,0.14880372324738836,0.04341744798588032,0.14763016875295124
1.0022128551811276,0.335488571803669,0.08559598552606583,0.17945522269565434,0.04735592988760158,0.1782344946142617
1.002259937206258,0.3667004160945303,0.0951048639830433,0.20044309409803335,0.04948196708858141,0.19921194844275755
1.0023070192313883,0.37630521047742305,0.09978183563557538,0.20989430295355302,0.04907611265917022,0.20868527424533745
1.0023541012565187,0.3658732131217113,0.09955462833024131,0.20800353236518512,0.04624621221059758,0.20684349882499103
1.002401183281649,0.3393357840705059,0.09278843959933936,0.19716291122807472,0.04099367868674325,0.19609181336003043
1.0024482653067794,0.30043566038503033,0.08177254285835307,0.1783931936762516,0.033209339715099144,0.1774733064487972
1.0024953473319098,0.25183659939415354,0.07019519299599283,0.15384153094853617,0.023982806224141052,0.1531320407344747
1.0025424293570402,0.1956066522565673,0.0541867373611674,0.12081929242955049,0.015307742097340713,0.12033660041487981
1.0025895113821706,0.13475970805500284,0.03062426960275346,0.07564140824241966,0.007599588532036131,0.07538698340427988
1.002636593407301,0.07582916802294695,0.0068665462181680135,0.025728531183742454,0.004579038126405683,0.025581795286947748
1.0026836754324313,0.03145358980808763,-0.0022655805606211425,-0.0040036080406334615,0.005810919583831016,-0.004174277226461788
1.0027307574575617,0.01779891286180085,0.008095422810781856,-0.006351274616742859,0.01550303786408921,-0.006809122699657746
1.002777839482692,0.04358985242398123,0.023441701055686184,0.006591376950054447,0.02854995491964669,0.00574401193460082
1.0028249215078224,0.1037077589167159,0.046428372265418655,0.04281328660270074,0.04569742768895846,0.041485866375904235
1.0028720035329528,0.18101238562213362,0.07691739982710459,0.0979436666785688,0.06046680102328514,0.09630725983571929
1.0029190855580832,0.25636899888384335,0.10538789535005527,0.15380629462607742,0.07453568386405024,0.15201930670416802
1.0029661675832136,0.31832235074100634,0.12491132531949906,0.19704252226634572,0.08110609434041151,0.1953094720097847
1.003013249608344,0.36361141655314383,0.13602372669524337,0.228525784613192,0.08116694370744049,0.22691740860544823
1.0030603316334743,0.39341420767750745,0.14287082061647252,0.24979870354304085,0.08038446912053417,0.24828302921708556
1.0031074136586047,0.4102870696014962,0.14488100027974946,0.26258314989231946,0.07855073179471489,0.26113240323894943
1.003154495683735,0.41662904201390033,0.14371270642965392,0.266777273312063,0.07539315679995241,0.2653667267279834
1.0032015777088654,0.41405085665469693,0.139463121882441,0.26326150551395927,0.07024378771638667,0.2618839405450464
1.0032486597339958,0.4030953535584088,0.1321568064969489,0.251751202986526,0.06353874445824784,0.25041208333418236
1.0032957417591262,0.38301151602067063,0.12139595235638799,0.2324239377319079,0.055259788910217426,0.2311524947684887
1.0033428237842565,0.3514583105172215,0.10649590181012349,0.2047530276495091,0.04485560210993525,0.20361486905294002
1.003389905809387,0.3042863356687068,0.08743107797819974,0.16911475512504195,0.03236330810869144,0.16820875417787934
1.0034369878345173,0.2364892670841809,0.0646443681031797,0.12615890065588273,0.01828875922024835,0.12559529598259436
1.0034840698596477,0.14805992805189566,0.03921532109986836,0.07745804013496241,0.003701436533074027,0.07731587949082881
1.003531151884778,0.05937981673678241,0.0192398602161691,0.035632586371168055,-0.008476027152291921,0.03586915005334716
1.0035782339099084,0.016571701488668728,0.009931202708208157,0.012038086514572617,-0.013728352964029583,0.012441084246665842
1.0036253159350388,0.04141534161646615,0.01626644841220644,0.014399178728297872,-0.008629416954133716,0.01464927600570811
1.0036723979601692,0.0978579156313711,0.032710586718462956,0.03595348541122598,-0.00021507834808799813,0.03594405376816408
1.0037194799852995,0.14599333246590304,0.05259305910571485,0.06503465797160808,0.013787238586984765,0.06460589098509521
1.00376656201043,0.17300879075255565,0.06987060767537497,0.0922030709843016,0.028958315213322122,0.09135268988909996
1.0038136440355603,0.18229222765708752,0.08275012474560182,0.11374971918924169,0.04262577173291958,0.11256112549459889
1.0038607260606907,0.18262972424027749,0.09092247458596618,0.12736778710133306,0.05600031128795764,0.1258856951413487
1.003907808085821,0.18292620727983336,0.09774148592477695,0.13485525602086357,0.06686365022088335,0.1331594470099573
1.0039548901109514,0.18798821740501145,0.10032391757693139,0.13913083302593265,0.07417903274049865,0.1373042192458293
1.0040019721360818,0.19658928748535154,0.09903685936297321,0.1397247738744464,0.07754583733860122,0.13783743026047465
1.0040490541612122,0.20361099360789395,0.09986373267297523,0.1356935801867525,0.0765876945004652,0.13381062051885698
1.0040961361863425,0.20356945018764083,0.0977391673519877,0.1287855413388881,0.07270302013439732,0.12695637797751003
1.004143218211473,0.19261735903368254,0.08569791632609215,0.11776025800915435,0.06476307698544974,0.11606769168724908
1.0041903002366033,0.1692114287165738,0.06886827568233617,0.09836742477706704,0.05451377669993805,0.09687327699288714
1.0042373822617336,0.13469585530973552,0.050043913923395654,0.07519967777083232,0.0423075213634169,0.07398817134041182
1.004284464286864,0.094068350002802,0.03337193104776262,0.051842634052145065,0.028126087760080017,0.05100903404016051
1.0043315463119944,0.0558705414627791,0.019548502806558482,0.03082107495389939,0.013819932851075988,0.03040107265811955
1.0043786283371248,0.029785725493520713,0.01172669076214019,0.019809015244991575,0.0016167493508413649,0.019752399891865044
1.0044257103622551,0.022326134922130727,0.009638255857604465,0.01684685304795892,-0.006579355011792818,0.017034884986889966
1.0044727923873855,0.03362727707623793,0.01122506199347558,0.01768087969631584,-0.008803197468277159,0.01793479499621075
1.004519874412516,0.057935866130881315,0.016489041380121774,0.0238553638180855,-0.007052934672207617,0.02405449650185099
1.0045669564376463,0.08691312585069338,0.025784534441651605,0.038233159934289905,-0.0014559437639447199,0.03825949346510788
1.0046140384627766,0.11302745450084833,0.037328794382808485,0.05542672474865837,0.006367031615407281,0.05521553230470925
1.004661120487907,0.13143773576861661,0.04778574346886213,0.07126698378066398,0.013827457277735346,0.07083546967012883
1.0047082025130374,0.140315951549541,0.056015782348396055,0.0817840112464661,0.021267747359986554,0.0811419143127429
1.0047552845381678,0.14016084842095028,0.059711562998221716,0.0846685751900148,0.027783197476321034,0.08384836921473923
1.0048023665632981,0.13271042804166153,0.058801348076891156,0.08028160564993014,0.03174593219180097,0.07935357431286948
1.0048494485884285,0.1199532079956697,0.05407848355408301,0.06958311394397716,0.03472688352396479,0.06857108979559827
1.0048965306135589,0.10352759540252561,0.04996471266804969,0.05738407400153901,0.0339035578076445,0.05639044106555167
1.0049436126386893,0.08458770500586026,0.045205175860390086,0.04469505929439128,0.0304423277760867,0.04379535249686988
1.0049906946638196,0.06411017510052013,0.03864442496562053,0.03435472552873721,0.02590197048819408,0.03358390070872063
1.00503777668895,0.043500849939608656,0.030880576831860573,0.022887706523455283,0.022758413974429802,0.022208839907644884
1.0050848587140804,0.02497562650004661,0.022682006154243584,0.013888116903115118,0.01915562526259154,0.013316409554182757
1.0051319407392107,0.011013597455985432,0.01828514223279487,0.011624969459267675,0.01505390289220793,0.011174676141995162
1.0051790227643411,0.003334338693202587,0.012913417839413053,0.009001101837417943,0.011049545797385417,0.008669955242014775
1.0052261047894715,0.0027948227754708652,0.007722866829289345,0.005716764128480125,0.008614726982603129,0.005458931473040313
1.0052731868146019,0.010164673003053454,0.005095069878608231,0.005314070387151807,0.00463754219402971,0.005174233754190115
1.0053202688397322,0.026566180290056158,0.005626936126501703,0.008193549268036414,0.0011732094849812723,0.008155153306638466
1.0053673508648626,0.05291846997433676,0.00748461385000359,0.011498759854167706,0.0020657050226466733,0.011432463945005567
1.005414432889993,0.08828034555015178,0.010122121253859251,0.017065936640710815,0.004431234720689402,0.01692721236441366
1.0054615149151234,0.12763762777320273,0.01398553631420542,0.025647230237824777,0.0065877404751973605,0.025441288316234444
1.0055085969402537,0.16155770115500132,0.018455125604355898,0.038076850744054896,0.011133343397702198,0.037732927344919134
1.0055556789653841,0.18078890709766565,0.02344488364700116,0.05135766337998839,0.018039564388128874,0.050810370125477025
1.0056027609905145,0.18307418566708303,0.02715705038163816,0.06056084021799014,0.023928306726037334,0.059845449914362345
1.0056498430156449,0.1741533504439713,0.030315152414077395,0.06655908741414072,0.02683161589141527,0.06576283525496845
1.0056969250407752,0.16242605985016223,0.033826442634824413,0.07063087442771013,0.030388333415876906,0.06973726186147046
1.0057440070659056,0.15418810481596457,0.036429753812648104,0.07107575192890922,0.03226667739409918,0.07013101330674121
1.005791089091036,0.1523552110015489,0.03675151422463192,0.0660360559428213,0.03309077401856903,0.06506737725187917
1.0058381711161664,0.15691036178882456,0.036464273897270146,0.06130313889977103,0.033422454663770106,0.060323950835393055
1.0058852531412967,0.16538784679386007,0.04044215581376458,0.06307528196508604,0.03322309936421754,0.06210209773006222
1.005932335166427,0.17322460684996496,0.04299563777077302,0.06323184659303546,0.03163653009699811,0.06230232549551964
1.0059794171915575,0.17475929729964576,0.042306934463564226,0.05880087400333982,0.028224813592241604,0.05796516886124731
1.0060264992166879,0.16548577922015562,0.038761367550349694,0.05204155960234529,0.024145714218254587,0.051320295721044476
1.0060735812418182,0.1445721481217929,0.033758222519835034,0.04234591607178599,0.018500663138909176,0.04178714060626902
1.0061206632669486,0.11538472372115638,0.02939789465962068,0.03266210113426135,0.01058696431678051,0.0323360192760728
1.006167745292079,0.08342022676517998,0.025786968112657523,0.0259645785337829,0.002763454205895551,0.025871372425270597
1.0062148273172093,0.053714935068683495,0.023280940512625713,0.01794830890199036,-0.0022194765368506327,0.018006260830018068
1.0062619093423397,0.029620632829972474,0.0197674645520716,0.006428025048282717,-0.003604311178086543,0.006532144209427287
1.00630899136747,0.012907514843990737,0.015550439343183554,-0.004503164505502606,-0.001357744594575359,-0.004460914693728718
1.0063560733926005,0.004292560353454192,0.013824276033685736,-0.010519166817943732,0.002054661139640973,-0.010575496615952302
1.0064031554177308,0.0038095921685766332,0.014614023282831647,-0.007972360122875525,0.007279491174334447,-0.008184973810300946
1.0064502374428612,0.010924293923755681,0.020032094841784687,0.0013341291502741227,0.017681458682425665,0.0008091985293994792
1.0064973194679916,0.02453035587728399,0.02688060584483004,0.011333716656649779,0.027838220771012445,0.010507206668127036
1.006544401493122,0.042966387475684646,0.033653252135299495,0.020787738978896356,0.03859675754164219,0.01964906789323037
1.0065914835182523,0.06411092062196938,0.04189912193536934,0.03329944681240632,0.04524082408451896,0.03197771734039609
1.0066385655433827,0.08556714248621351,0.04978293443855935,0.049462130528264495,0.0478346206255466,0.048081504599375685
1.006685647568513,0.10493697207975199,0.054228737950435785,0.06485229624100503,0.04979132138826869,0.06343441572793561
1.0067327295936435,0.12014720761669652,0.05590268696000923,0.07640706666955516,0.051394797457429184,0.0749607281776452
1.0067798116187738,0.12974860817624662,0.05580868617304354,0.08294186479002422,0.05113485434449478,0.08151010564182533
1.0068268936439042,0.1331160769266914,0.0546371103222168,0.08436945777741765,0.04858885728204482,0.08300379989681055
1.0068739756690346,0.13051634907150206,0.051431768396556166,0.08386978816652868,0.04334444348285433,0.0826379120077984
1.006921057694165,0.12301693370584733,0.04593006933517954,0.08185258015702256,0.038290300084075045,0.08075109208215701
1.0069681397192953,0.11219272060745543,0.03896070393213117,0.07585112215539112,0.031154314174323395,0.07493786525406237
1.0070152217444257,0.09964098937742749,0.03315240781513983,0.06985230351433948,0.02271390410868485,0.06917060670863344
1.007062303769556,0.08648287672211809,0.028231206016508473,0.06302251331950957,0.01733209003998026,0.062493167336108636
1.0071093857946865,0.07315337862299943,0.024840529898471898,0.053521194673379444,0.012892817638526602,0.05312131405459564
1.0071564678198168,0.05967551136841471,0.022332262805090597,0.042771215350936226,0.009214771550132462,0.04248164381081994
1.0072035498449472,0.046352747241279996,0.017941811343484177,0.029687677967592516,0.005516542515496856,0.02951165707315481
1.0072506318700776,0.03458526276589038,0.01572880572751595,0.01916866027493343,0.003611842816117929,0.019053276464124864
1.007297713895208,0.02727830692374265,0.01591714204793563,0.01473006896934623,0.0023196752963941763,0.014654843861853431
1.0073447959203383,0.0280866607277734,0.01947643758561662,0.01711698325886342,0.002657446114958682,0.017030722515785468
1.0073918779454687,0.03925806445151868,0.02709749720014043,0.028584290137595406,0.004997833148249934,0.028424011275703095
1.007438959970599,0.059562255279517966,0.03542389628882918,0.043832242766228824,0.006864670937040379,0.043610980402676316
1.0074860419957294,0.08449757331606145,0.04307772591073248,0.058037587268334905,0.00897943661724185,0.05774944344267876
1.0075331240208598,0.10858230355013457,0.04854388149094206,0.06858033205585247,0.013436431048886558,0.0681606573664122
1.0075802060459902,0.12742598805780986,0.05209454194301266,0.07621925524513734,0.017250517858960188,0.07568984085036719
1.0076272880711206,0.13840784538629322,0.05154583999342033,0.07904744927672683,0.020093965385565602,0.0784381236952758
1.007674370096251,0.14057521646913557,0.04740262478553589,0.0769603579802706,0.02402505201710009,0.07624219597032995
1.0077214521213813,0.1345761316442056,0.04064947632213033,0.07084930100861353,0.02696367552508466,0.07004976671174294
1.0077685341465117,0.12269802495893224,0.03285811765054879,0.062425783036096825,0.026602117719906494,0.061635620398421555
