freq,gls,usurper,pdc_unbiased,shape_periodogram,shift_periodogram
1.0,0.02176245538732735,-0.00492665106778984,-0.007335655112181927,-0.000767902961569429,-0.007306442570779329
1.0000470820251304,0.05134779247241603,-0.0037759911617726355,0.016081221596065367,-0.003965249009476979,0.016202989271845648
1.0000941640502607,0.09689124580742478,0.0023442948892224854,0.05094334186944231,-0.006734955994540343,0.051137616123536005
1.0001412460753911,0.14848755125694818,0.010807201421870423,0.08456655871201842,-0.003673511215361643,0.08464122080488508
1.0001883281005215,0.19664060203551523,0.0191942386468873,0.10917973127593883,0.0021776100857199138,0.10905132055000048
1.0002354101256519,0.23592916525893703,0.02545724362535118,0.12678225514793529,0.0064007904228226085,0.12651191830760805
1.0002824921507822,0.26363730657080775,0.026385228150567843,0.13936052532630389,0.007758987997915601,0.13904297696125845
1.0003295741759126,0.2780607972143743,0.026896947485538603,0.14663287491158739,0.008487066646721211,0.14629029677618452
1.000376656201043,0.27778293516045677,0.028040487117339054,0.14742341655727248,0.009025171565154116,0.14706411574309
1.0004237382261734,0.2619162710265795,0.02641993857817492,0.139633635428265,0.009466734856297903,0.13926346392088979
1.0004708202513037,0.23107843684954268,0.022778243408868835,0.12167319492364326,0.008548460516462185,0.12133784926746975
1.0005179022764341,0.1884924826566669,0.01823331535622198,0.09811663264576473,0.007247253151116381,0.0978317477597798
1.0005649843015645,0.1401213853463462,0.015009642012282238,0.07552593926328457,0.006172879383154147,0.0752855086856533
1.0006120663266949,0.09311329616242185,0.014081989603717744,0.056936636782797936,0.005346519133398882,0.056731802652771224
1.0006591483518252,0.05338098213176131,0.01562702692203673,0.04656239048066332,0.003807875952258083,0.04641279699433012
1.0007062303769556,0.024158292773911582,0.01720476407839066,0.0379052596807291,0.0014986060230913984,0.037835662856542704
1.000753312402086,0.006389706849983347,0.01981776499776613,0.024925530867037873,-0.001203748970809558,0.02495162333821624
1.0008003944272164,4.4957735270936574e-05,0.023513049907167766,0.013623927240606612,-0.0023773703107891173,0.013694750727912234
1.0008474764523467,0.004476680458159687,0.022566001658308587,0.005279248516488982,-0.0005617582842744262,0.005294865564158667
1.000894558477477,0.016631009383087918,0.02508205563470863,0.00604487589630294,0.0021267684325326813,0.00597169224557583
1.0009416405026075,0.030279800796216314,0.02792888252046473,0.01614856324889533,0.007146693573593434,0.01590533257113784
1.0009887225277379,0.04019506929021177,0.03168324091581248,0.031662352407458065,0.011675699118349247,0.0312640269734065
1.0010358045528682,0.045271217739530065,0.03425042444284416,0.049643587368788454,0.01773776983565715,0.04904338090246538
1.0010828865779986,0.04665854735345898,0.03644755739541048,0.06394396252727896,0.024683333214041387,0.0631219505540767
1.001129968603129,0.04557434040645729,0.03689191528461172,0.06951556918541625,0.03089714366348588,0.0685019949983186
1.0011770506282593,0.04281463251624272,0.03447909921491219,0.06676401531502141,0.03348547166830077,0.06567090148631889
1.0012241326533897,0.03911406922799136,0.028889163868907917,0.05756222886158259,0.03279197070350126,0.05648847398610411
1.00127121467852,0.035734840091298535,0.021623247219929486,0.04469056838221148,0.030602791387007153,0.04368353514102931
1.0013182967036505,0.034632288517627896,0.01461509549219273,0.03354469161607427,0.02900780700084349,0.032588001296945154
1.0013653787287808,0.03686446430802818,0.01364597291807794,0.03235087082016887,0.027763502628081145,0.03143397409016653
1.0014124607539112,0.040499198873267514,0.018773467337504797,0.04235422606047071,0.02734755604369894,0.04144996479851724
1.0014595427790416,0.04245011553894062,0.025725058884249346,0.05148956578485458,0.028233284005943396,0.050557153555419294
1.001506624804172,0.04142424671447975,0.028393731129210877,0.057489670337512934,0.02720959506389195,0.05658922508537551
1.0015537068293023,0.03772147907862947,0.02747270245904055,0.05838903434484734,0.023776705866071852,0.05759590991699468
1.0016007888544327,0.032149333674356434,0.025500356443508267,0.05286952532393206,0.019062446682148577,0.05222626202422842
1.001647870879563,0.025799799790141527,0.023631636760211235,0.040386054375886556,0.012880705016715104,0.039945040916719105
1.0016949529046935,0.020580986012262138,0.019398326613518927,0.02276083148008517,0.0058104327624063845,0.02255799917834738
1.0017420349298238,0.01993155776046648,0.017824426404026622,0.008396000375120035,0.0005685996774940821,0.008372767168721467
1.0017891169549542,0.027489951613850306,0.017860813818215273,0.00883020356959996,0.0018667025144668227,0.008764070555932332
1.0018361989800846,0.042074300128446054,0.018337174353577138,0.022145335055818467,0.005452566960711343,0.021954531627750264
1.001883281005215,0.05845891480384451,0.022589058928905087,0.04104344236602053,0.012766420093693578,0.04060585271378122
1.0019303630303453,0.07582159493280267,0.024540551469450573,0.05832937685591873,0.01948270384401892,0.05767145076239458
1.0019774450554757,0.09824195100672209,0.022732724080230332,0.07041397317164165,0.024146198786656626,0.06960813375570234
1.002024527080606,0.1303669711588208,0.018437705560535624,0.07896421651578898,0.02560139359465229,0.07811317613462544
1.0020716091057364,0.17464242099810953,0.014805445017183162,0.08832693698111686,0.027642043309168474,0.08741426649268144
1.0021186911308668,0.22917237164395338,0.0165980452850835,0.11355266104308831,0.03061611367915972,0.11255664753116468
1.0021657731559972,0.2864808872447173,0.022586323438945118,0.14880372324738836,0.035411292560915214,0.14768938405919907
1.0022128551811276,0.335488571803669,0.028180781234330626,0.17945522269565434,0.041321749141762905,0.17821452339785343
1.002259937206258,0.3667004160945303,0.03237208380738803,0.20044309409803335,0.04667493678765049,0.19910351448241226
1.0023070192313883,0.37630521047742305,0.034902307301506265,0.20989430295355302,0.05026398433173569,0.20849224162693883
1.0023541012565187,0.3658732131217113,0.03533561216931483,0.20800353236518512,0.052251221783346916,0.20655727692943046
1.002401183281649,0.3393357840705059,0.03514879217818812,0.19716291122807472,0.05216813839090662,0.19569948342870058
1.0024482653067794,0.30043566038503033,0.03353075878416228,0.1783931936762516,0.04779685066536814,0.1769978385629612
1.0024953473319098,0.25183659939415354,0.027352933855970783,0.15384153094853617,0.03928037112501469,0.1526289139248641
1.0025424293570402,0.1956066522565673,0.01944417070722084,0.12081929242955049,0.026752333290454396,0.11993658675480487
1.0025895113821706,0.13475970805500284,0.010922298724112975,0.07564140824241966,0.0127625675766547,0.07519074286125656
1.002636593407301,0.07582916802294695,0.004624414597123894,0.025728531183742454,0.001447231691129441,0.025667113701539734
1.0026836754324313,0.03145358980808763,0.005704332470544388,-0.0040036080406334615,-0.0030016434738815425,-0.0039027631589843284
1.0027307574575617,0.01779891286180085,0.012398133185582685,-0.006351274616742859,0.0019364382245808135,-0.006411522219728594
1.002777839482692,0.04358985242398123,0.011235457862117736,0.006591376950054447,0.010968274854950619,0.00622755153221523
1.0028249215078224,0.1037077589167159,0.011244883478468774,0.04281328660270074,0.021142892376409452,0.04210623168541522
1.0028720035329528,0.18101238562213362,0.02183655024616521,0.0979436666785688,0.022205797410312297,0.09719517481498625
1.0029190855580832,0.25636899888384335,0.03741821992026288,0.15380629462607742,0.028908691524497765,0.15287021111744387
1.0029661675832136,0.31832235074100634,0.04458065284682337,0.19704252226634572,0.034936818420031164,0.19597218225553434
1.003013249608344,0.36361141655314383,0.05035111230819968,0.228525784613192,0.03487061960673153,0.22748138069805485
1.0030603316334743,0.39341420767750745,0.05428093609413133,0.24979870354304085,0.034634109320460356,0.2487776139320597
1.0031074136586047,0.4102870696014962,0.056036329289158575,0.26258314989231946,0.034401160227671174,0.2615784060791189
1.003154495683735,0.41662904201390033,0.056953252581552954,0.266777273312063,0.0332276052559624,0.2658011085094587
1.0032015777088654,0.41405085665469693,0.05655559375771826,0.26326150551395927,0.031317776801021054,0.2623237557256929
1.0032486597339958,0.4030953535584088,0.05479186987034196,0.251751202986526,0.028534511370787073,0.2508685370764379
1.0032957417591262,0.38301151602067063,0.05157703964033512,0.2324239377319079,0.024545599674410466,0.23162821645470116
1.0033428237842565,0.3514583105172215,0.0464901740068383,0.2047530276495091,0.01926178987360573,0.2040891223485284
1.003389905809387,0.3042863356687068,0.03957745847505718,0.16911475512504195,0.013000169832972969,0.16863043688270518
1.0034369878345173,0.2364892670841809,0.030859661278054763,0.12615890065588273,0.005568880255531082,0.12591491382498743
1.0034840698596477,0.14805992805189566,0.020905976290912228,0.07745804013496241,-0.0023440810339515985,0.07749300223242273
1.003531151884778,0.05937981673678241,0.012908185746548827,0.035632586371168055,-0.00869096407947137,0.03589992414682683
1.0035782339099084,0.016571701488668728,0.010112048012851014,0.012038086514572617,-0.012933316047925534,0.012457796329489767
1.0036253159350388,0.04141534161646615,0.014596443851464292,0.014399178728297872,-0.011095827097314387,0.01475703811561902
1.0036723979601692,0.0978579156313711,0.022018009071989447,0.03595348541122598,-0.001998493855831221,0.03599972708949186
1.0037194799852995,0.14599333246590304,0.03243344700026767,0.06503465797160808,0.008939287308678259,0.06471012489996791
1.00376656201043,0.17300879075255565,0.0400611049404388,0.0922030709843016,0.01993910193728699,0.09152431765095932
1.0038136440355603,0.18229222765708752,0.04725876259027891,0.11374971918924169,0.027627432823888676,0.11284050332343326
1.0038607260606907,0.18262972424027749,0.052718755515058655,0.12736778710133306,0.032163488370267765,0.12633214756170266
1.003907808085821,0.18292620727983336,0.05791417223212097,0.13485525602086357,0.035692725470269346,0.13372526575050864
1.0039548901109514,0.18798821740501145,0.06020706122306204,0.13913083302593265,0.03911622185618045,0.137911173288599
1.0040019721360818,0.19658928748535154,0.060120057612298376,0.1397247738744464,0.040864689539427936,0.1384591759871328
1.0040490541612122,0.20361099360789395,0.05723695616296046,0.1356935801867525,0.04042959960857359,0.13443624541706473
1.0040961361863425,0.20356945018764083,0.04987825678382016,0.1287855413388881,0.03773648340661404,0.12759603368469802
1.004143218211473,0.19261735903368254,0.041227100458679895,0.11776025800915435,0.034242887813852096,0.11666207407629776
1.0041903002366033,0.1692114287165738,0.03202903489948609,0.09836742477706704,0.028663005353629922,0.0974254043331364
1.0042373822617336,0.13469585530973552,0.022591687783090335,0.07519967777083232,0.02098337967366824,0.07449136418481339
1.004284464286864,0.094068350002802,0.013448486776530008,0.051842634052145065,0.011961862510050837,0.051426586562973726
1.0043315463119944,0.0558705414627791,0.005699075225611533,0.03082107495389939,0.0017832057684262974,0.03074592093559063
1.0043786283371248,0.029785725493520713,0.0006944181503527518,0.019809015244991575,-0.007283820787765235,0.020038202503857256
1.0044257103622551,0.022326134922130727,-0.0016630181948182419,0.01684685304795892,-0.013577394002933436,0.01728559444123956
1.0044727923873855,0.03362727707623793,-0.0018304632299477235,0.01768087969631584,-0.016202610767838438,0.018206226767168487
1.004519874412516,0.057935866130881315,0.00018106269182516902,0.0238553638180855,-0.014830048729617316,0.02433236180405098
1.0045669564376463,0.08691312585069338,0.0036809534745560714,0.038233159934289905,-0.009156477619848382,0.03851454572327588
1.0046140384627766,0.11302745450084833,0.00813403947958365,0.05542672474865837,0.0003681302258077887,0.05538479894540112
1.004661120487907,0.13143773576861661,0.013435931930224578,0.07126698378066398,0.011082316657858526,0.07087131938836036
1.0047082025130374,0.140315951549541,0.01851655836237026,0.0817840112464661,0.021834910483843034,0.08104842485200106
1.0047552845381678,0.14016084842095028,0.02007745664282411,0.0846685751900148,0.030840847267471317,0.08365927459152062
1.0048023665632981,0.13271042804166153,0.020012360196054502,0.08028160564993014,0.03740955600820134,0.07907506080757669
1.0048494485884285,0.1199532079956697,0.017062505866462258,0.06958311394397716,0.04280622868619376,0.06821034451735904
1.0048965306135589,0.10352759540252561,0.01546680439776577,0.05738407400153901,0.04457636702747428,0.05594987386743757
1.0049436126386893,0.08458770500586026,0.011800399269088421,0.04469505929439128,0.04215608098799316,0.04332722929102863
1.0049906946638196,0.06411017510052013,0.008718684254761362,0.03435472552873721,0.03604490370694998,0.03317450195989437
1.00503777668895,0.043500849939608656,0.004682998164236467,0.022887706523455283,0.029141861440085886,0.021927124955185725
1.0050848587140804,0.02497562650004661,0.0018288847529468499,0.013888116903115118,0.02200887327682348,0.013160299644893934
1.0051319407392107,0.011013597455985432,0.002945584371980476,0.011624969459267675,0.014409427171293426,0.011146123385557195
1.0051790227643411,0.003334338693202587,0.00455007295298916,0.009001101837417943,0.006629782024853023,0.008778453532481306
1.0052261047894715,0.0027948227754708652,0.001979924517856532,0.005716764128480125,-0.0016277610751837754,0.005767201770744889
1.0052731868146019,0.010164673003053454,-0.0012845098799995046,0.005314070387151807,-0.007914387494698437,0.005571600119671393
1.0053202688397322,0.026566180290056158,-0.004471109012244071,0.008193549268036414,-0.013503180490395771,0.008633869468519099
1.0053673508648626,0.05291846997433676,-0.007289798314892148,0.011498759854167706,-0.01558992774542903,0.012006522353324025
1.005414432889993,0.08828034555015178,-0.00819049035493682,0.017065936640710815,-0.014667157056180458,0.01754066502801893
1.0054615149151234,0.12763762777320273,-0.008285715376068932,0.025647230237824777,-0.011173923642123537,0.026002045552319494
1.0055085969402537,0.16155770115500132,-0.008414818978554296,0.038076850744054896,-0.005121186144095226,0.03822481795542313
1.0055556789653841,0.18078890709766565,-0.007174281257988183,0.05135766337998839,0.0024443096419258493,0.051250060586422286
1.0056027609905145,0.18307418566708303,-0.00670892885782997,0.06056084021799014,0.01034847040499618,0.060193003189341954
1.0056498430156449,0.1741533504439713,-0.004787602206063783,0.06655908741414072,0.01683283240516979,0.06598270613689065
1.0056969250407752,0.16242605985016223,-0.0033064799260577897,0.07063087442771013,0.02309513079080608,0.06985760959746636
1.0057440070659056,0.15418810481596457,-0.0031851472822472145,0.07107575192890922,0.026414468265846154,0.07019981319297645
1.005791089091036,0.1523552110015489,-0.004403653365139785,0.0660360559428213,0.027701316764928874,0.06512037786691574
1.0058381711161664,0.15691036178882456,-0.004475839562023643,0.06130313889977103,0.027966783000435768,0.06037913923379676
1.0058852531412967,0.16538784679386007,-0.002049078800487053,0.06307528196508604,0.02697760213395185,0.062181987324838275
1.005932335166427,0.17322460684996496,0.0014694086762694907,0.06323184659303546,0.024446429852545176,0.06241727610170255
1.0059794171915575,0.17475929729964576,0.0036275530763794,0.05880087400333982,0.020786456422700137,0.05810169646970917
1.0060264992166879,0.16548577922015562,0.0047742284899610805,0.05204155960234529,0.016833046431384183,0.051469485007982964
1.0060735812418182,0.1445721481217929,0.00483164582357187,0.04234591607178599,0.012942936245387789,0.041902104789882086
1.0061206632669486,0.11538472372115638,0.0032433381398536596,0.03266210113426135,0.008044389731748217,0.03238140859959146
1.006167745292079,0.08342022676517998,0.0005264286775542422,0.0259645785337829,0.0034701595606041057,0.02583671212018973
1.0062148273172093,0.053714935068683495,-0.0004653072315035117,0.01794830890199036,0.0007320548467973043,0.01791455137923315
1.0062619093423397,0.029620632829972474,-0.0008104765767499863,0.006428025048282717,-0.0026479372766897275,0.006511635845648241
1.00630899136747,0.012907514843990737,-0.0006409134803732057,-0.004503164505502606,-0.004697430992196113,-0.004346321324904972
1.0063560733926005,0.004292560353454192,0.0006080087094976451,-0.010519166817943732,-0.004813636817588534,-0.010355343273889482
1.0064031554177308,0.0038095921685766332,0.0034942062657741966,-0.007972360122875525,-0.004835879532360794,-0.0078091423834084055
1.0064502374428612,0.010924293923755681,0.008498876589554815,0.0013341291502741227,-0.001904047372674516,0.001396018820777324
1.0064973194679916,0.02453035587728399,0.012143007113167917,0.011333716656649779,0.002112571492494636,0.011258161636368846
1.006544401493122,0.042966387475684646,0.014158084111302364,0.020787738978896356,0.005937266692444386,0.02058176175737255
1.0065914835182523,0.06411092062196938,0.014206696757676156,0.03329944681240632,0.00802648501107557,0.033019030938353636
1.0066385655433827,0.08556714248621351,0.015219335161800508,0.049462130528264495,0.010037102339604712,0.049109078526309524
1.006685647568513,0.10493697207975199,0.017154548434090762,0.06485229624100503,0.011842592790413106,0.06443490363180226
1.0067327295936435,0.12014720761669652,0.0180647986722162,0.07640706666955516,0.013841097112150416,0.07592205093395572
1.0067798116187738,0.12974860817624662,0.01655402245410907,0.08294186479002422,0.014726401189868133,0.08242692096347921
1.0068268936439042,0.1331160769266914,0.01597778186417804,0.08436945777741765,0.014398714657369723,0.08386434712787494
1.0068739756690346,0.13051634907150206,0.01475856463690934,0.08386978816652868,0.012669214607083314,0.08341917557015954
1.006921057694165,0.12301693370584733,0.012828843777162664,0.08185258015702256,0.009533873338267941,0.08150193147688096
1.0069681397192953,0.11219272060745543,0.009091974841065456,0.07585112215539112,0.0053366344252290705,0.0756374401402147
1.0070152217444257,0.09964098937742749,0.00483420752550001,0.06985230351433948,0.0003307916313643446,0.06980392070744294
1.007062303769556,0.08648287672211809,0.000927423978469236,0.06302251331950957,-0.003204205854619433,0.06309362433171772
1.0071093857946865,0.07315337862299943,-0.0021772569811342687,0.053521194673379444,-0.006044470904943122,0.053691211805530756
1.0071564678198168,0.05967551136841471,-0.0060679515137970885,0.042771215350936226,-0.008963153818698881,0.04304376739094153
1.0072035498449472,0.046352747241279996,-0.00999595973524701,0.029687677967592516,-0.011568609551161416,0.030053537124064215
1.0072506318700776,0.03458526276589038,-0.012554843926531379,0.01916866027493343,-0.012698331667396855,0.019577187093528466
1.007297713895208,0.02727830692374265,-0.012774762655549261,0.01473006896934623,-0.012511094870076216,0.015134541011176542
1.0073447959203383,0.0280866607277734,-0.011959253871997061,0.01711698325886342,-0.011315758259054455,0.01748076577190753
1.0073918779454687,0.03925806445151868,-0.009237397436374176,0.028584290137595406,-0.008950083379073248,0.028863932799891346
1.007438959970599,0.059562255279517966,-0.00490400964512537,0.043832242766228824,-0.004996461276315677,0.043972952291708674
1.0074860419957294,0.08449757331606145,0.00018714794110997373,0.058037587268334905,-0.0014106254094872442,0.05805251622781606
1.0075331240208598,0.10858230355013457,0.004538255522139862,0.06858033205585247,0.0027899319613662803,0.06845259275303779
1.0075802060459902,0.12742598805780986,0.009485088061750769,0.07621925524513734,0.007489114109819435,0.07593627277256498
1.0076272880711206,0.13840784538629322,0.012989673015541298,0.07904744927672683,0.010687263595658377,0.07866128807293715
1.007674370096251,0.14057521646913557,0.014247405382392764,0.0769603579802706,0.013731278689283392,0.0764786225351049
