freq,gls,usurper,pdc_unbiased,shape_periodogram,shift_periodogram
1.0,0.02176245538732735,0.021568486518725442,-0.007335655112181927,-0.0020618459470962284,-0.007230571883884212
1.0000470820251304,0.05134779247241603,0.03414636833664741,0.016081221596065367,0.0059046417771611605,0.015786059148224892
1.0000941640502607,0.09689124580742478,0.04653236895733624,0.05094334186944231,0.020942306930303252,0.04991666797193027
1.0001412460753911,0.14848755125694818,0.05948162916281148,0.08456655871201842,0.03580744377010968,0.0828596972169
1.0001883281005215,0.19664060203551523,0.07016904291700211,0.10917973127593883,0.04951241476203773,0.106901498750836
1.0002354101256519,0.23592916525893703,0.07645791425390336,0.12678225514793529,0.05908917971935623,0.1241434559167491
1.0002824921507822,0.26363730657080775,0.07841803495552611,0.13936052532630389,0.06358998560200745,0.1365740736194095
1.0003295741759126,0.2780607972143743,0.07949835037787181,0.14663287491158739,0.06606530982967607,0.14377149476873743
1.000376656201043,0.27778293516045677,0.07986264116951519,0.14742341655727248,0.0668495290960468,0.1445354922098021
1.0004237382261734,0.2619162710265795,0.07695035667572174,0.139633635428265,0.0660433142292103,0.1367567797377774
1.0004708202513037,0.23107843684954268,0.07027156522478009,0.12167319492364326,0.0627789502733978,0.11888231413865553
1.0005179022764341,0.1884924826566669,0.06149617217324903,0.09811663264576473,0.057675924515747656,0.09549152243148326
1.0005649843015645,0.1401213853463462,0.05493911235248015,0.07552593926328457,0.05256017276113924,0.07309134055798308
1.0006120663266949,0.09311329616242185,0.050985457501470335,0.056936636782797936,0.046908196158058066,0.05473767731422851
1.0006591483518252,0.05338098213176131,0.051673727702702454,0.04656239048066332,0.04015050452461008,0.04466415519337003
1.0007062303769556,0.024158292773911582,0.05239682963080817,0.0379052596807291,0.0321791198913524,0.03637163289719426
1.000753312402086,0.006389706849983347,0.05096373767217216,0.024925530867037873,0.02266014512843203,0.023839119205071105
1.0008003944272164,4.4957735270936574e-05,0.05147498659351151,0.013623927240606612,0.013972421090135818,0.012953042203025653
1.0008474764523467,0.004476680458159687,0.04838603282124106,0.005279248516488982,0.010781090495068498,0.004766572101634348
1.000894558477477,0.016631009383087918,0.04995486990993985,0.00604487589630294,0.012677195418318922,0.005442332286386024
1.0009416405026075,0.030279800796216314,0.05771835105665404,0.01614856324889533,0.019434251953847716,0.01521974034999829
1.0009887225277379,0.04019506929021177,0.06961485446290776,0.031662352407458065,0.03145255728021678,0.03016487834530578
1.0010358045528682,0.045271217739530065,0.0810966168960502,0.049643587368788454,0.04571984619106423,0.04749531031526397
1.0010828865779986,0.04665854735345898,0.0851627691594414,0.06394396252727896,0.06019607748978815,0.06116899295508159
1.001129968603129,0.04557434040645729,0.08578655899178134,0.06951556918541625,0.07146366340618367,0.06626926209012726
1.0011770506282593,0.04281463251624272,0.08036863102952006,0.06676401531502141,0.07756378949880177,0.06325475737144981
1.0012241326533897,0.03911406922799136,0.07161039189349984,0.05756222886158259,0.07975632725942633,0.05393581470341379
1.00127121467852,0.035734840091298535,0.06216414241805401,0.04469056838221148,0.07903398400888227,0.04106197838518865
1.0013182967036505,0.034632288517627896,0.05431219270128841,0.03354469161607427,0.07867389536356102,0.0299050602090967
1.0013653787287808,0.03686446430802818,0.05584877232889274,0.03235087082016887,0.07920064798352369,0.028684821019547023
1.0014124607539112,0.040499198873267514,0.06392411294381337,0.04235422606047071,0.0813210065487899,0.0386192750955732
1.0014595427790416,0.04245011553894062,0.07160017347568236,0.05148956578485458,0.08252472239556319,0.04772755563145308
1.001506624804172,0.04142424671447975,0.07577988526327083,0.057489670337512934,0.07931381612601722,0.05388194854811955
1.0015537068293023,0.03772147907862947,0.07552062239690949,0.05838903434484734,0.07248947968713786,0.05507565697169667
1.0016007888544327,0.032149333674356434,0.0726261246008491,0.05286952532393206,0.0609627754263831,0.05004775936121742
1.001647870879563,0.025799799790141527,0.06680489830959611,0.040386054375886556,0.045672073129537236,0.03823787765784444
1.0016949529046935,0.020580986012262138,0.056934029745017316,0.02276083148008517,0.02902436356005933,0.0213803796018755
1.0017420349298238,0.01993155776046648,0.04916898544237261,0.008396000375120035,0.016076736413261388,0.007631536701847301
1.0017891169549542,0.027489951613850306,0.04677414326371597,0.00883020356959996,0.01276043080960933,0.008220929859441667
1.0018361989800846,0.042074300128446054,0.04690893594217061,0.022145335055818467,0.017481625565820728,0.021302355059976
1.001883281005215,0.05845891480384451,0.05208375215530637,0.04104344236602053,0.027777311849381633,0.03970996429171267
1.0019303630303453,0.07582159493280267,0.06043518623605427,0.05832937685591873,0.03881281468035731,0.0564907559700498
1.0019774450554757,0.09824195100672209,0.06779617220606006,0.07041397317164165,0.04813894008613738,0.06816693549836347
1.002024527080606,0.1303669711588208,0.06687294973173093,0.07896421651578898,0.05514281601853127,0.07642249584776965
1.0020716091057364,0.17464242099810953,0.061152168862821016,0.08832693698111686,0.059961482575862035,0.08559414267469334
1.0021186911308668,0.22917237164395338,0.06449120854984736,0.11355266104308831,0.06498997814733576,0.11065989651020453
1.0021657731559972,0.2864808872447173,0.07342933977994173,0.14880372324738836,0.07094932251111812,0.14577249655195
1.0022128551811276,0.335488571803669,0.08233690856978948,0.17945522269565434,0.07650004023317038,0.17633404418407195
1.002259937206258,0.3667004160945303,0.08834864626623919,0.20044309409803335,0.07985147449814448,0.19729933422193774
1.0023070192313883,0.37630521047742305,0.09081631173748007,0.20989430295355302,0.08035812871195727,0.20677489281524397
1.0023541012565187,0.3658732131217113,0.08946855654991258,0.20800353236518512,0.07809228861314978,0.2049410301309625
1.002401183281649,0.3393357840705059,0.08466920097377037,0.19716291122807472,0.07264811755058372,0.19422350551992176
1.0024482653067794,0.30043566038503033,0.0776867885431573,0.1783931936762516,0.06343403824889879,0.17569988020975186
1.0024953473319098,0.25183659939415354,0.06880132797871207,0.15384153094853617,0.0502152692061252,0.15158200367606775
1.0025424293570402,0.1956066522565673,0.05633816423931434,0.12081929242955049,0.03551980518123211,0.11912668390747494
1.0025895113821706,0.13475970805500284,0.03873439720230538,0.07564140824241966,0.019742729799480857,0.074651797353938
1.002636593407301,0.07582916802294695,0.020386542929074426,0.025728531183742454,0.006994592507238132,0.025371995361498464
1.0026836754324313,0.03145358980808763,0.016382129703662072,-0.0040036080406334615,0.0027019267697620244,-0.0041262835456607905
1.0027307574575617,0.01779891286180085,0.027146634221476923,-0.006351274616742859,0.011563423121852543,-0.006888598202637833
1.002777839482692,0.04358985242398123,0.031660845117854955,0.006591376950054447,0.028738095922711298,0.005234510011465716
1.0028249215078224,0.1037077589167159,0.038186278515923405,0.04281328660270074,0.04614190625719709,0.04064439913298041
1.0028720035329528,0.18101238562213362,0.05288980841581295,0.0979436666785688,0.06182837565759452,0.09514880537869552
1.0029190855580832,0.25636899888384335,0.07424155237464561,0.15380629462607742,0.07275293040128133,0.15072614032644097
1.0029661675832136,0.31832235074100634,0.09418370868472481,0.19704252226634572,0.07430842018735798,0.19405169554448984
1.003013249608344,0.36361141655314383,0.10375757220873723,0.228525784613192,0.07458322136718233,0.22564116960065256
1.0030603316334743,0.39341420767750745,0.10940600444891714,0.24979870354304085,0.07487695135105703,0.24698825956330595
1.0031074136586047,0.4102870696014962,0.11093239327070412,0.26258314989231946,0.0732771207411838,0.25986276802336594
1.003154495683735,0.41662904201390033,0.11031490286198506,0.266777273312063,0.07040466619468926,0.2641438045608517
1.0032015777088654,0.41405085665469693,0.10747466934322195,0.26326150551395927,0.06585773772184558,0.2607325687092963
1.0032486597339958,0.4030953535584088,0.1024162701580229,0.251751202986526,0.059537161519379045,0.24936337735989375
1.0032957417591262,0.38301151602067063,0.09507717951997062,0.2324239377319079,0.05150569132001472,0.23023861846320914
1.0033428237842565,0.3514583105172215,0.0850464320039386,0.2047530276495091,0.04163008147589043,0.20286678905072658
1.003389905809387,0.3042863356687068,0.07206105183736393,0.16911475512504195,0.030144968723341325,0.1676487553207661
1.0034369878345173,0.2364892670841809,0.05676908760357551,0.12615890065588273,0.01749002307496925,0.1252370143808631
1.0034840698596477,0.14805992805189566,0.0397411573629486,0.07745804013496241,0.005000549874204762,0.07714065459239067
1.003531151884778,0.05937981673678241,0.026732593741134694,0.035632586371168055,-0.004233636440303328,0.03579227830495817
1.0035782339099084,0.016571701488668728,0.022644023857944062,0.012038086514572617,-0.005997333569436394,0.0123070287962745
1.0036253159350388,0.04141534161646615,0.03164253413828771,0.014399178728297872,0.002714451641156248,0.014255650452386694
1.0036723979601692,0.0978579156313711,0.04724016615676543,0.03595348541122598,0.016970172926372686,0.03512204429914217
1.0037194799852995,0.14599333246590304,0.06541913861281011,0.06503465797160808,0.03457516258934093,0.06338437689848848
1.00376656201043,0.17300879075255565,0.07934877672570566,0.0922030709843016,0.05208517385769752,0.08980306643772895
1.0038136440355603,0.18229222765708752,0.09050600228899092,0.11374971918924169,0.06512552502438071,0.11085204572809003
1.0038607260606907,0.18262972424027749,0.09803878402913814,0.12736778710133306,0.07659336772484777,0.12406985500218276
1.003907808085821,0.18292620727983336,0.10127493458323582,0.13485525602086357,0.0869789364300149,0.1312137045745988
1.0039548901109514,0.18798821740501145,0.1027808688225374,0.13913083302593265,0.0922108145734782,0.1353297220293819
1.0040019721360818,0.19658928748535154,0.10253378233767067,0.1397247738744464,0.09345267130677118,0.13588495795229133
1.0040490541612122,0.20361099360789395,0.10263639428702287,0.1356935801867525,0.09061367056671372,0.13193054054742595
1.0040961361863425,0.20356945018764083,0.09865018337482868,0.1287855413388881,0.08597934120908256,0.12515417924406494
1.004143218211473,0.19261735903368254,0.0880002241056457,0.11776025800915435,0.0778527389320797,0.11438573511019981
1.0041903002366033,0.1692114287165738,0.07418012343794675,0.09836742477706704,0.06714889013715143,0.09535847341393447
1.0042373822617336,0.13469585530973552,0.05879011346159966,0.07519967777083232,0.054363578635130555,0.0726875276483613
1.004284464286864,0.094068350002802,0.044906445478419134,0.051842634052145065,0.039525585400333206,0.049972330626869774
1.0043315463119944,0.0558705414627791,0.033313905853968276,0.03082107495389939,0.02435627914104619,0.029651658955662484
1.0043786283371248,0.029785725493520713,0.026570593742483353,0.019809015244991575,0.01127104577256228,0.019258446597905775
1.0044257103622551,0.022326134922130727,0.024471958420272385,0.01684685304795892,0.0015605486034363791,0.016754855156037717
1.0044727923873855,0.03362727707623793,0.02642389375126,0.01768087969631584,-0.002406397073599782,0.01777450628306955
1.004519874412516,0.057935866130881315,0.031722819143317725,0.0238553638180855,-0.0009967174597206832,0.023875828682517083
1.0045669564376463,0.08691312585069338,0.04057183624164353,0.038233159934289905,0.006367635278592781,0.03789279157899613
1.0046140384627766,0.11302745450084833,0.051524113512517226,0.05542672474865837,0.018866763278605134,0.05449177342524296
1.004661120487907,0.13143773576861661,0.06077139112592988,0.07126698378066398,0.032526302969033645,0.06970657354181987
1.0047082025130374,0.140315951549541,0.06728792651080613,0.0817840112464661,0.045664074938477066,0.0796495794566084
1.0047552845381678,0.14016084842095028,0.06919246700665023,0.0846685751900148,0.05652890136874288,0.08207443671372658
1.0048023665632981,0.13271042804166153,0.0670430624038439,0.08028160564993014,0.06318698774931296,0.07740241196275024
1.0048494485884285,0.1199532079956697,0.0627754010255625,0.06958311394397716,0.06853932031711198,0.06646033583513854
1.0048965306135589,0.10352759540252561,0.05642947184014145,0.05738407400153901,0.0698737834668836,0.054181307730230575
1.0049436126386893,0.08458770500586026,0.04797600955613374,0.04469505929439128,0.06755230606398838,0.04157174302620503
1.0049906946638196,0.06411017510052013,0.040115001697230375,0.03435472552873721,0.06309865776755975,0.03141600332055508
1.00503777668895,0.043500849939608656,0.03264079258159767,0.022887706523455283,0.05674738415973155,0.020227498557244306
1.0050848587140804,0.02497562650004661,0.0261816099710137,0.013888116903115118,0.04834832638255658,0.011612635417781587
1.0051319407392107,0.011013597455985432,0.022773183630812852,0.011624969459267675,0.03960689810810236,0.009757019054419204
1.0051790227643411,0.003334338693202587,0.02038157574789043,0.009001101837417943,0.03021474256984663,0.0075734795194653225
1.0052261047894715,0.0027948227754708652,0.016051758088682002,0.005716764128480125,0.021975146604714793,0.004677924449331315
1.0052731868146019,0.010164673003053454,0.011733124869536827,0.005314070387151807,0.013767630561053528,0.004661042048993675
1.0053202688397322,0.026566180290056158,0.009687386726347273,0.008193549268036414,0.0051875079916716554,0.007940596903544095
1.0053673508648626,0.05291846997433676,0.010288206106411698,0.011498759854167706,0.0009512106216518643,0.011441303398586912
1.005414432889993,0.08828034555015178,0.014221905325965973,0.017065936640710815,-0.00038315656766109505,0.017065067851988282
1.0054615149151234,0.12763762777320273,0.018320040749358134,0.025647230237824777,0.000586128051431116,0.025591319848991673
1.0055085969402537,0.16155770115500132,0.02283776862233159,0.038076850744054896,0.006205061182713681,0.03774423876656285
1.0055556789653841,0.18078890709766565,0.02722828941955782,0.05135766337998839,0.01582865723152251,0.050565617132507006
1.0056027609905145,0.18307418566708303,0.029791813928436564,0.06056084021799014,0.02701327478576509,0.05925174901262925
1.0056498430156449,0.1741533504439713,0.031077272817702582,0.06655908741414072,0.034717397468749564,0.06490218876683505
1.0056969250407752,0.16242605985016223,0.03136879341435584,0.07063087442771013,0.041022717782264066,0.06869498008211232
1.0057440070659056,0.15418810481596457,0.03072776325673808,0.07107575192890922,0.044329537627113016,0.06899506114555598
1.005791089091036,0.1523552110015489,0.02880548150743854,0.0660360559428213,0.04479611609936108,0.06393334779769216
1.0058381711161664,0.15691036178882456,0.027493442512805517,0.06130313889977103,0.04470174035780577,0.059203212238020934
1.0058852531412967,0.16538784679386007,0.02898373577225846,0.06307528196508604,0.044416525108340835,0.06098843103927031
1.005932335166427,0.17322460684996496,0.028063254411290445,0.06323184659303546,0.04257393987800382,0.061226411740204836
1.0059794171915575,0.17475929729964576,0.025706790202207664,0.05880087400333982,0.03870868524900072,0.05696688518706582
1.0060264992166879,0.16548577922015562,0.023018041044907008,0.05204155960234529,0.03373730776030997,0.05043201935290893
1.0060735812418182,0.1445721481217929,0.019934605157351366,0.04234591607178599,0.026818766644749723,0.041055631527599855
1.0061206632669486,0.11538472372115638,0.01745752975083849,0.03266210113426135,0.017930172362448593,0.031788989028512765
1.006167745292079,0.08342022676517998,0.014232431737335164,0.0259645785337829,0.009535083806571112,0.025488941070263095
1.0062148273172093,0.053714935068683495,0.012984640445223228,0.01794830890199036,0.003383072300058133,0.01776948990129603
1.0062619093423397,0.029620632829972474,0.011729027567337041,0.006428025048282717,-0.0006735144922853524,0.006452590711640333
1.00630899136747,0.012907514843990737,0.01124881727676675,-0.004503164505502606,-0.0008099760357804293,-0.004460082249310554
1.0063560733926005,0.004292560353454192,0.012186609869259298,-0.010519166817943732,0.002035218289582125,-0.010603264153073385
1.0064031554177308,0.0038095921685766332,0.015940675690247253,-0.007972360122875525,0.0068788563636344,-0.008287272603541306
1.0064502374428612,0.010924293923755681,0.02466129446193595,0.0013341291502741227,0.01791626160993678,0.0004899736200318078
1.0064973194679916,0.02453035587728399,0.03276424022320403,0.011333716656649779,0.0301807562254074,0.009906260028204428
1.006544401493122,0.042966387475684646,0.03937213850614055,0.020787738978896356,0.042335292395289846,0.018791348710513644
1.0065914835182523,0.06411092062196938,0.043428529012775115,0.03329944681240632,0.04998858697298227,0.030953520705973174
1.0066385655433827,0.08556714248621351,0.04749361949679328,0.049462130528264495,0.05301565292580797,0.046988332754589544
1.006685647568513,0.10493697207975199,0.0512443395879202,0.06485229624100503,0.05292315323963263,0.0623935354011622
1.0067327295936435,0.12014720761669652,0.053198955385833815,0.07640706666955516,0.05064731158985061,0.0740552687841692
1.0067798116187738,0.12974860817624662,0.05286003766986874,0.08294186479002422,0.046443011361658425,0.08077453068496972
1.0068268936439042,0.1331160769266914,0.05314729062940984,0.08436945777741765,0.040583131036600543,0.08245506936504222
1.0068739756690346,0.13051634907150206,0.049993798286899815,0.08386978816652868,0.03377246219074197,0.08225197588911262
1.006921057694165,0.12301693370584733,0.04340271698216289,0.08185258015702256,0.027965531503317834,0.08049135511766527
1.0069681397192953,0.11219272060745543,0.035237230062858366,0.07585112215539112,0.02178376685207182,0.07476929777973491
1.0070152217444257,0.09964098937742749,0.028151850076349436,0.06985230351433948,0.015406043374741905,0.06906406627892829
1.007062303769556,0.08648287672211809,0.02247081027786388,0.06302251331950957,0.010034015987927592,0.06248695622627009
1.0071093857946865,0.07315337862299943,0.019428234758764602,0.053521194673379444,0.005419060880522869,0.05320907977441692
1.0071564678198168,0.05967551136841471,0.01738122079346933,0.042771215350936226,0.0014657645656635896,0.042655243281882305
1.0072035498449472,0.046352747241279996,0.013477707518401296,0.029687677967592516,-0.0017908873040413712,0.029739021896640835
1.0072506318700776,0.03458526276589038,0.011197358949540421,0.01916866027493343,-0.002872387244251054,0.01928256779977883
1.007297713895208,0.02727830692374265,0.010429007767647155,0.01473006896934623,-0.0029138883953039423,0.014850851049348674
1.0073447959203383,0.0280866607277734,0.01257618548616855,0.01711698325886342,-0.001499931865691183,0.017168584579926458
1.0073918779454687,0.03925806445151868,0.019405195936948727,0.028584290137595406,0.0029647061372646013,0.02841351338821449
1.007438959970599,0.059562255279517966,0.028058785434790175,0.043832242766228824,0.008870844422464228,0.043369434182697585
1.0074860419957294,0.08449757331606145,0.035766123587155745,0.058037587268334905,0.014940587859164474,0.05728064301976117
1.0075331240208598,0.10858230355013457,0.041146899571124995,0.06858033205585247,0.021833815264129277,0.06750087155383962
1.0075802060459902,0.12742598805780986,0.045236678315787725,0.07621925524513734,0.026523368505922938,0.07492461733337508
1.0076272880711206,0.13840784538629322,0.04603867027831019,0.07904744927672683,0.029179944613532117,0.07763336332092197
1.007674370096251,0.14057521646913557,0.044165026863380336,0.0769603579802706,0.031397663981912946,0.07544857763078713
1.0077214521213813,0.1345761316442056,0.041264063265882486,0.07084930100861353,0.031270029133372186,0.06934492504965198
1.0077685341465117,0.12269802495893224,0.03651467094047587,0.062425783036096825,0.02876010141544563,0.06103698007130938
