freq,gls,usurper,pdc_unbiased,shape_periodogram,shift_periodogram
1.0,0.02176245538732735,0.014210300767617434,-0.007335655112181927,0.0077944250230686,-0.0075035036017207365
1.0000470820251304,0.05134779247241603,0.018648414765437434,0.016081221596065367,0.007972193433421811,0.01590476822353463
1.0000941640502607,0.09689124580742478,0.02517713205125192,0.05094334186944231,0.011963144391433063,0.05067601851380702
1.0001412460753911,0.14848755125694818,0.031045409709975665,0.08456655871201842,0.02041258137566465,0.08412531309173271
1.0001883281005215,0.19664060203551523,0.03738418344626733,0.10917973127593883,0.032897891191884646,0.10851011585789883
1.0002354101256519,0.23592916525893703,0.04367867044650788,0.12678225514793529,0.043459373344288024,0.1259480794232372
1.0002824921507822,0.26363730657080775,0.04777836017308042,0.13936052532630389,0.04974754553309498,0.13844651715082057
1.0003295741759126,0.2780607972143743,0.050496091704720636,0.14663287491158739,0.052885370522229525,0.14568596670290937
1.000376656201043,0.27778293516045677,0.051174702787631296,0.14742341655727248,0.05502336096460219,0.14644931127460709
1.0004237382261734,0.2619162710265795,0.04906256272792967,0.139633635428265,0.05535082467984448,0.13864174446072455
1.0004708202513037,0.23107843684954268,0.04453849446351353,0.12167319492364326,0.053138582270958995,0.12068356294617422
1.0005179022764341,0.1884924826566669,0.038549422233487625,0.09811663264576473,0.04969388947431843,0.09714815871581543
1.0005649843015645,0.1401213853463462,0.03416243223150487,0.07552593926328457,0.04603540385109082,0.07459497396930842
1.0006120663266949,0.09311329616242185,0.031582112347980265,0.056936636782797936,0.04155685386127137,0.056072844414594356
1.0006591483518252,0.05338098213176131,0.031407431292184734,0.04656239048066332,0.03539523398711663,0.0458134158778317
1.0007062303769556,0.024158292773911582,0.031023590897708744,0.0379052596807291,0.027585168735506597,0.03731236952171425
1.000753312402086,0.006389706849983347,0.03137523600505642,0.024925530867037873,0.018571041051782464,0.02452071197331515
1.0008003944272164,4.4957735270936574e-05,0.03226617132486149,0.013623927240606612,0.011126011931636957,0.013379846138829718
1.0008474764523467,0.004476680458159687,0.03150193190327916,0.005279248516488982,0.009076716977811409,0.005080989721790718
1.000894558477477,0.016631009383087918,0.03570361761674311,0.00604487589630294,0.012064440931115687,0.005781732839542528
1.0009416405026075,0.030279800796216314,0.0434339969050291,0.01614856324889533,0.019278147207114658,0.015728935072753178
1.0009887225277379,0.04019506929021177,0.052767920503796535,0.031662352407458065,0.03138499663778504,0.030989168466762966
1.0010358045528682,0.045271217739530065,0.05921342576497884,0.049643587368788454,0.04649677757827366,0.04867773740455039
1.0010828865779986,0.04665854735345898,0.06479851231450788,0.06394396252727896,0.060780254040726386,0.06273166996039121
1.001129968603129,0.04557434040645729,0.06885048430389583,0.06951556918541625,0.07192790854820069,0.06812299498333016
1.0011770506282593,0.04281463251624272,0.06968931377107689,0.06676401531502141,0.0775237075774294,0.06527035902270537
1.0012241326533897,0.03911406922799136,0.065985497274559,0.05756222886158259,0.07777708159573014,0.056036012254303914
1.00127121467852,0.035734840091298535,0.059334002886172924,0.04469056838221148,0.07504703570380294,0.04317556185017699
1.0013182967036505,0.034632288517627896,0.05337609907197125,0.03354469161607427,0.0721373749190269,0.03205524467713998
1.0013653787287808,0.03686446430802818,0.049721266590406585,0.03235087082016887,0.07012229171868593,0.030897805995802753
1.0014124607539112,0.040499198873267514,0.04974043654665939,0.04235422606047071,0.07014103576281089,0.04092471477618047
1.0014595427790416,0.04245011553894062,0.052148452653105574,0.05148956578485458,0.07181337698118848,0.05005191584988279
1.001506624804172,0.04142424671447975,0.05309841333639733,0.057489670337512934,0.06946379782443479,0.05610913802067754
1.0015537068293023,0.03772147907862947,0.05355025516002951,0.05838903434484734,0.06240699094689244,0.05713701937406512
1.0016007888544327,0.032149333674356434,0.0509622437850416,0.05286952532393206,0.05174537427472856,0.05180652142956512
1.001647870879563,0.025799799790141527,0.04530437064037069,0.040386054375886556,0.037318987068781576,0.03959510493334964
1.0016949529046935,0.020580986012262138,0.03653337732674107,0.02276083148008517,0.022457212567697837,0.0222734688820872
1.0017420349298238,0.01993155776046648,0.032226700447201245,0.008396000375120035,0.01174166134645135,0.008139468724846038
1.0017891169549542,0.027489951613850306,0.0315106319280068,0.00883020356959996,0.009979497322186554,0.008611726117978846
1.0018361989800846,0.042074300128446054,0.03198495300755351,0.022145335055818467,0.014309073124268828,0.021831644011211026
1.001883281005215,0.05845891480384451,0.03767285023749007,0.04104344236602053,0.023665959802972224,0.04053214181262205
1.0019303630303453,0.07582159493280267,0.04302197621921202,0.05832937685591873,0.03510202814044157,0.05759212512042914
1.0019774450554757,0.09824195100672209,0.0452719498445776,0.07041397317164165,0.04848644629703568,0.06943283753133137
1.002024527080606,0.1303669711588208,0.04177444954727401,0.07896421651578898,0.0573567768487877,0.07783819259768064
1.0020716091057364,0.17464242099810953,0.037150135042125464,0.08832693698111686,0.06341347190373296,0.08711817460077918
1.0021186911308668,0.22917237164395338,0.037884476661302915,0.11355266104308831,0.06826497218170471,0.11232981961982628
1.0021657731559972,0.2864808872447173,0.042273443081619885,0.14880372324738836,0.07319485751372237,0.14761824088027375
1.0022128551811276,0.335488571803669,0.04674326201596909,0.17945522269565434,0.07776929005814857,0.17832755523281968
1.002259937206258,0.3667004160945303,0.049255782177018974,0.20044309409803335,0.0805785236020495,0.1993729820910234
1.0023070192313883,0.37630521047742305,0.049617134645470344,0.20989430295355302,0.08102425725811419,0.20885733365805825
1.0023541012565187,0.3658732131217113,0.048267340528638555,0.20800353236518512,0.07931741160824701,0.20696704372795496
1.002401183281649,0.3393357840705059,0.047125622306015774,0.19716291122807472,0.07594225657095188,0.19610712651093937
1.0024482653067794,0.30043566038503033,0.04563437351608463,0.1783931936762516,0.06793739591991549,0.17734241004788784
1.0024953473319098,0.25183659939415354,0.04166302771216712,0.15384153094853617,0.05416820622794062,0.15288948381874856
1.0025424293570402,0.1956066522565673,0.0340707395621054,0.12081929242955049,0.036752924447730546,0.12008983974226983
1.0025895113821706,0.13475970805500284,0.026864060893561026,0.07564140824241966,0.01644894216016171,0.07527940345313558
1.002636593407301,0.07582916802294695,0.022523833582365756,0.025728531183742454,0.0004946711581139047,0.025711725538150203
1.0026836754324313,0.03145358980808763,0.020045618478178363,-0.0040036080406334615,-0.0002693411895734291,-0.003996810500611628
1.0027307574575617,0.01779891286180085,0.021999884956654704,-0.006351274616742859,0.01484568783682329,-0.006673074546863128
1.002777839482692,0.04358985242398123,0.023778086222381707,0.006591376950054447,0.036172623218966596,0.005807665357176458
1.0028249215078224,0.1037077589167159,0.034724328568134545,0.04281328660270074,0.05369796763359699,0.04169956149123568
1.0028720035329528,0.18101238562213362,0.05030503968759994,0.0979436666785688,0.06329653504880624,0.09675705422462161
1.0029190855580832,0.25636899888384335,0.06426186282074768,0.15380629462607742,0.067366572839414,0.1526969813416387
1.0029661675832136,0.31832235074100634,0.07214966737688562,0.19704252226634572,0.06866099240026022,0.19603616984956518
1.003013249608344,0.36361141655314383,0.07704298721682386,0.228525784613192,0.06876034360037961,0.22760618650379813
1.0030603316334743,0.39341420767750745,0.07850485067404675,0.24979870354304085,0.06635253598443748,0.24894842442335544
1.0031074136586047,0.4102870696014962,0.07742613386026788,0.26258314989231946,0.06359029262979018,0.26177697476025774
1.003154495683735,0.41662904201390033,0.07522043906803706,0.266777273312063,0.06002618481166299,0.26599632920412714
1.0032015777088654,0.41405085665469693,0.07172867151469581,0.26326150551395927,0.055371325525359,0.2624978483227683
1.0032486597339958,0.4030953535584088,0.0669091937912998,0.251751202986526,0.049444594299292974,0.2510089235599471
1.0032957417591262,0.38301151602067063,0.0606964776706687,0.2324239377319079,0.04234942458607276,0.23172179861798142
1.0033428237842565,0.3514583105172215,0.052849066976895086,0.2047530276495091,0.033996741931734756,0.20412686356970447
1.003389905809387,0.3042863356687068,0.0430998625242214,0.16911475512504195,0.024782591688939076,0.16861063293648157
1.0034369878345173,0.2364892670841809,0.03209946942498364,0.12615890065588273,0.015004472242426537,0.12582522283863481
1.0034840698596477,0.14805992805189566,0.021198349303766528,0.07745804013496241,0.0053834265649380835,0.07732504694776009
1.003531151884778,0.05937981673678241,0.01433796762286214,0.035632586371168055,-0.0015150938959348536,0.03565708387588269
1.0035782339099084,0.016571701488668728,0.014859294964858253,0.012038086514572617,-0.003050543505263544,0.012101572279226485
1.0036253159350388,0.04141534161646615,0.02453582825912115,0.014399178728297872,0.004126649020815295,0.014306260487617689
1.0036723979601692,0.0978579156313711,0.04024321154068106,0.03595348541122598,0.01896155647218594,0.03554015922163759
1.0037194799852995,0.14599333246590304,0.05942809339896281,0.06503465797160808,0.033917197358170864,0.06432384711704503
1.00376656201043,0.17300879075255565,0.07321665765896974,0.0922030709843016,0.04715098743123638,0.09127049234998341
1.0038136440355603,0.18229222765708752,0.08279100880674195,0.11374971918924169,0.055356937983758785,0.11271400990898783
1.0038607260606907,0.18262972424027749,0.08718124136608461,0.12736778710133306,0.0605424348582985,0.12628217805276395
1.003907808085821,0.18292620727983336,0.08945826415067298,0.13485525602086357,0.06557001738160062,0.13372012926903395
1.0039548901109514,0.18798821740501145,0.09125587691354946,0.13913083302593265,0.06993214163745375,0.13795381778946794
1.0040019721360818,0.19658928748535154,0.08987031571770097,0.1397247738744464,0.07208643901199335,0.13852467945402594
1.0040490541612122,0.20361099360789395,0.08450346600987181,0.1356935801867525,0.07270748324894219,0.13447468535060642
1.0040961361863425,0.20356945018764083,0.07608758192835749,0.1287855413388881,0.07040469503243743,0.127574692735568
1.004143218211473,0.19261735903368254,0.06703515080483619,0.11776025800915435,0.06794175273657922,0.11655240929250733
1.0041903002366033,0.1692114287165738,0.055872264146044195,0.09836742477706704,0.06163634222194582,0.09720732300375808
1.0042373822617336,0.13469585530973552,0.04352980590165561,0.07519967777083232,0.05119647956797511,0.07417558654960889
1.004284464286864,0.094068350002802,0.03087755434649206,0.051842634052145065,0.03931912720160778,0.051018788582667486
1.0043315463119944,0.0558705414627791,0.019798773338183712,0.03082107495389939,0.025870146122860888,0.03026257297593765
1.0043786283371248,0.029785725493520713,0.012968663103256367,0.019809015244991575,0.012961228951175487,0.019524505955263758
1.0044257103622551,0.022326134922130727,0.010207061607553114,0.01684685304795892,0.0030378786299507443,0.016776971288652708
1.0044727923873855,0.03362727707623793,0.010925169630895404,0.01768087969631584,-0.001752514598540217,0.01771479644321555
1.004519874412516,0.057935866130881315,0.014690531650221881,0.0238553638180855,-0.0014485147117483791,0.023881207804110884
1.0045669564376463,0.08691312585069338,0.02090465773813812,0.038233159934289905,0.0047859359124076,0.03812081473890704
1.0046140384627766,0.11302745450084833,0.02800087594644861,0.05542672474865837,0.016746410119784495,0.0550591540503562
1.004661120487907,0.13143773576861661,0.03515287792042147,0.07126698378066398,0.03078113225522876,0.07061972994118243
1.0047082025130374,0.140315951549541,0.04107807964974215,0.0817840112464661,0.04455578943429154,0.08088605296568077
1.0047552845381678,0.14016084842095028,0.04225322484416039,0.0846685751900148,0.055972409557292546,0.08357546456790513
1.0048023665632981,0.13271042804166153,0.04048065056981262,0.08028160564993014,0.06407660135493806,0.0790450715212766
1.0048494485884285,0.1199532079956697,0.03624188583707891,0.06958311394397716,0.0698813040344627,0.0682250895946077
1.0048965306135589,0.10352759540252561,0.033335508997019654,0.05738407400153901,0.07290000424903594,0.0559424989810946
1.0049436126386893,0.08458770500586026,0.02891152104597143,0.04469505929439128,0.07130312535491865,0.0432495271126231
1.0049906946638196,0.06411017510052013,0.025563980483321976,0.03435472552873721,0.06585074528736702,0.032989695574228914
1.00503777668895,0.043500849939608656,0.020860288581722418,0.022887706523455283,0.05902540056781956,0.021638393126328086
1.0050848587140804,0.02497562650004661,0.01619469256937565,0.013888116903115118,0.05066729230040496,0.01280061218584401
1.0051319407392107,0.011013597455985432,0.011985669621731459,0.011624969459267675,0.04065547579299635,0.01074786578262741
1.0051790227643411,0.003334338693202587,0.010315303198776101,0.009001101837417943,0.028629439352201195,0.008380387987641463
1.0052261047894715,0.0027948227754708652,0.006370141757220632,0.005716764128480125,0.016080945867810146,0.0053666986896658275
1.0052731868146019,0.010164673003053454,0.004346193011802357,0.005314070387151807,0.006273014026864526,0.005176615768480108
1.0053202688397322,0.026566180290056158,0.004858768847149425,0.008193549268036414,-0.0006120003110552439,0.008204913307660242
1.0053673508648626,0.05291846997433676,0.006900714482459601,0.011498759854167706,-0.003991355549862974,0.011582849087120616
1.005414432889993,0.08828034555015178,0.008828683218879852,0.017065936640710815,-0.003474382695896342,0.01713747421408214
1.0054615149151234,0.12763762777320273,0.011652262428783623,0.025647230237824777,0.0007314163813318723,0.02562530817677496
1.0055085969402537,0.16155770115500132,0.014456247579241755,0.038076850744054896,0.009448321807838535,0.037864700753284505
1.0055556789653841,0.18078890709766565,0.018092132310393232,0.05135766337998839,0.02014060888011475,0.05091994744386486
1.0056027609905145,0.18307418566708303,0.019504709021679965,0.06056084021799014,0.031281529377610924,0.05989977370420943
1.0056498430156449,0.1741533504439713,0.021546744338187325,0.06655908741414072,0.041242189731633246,0.06570881506577714
1.0056969250407752,0.16242605985016223,0.021822758111397392,0.07063087442771013,0.04967257109286897,0.06962841485268081
1.0057440070659056,0.15418810481596457,0.020062614625056756,0.07107575192890922,0.05439877120951641,0.06998893630244245
1.005791089091036,0.1523552110015489,0.016491049472214313,0.0660360559428213,0.05540586344601895,0.06492363857893961
1.0058381711161664,0.15691036178882456,0.014695765764140388,0.06130313889977103,0.05439228014066993,0.06020214440175701
1.0058852531412967,0.16538784679386007,0.014362442450005971,0.06307528196508604,0.0514537931434986,0.06203079780173151
1.005932335166427,0.17322460684996496,0.01343429898154702,0.06323184659303546,0.04649242437741639,0.06227977493764517
1.0059794171915575,0.17475929729964576,0.010717513110156587,0.05880087400333982,0.03932561752290956,0.05798158869683332
1.0060264992166879,0.16548577922015562,0.007619320647472495,0.05204155960234529,0.03236650861760449,0.05135565950859031
1.0060735812418182,0.1445721481217929,0.004819618103638158,0.04234591607178599,0.024849595106001172,0.041810295634774064
1.0061206632669486,0.11538472372115638,0.001973461343132529,0.03266210113426135,0.017563831054552722,0.032278327119275814
1.006167745292079,0.08342022676517998,0.0009471783538950514,0.0259645785337829,0.01127781005036285,0.02571527435752157
1.0062148273172093,0.053714935068683495,0.0024295247274877217,0.01794830890199036,0.007615999620013166,0.01777917779829575
1.0062619093423397,0.029620632829972474,0.0049960304581721255,0.006428025048282717,0.006382494636169541,0.006287957524536794
1.00630899136747,0.012907514843990737,0.00799070292692632,-0.004503164505502606,0.006949446499935578,-0.004653214679943911
1.0063560733926005,0.004292560353454192,0.012430906339243427,-0.010519166817943732,0.009171448934808507,-0.010716388474233268
1.0064031554177308,0.0038095921685766332,0.017978119049770043,-0.007972360122875525,0.011344384661439966,-0.008217486609452233
1.0064502374428612,0.010924293923755681,0.02609940536950638,0.0013341291502741227,0.01660708267746496,0.0009730908112081472
1.0064973194679916,0.02453035587728399,0.033590149830196515,0.011333716656649779,0.023609179458126076,0.010821143235883103
1.006544401493122,0.042966387475684646,0.039672382863120075,0.020787738978896356,0.030109650237501766,0.0201381125461019
1.0065914835182523,0.06411092062196938,0.043834268853707024,0.03329944681240632,0.03524379600036049,0.032547217132998935
1.0066385655433827,0.08556714248621351,0.04895368799948248,0.049462130528264495,0.039268334405851216,0.048637712121937265
1.006685647568513,0.10493697207975199,0.05125886529081259,0.06485229624100503,0.04189675371359061,0.06398827702645168
1.0067327295936435,0.12014720761669652,0.05148579363469448,0.07640706666955516,0.042632580362456325,0.07553904799262867
1.0067798116187738,0.12974860817624662,0.0480139854939926,0.08294186479002422,0.04120579888833353,0.08210543353633681
1.0068268936439042,0.1331160769266914,0.04455922507642266,0.08436945777741765,0.03748416827642102,0.08360211732531724
1.0068739756690346,0.13051634907150206,0.039542393940039285,0.08386978816652868,0.03342185425952941,0.08317762337898166
1.006921057694165,0.12301693370584733,0.033164567300785146,0.08185258015702256,0.026868759580444386,0.08128451362135929
1.0069681397192953,0.11219272060745543,0.02525374704706636,0.07585112215539112,0.0192882039071433,0.075431742884336
1.0070152217444257,0.09964098937742749,0.01701832901166384,0.06985230351433948,0.012186039578906262,0.06957816757792318
1.007062303769556,0.08648287672211809,0.01043923813566881,0.06302251331950957,0.00688067555450999,0.0628605504668918
1.0071093857946865,0.07315337862299943,0.005791773889269475,0.053521194673379444,0.0032825009950584066,0.05343786088065659
1.0071564678198168,0.05967551136841471,0.0013181078560813375,0.042771215350936226,0.00023791306143281505,0.042755980981077975
1.0072035498449472,0.046352747241279996,-0.001843672989433639,0.029687677967592516,-0.0006554276850848755,0.029694904143801482
1.0072506318700776,0.03458526276589038,-0.0034473671014938283,0.01916866027493343,0.00025989795316709965,0.01915849248021332
1.007297713895208,0.02727830692374265,-0.0031213153459418216,0.01473006896934623,0.001213828777608393,0.014700235748328579
1.0073447959203383,0.0280866607277734,-0.0012325254692638348,0.01711698325886342,0.0033939663539340665,0.01703932527517283
1.0073918779454687,0.03925806445151868,0.004115302273293924,0.028584290137595406,0.008345464600481805,0.02839741543194974
1.007438959970599,0.059562255279517966,0.011624529390727886,0.043832242766228824,0.014502798353547246,0.043512248072073184
1.0074860419957294,0.08449757331606145,0.01829545336462769,0.058037587268334905,0.022049640731386554,0.05756115566965826
1.0075331240208598,0.10858230355013457,0.02351204171679117,0.06858033205585247,0.028281785400704647,0.06798103345146475
1.0075802060459902,0.12742598805780986,0.026897903043088596,0.07621925524513734,0.03259929385658805,0.07553903223952525
1.0076272880711206,0.13840784538629322,0.028546868117627616,0.07904744927672683,0.03528914927960422,0.0783176835714996
1.007674370096251,0.14057521646913557,0.027777545163451687,0.0769603579802706,0.036233844036842155,0.07621162872004553
1.0077214521213813,0.1345761316442056,0.02478120293724551,0.07084930100861353,0.034901621795659865,0.07012242547320434
