freq,gls,usurper,pdc_unbiased,shape_periodogram,shift_periodogram
1.0,0.02176245538732735,0.0237652755871241,-0.007335655112181927,0.0029407442207567062,-0.0074970429221840485
1.0000470820251304,0.05134779247241603,0.04479482560467883,0.016081221596065367,0.018989685631230012,0.014930796367382166
1.0000941640502607,0.09689124580742478,0.06618645882101604,0.05094334186944231,0.04105835908861501,0.04847082774994524
1.0001412460753911,0.14848755125694818,0.08859133013040993,0.08456655871201842,0.06186447286545234,0.08094461052824077
1.0001883281005215,0.19664060203551523,0.10634241552089267,0.10917973127593883,0.07926597487273708,0.1046989081637407
1.0002354101256519,0.23592916525893703,0.11740543247612283,0.12678225514793529,0.09174880043335275,0.12175701297724818
1.0002824921507822,0.26363730657080775,0.12457375938885518,0.13936052532630389,0.09853776691288414,0.13408416829589867
1.0003295741759126,0.2780607972143743,0.1280238908981533,0.14663287491158739,0.10249422230507954,0.1412227517157103
1.000376656201043,0.27778293516045677,0.12810789173933104,0.14742341655727248,0.10448512129208058,0.14193191094515178
1.0004237382261734,0.2619162710265795,0.1238579187532905,0.139633635428265,0.10323187542684449,0.13414975061351947
1.0004708202513037,0.23107843684954268,0.1137607092054331,0.12167319492364326,0.098499651198158,0.11630649962433037
1.0005179022764341,0.1884924826566669,0.10033604598707065,0.09811663264576473,0.09141961355788401,0.09298828458963394
1.0005649843015645,0.1401213853463462,0.08990567173716968,0.07552593926328457,0.08528097512661183,0.07063677674362212
1.0006120663266949,0.09311329616242185,0.08366517282683551,0.056936636782797936,0.07983372585127538,0.05229372379101037
1.0006591483518252,0.05338098213176131,0.08321541690040764,0.04656239048066332,0.07428647780051198,0.042208127107144736
1.0007062303769556,0.024158292773911582,0.0832477235154532,0.0379052596807291,0.06775908511043048,0.03390913314128141
1.000753312402086,0.006389706849983347,0.07877202556030628,0.024925530867037873,0.059289304608961105,0.021408922497365698
1.0008003944272164,4.4957735270936574e-05,0.07660409848093079,0.013623927240606612,0.05129796190791386,0.010574820542321268
1.0008474764523467,0.004476680458159687,0.07301839211144216,0.005279248516488982,0.048663857171465846,0.002389197065356815
1.000894558477477,0.016631009383087918,0.07457647726463837,0.00604487589630294,0.0517181535770167,0.002973670160829304
1.0009416405026075,0.030279800796216314,0.08574464242923961,0.01614856324889533,0.06059034489121043,0.012553967110170011
1.0009887225277379,0.04019506929021177,0.10336012724839688,0.031662352407458065,0.0745474068479474,0.027270880753313534
1.0010358045528682,0.045271217739530065,0.1225174524924493,0.049643587368788454,0.09006462318618813,0.04441738869893846
1.0010828865779986,0.04665854735345898,0.13217568979052258,0.06394396252727896,0.10472350821109072,0.057978546957695
1.001129968603129,0.04557434040645729,0.1346314283139802,0.06951556918541625,0.11524350827217957,0.06302792427497386
1.0011770506282593,0.04281463251624272,0.1281153516006871,0.06676401531502141,0.11975101047400431,0.06002394291483013
1.0012241326533897,0.03911406922799136,0.1170026022079297,0.05756222886158259,0.11989941327279535,0.0507527462438218
1.00127121467852,0.035734840091298535,0.10400602986897613,0.04469056838221148,0.11648363450928706,0.03798552335029316
1.0013182967036505,0.034632288517627896,0.09451552400531445,0.03354469161607427,0.11414669090086176,0.02690680018981633
1.0013653787287808,0.03686446430802818,0.09763354353606361,0.03235087082016887,0.11537703463548096,0.025636879776329637
1.0014124607539112,0.040499198873267514,0.10911705986002396,0.04235422606047071,0.12005700387411106,0.0354377705171924
1.0014595427790416,0.04245011553894062,0.12075641608894551,0.05148956578485458,0.12478731410948615,0.04437629013410909
1.001506624804172,0.04142424671447975,0.1288278361081931,0.057489670337512934,0.12531930530970073,0.0503913457980984
1.0015537068293023,0.03772147907862947,0.1298453018811405,0.05838903434484734,0.1209240306506578,0.05153054629950189
1.0016007888544327,0.032149333674356434,0.12450658625584943,0.05286952532393206,0.10976812404771824,0.04657716767065391
1.001647870879563,0.025799799790141527,0.11170155331901956,0.040386054375886556,0.09316445122139289,0.034958117821597245
1.0016949529046935,0.020580986012262138,0.09405457527538286,0.02276083148008517,0.07320192845127863,0.0184353340076415
1.0017420349298238,0.01993155776046648,0.07849347904348598,0.008396000375120035,0.05726400694318988,0.00499638794673205
1.0017891169549542,0.027489951613850306,0.07260162091448556,0.00883020356959996,0.052358534169401824,0.00572017591590198
1.0018361989800846,0.042074300128446054,0.07369023985291842,0.022145335055818467,0.05714450042854892,0.018752985123805105
1.001883281005215,0.05845891480384451,0.08138616265171611,0.04104344236602053,0.06828684753907793,0.03702048231774488
1.0019303630303453,0.07582159493280267,0.09188505299636406,0.05832937685591873,0.07954401807448559,0.05370544968285697
1.0019774450554757,0.09824195100672209,0.10079382280394913,0.07041397317164165,0.08594962160424828,0.06547404829310807
1.002024527080606,0.1303669711588208,0.09999195976060474,0.07896421651578898,0.08776558706533694,0.07395473340471788
1.0020716091057364,0.17464242099810953,0.09378097033911699,0.08832693698111686,0.0871880977243013,0.08337847619350676
1.0021186911308668,0.22917237164395338,0.09976303618720529,0.11355266104308831,0.08927791281234292,0.10859096754406672
1.0021657731559972,0.2864808872447173,0.1144838999180864,0.14880372324738836,0.09471794434382703,0.1437464267617817
1.0022128551811276,0.335488571803669,0.12887917715578195,0.17945522269565434,0.1001947943455908,0.17433832944167438
1.002259937206258,0.3667004160945303,0.13863605363055256,0.20044309409803335,0.1027938085277605,0.19536142113556693
1.0023070192313883,0.37630521047742305,0.14239868446274512,0.20989430295355302,0.10145720691509523,0.20492425941616094
1.0023541012565187,0.3658732131217113,0.1401532936541778,0.20800353236518512,0.0962969180336156,0.20320903227584014
1.002401183281649,0.3393357840705059,0.13172162067795756,0.19716291122807472,0.08766950010673905,0.19264086768882888
1.0024482653067794,0.30043566038503033,0.11879163626426398,0.1783931936762516,0.07577723526947193,0.17429221228737146
1.0024953473319098,0.25183659939415354,0.10350305451516835,0.15384153094853617,0.061029874409275243,0.15035942835411892
1.0025424293570402,0.1956066522565673,0.08368924322527616,0.12081929242955049,0.04548380432293615,0.11809268739505378
1.0025895113821706,0.13475970805500284,0.05613063456966216,0.07564140824241966,0.027683226151111878,0.07391070561472761
1.002636593407301,0.07582916802294695,0.027839957194347814,0.025728531183742454,0.012788872268063682,0.024928285529108682
1.0026836754324313,0.03145358980808763,0.01759524567654719,-0.0040036080406334615,0.006775927702105744,-0.00439818403886823
1.0027307574575617,0.01779891286180085,0.02711312983822994,-0.006351274616742859,0.014894342326115886,-0.007223447973065117
1.002777839482692,0.04358985242398123,0.03784637885120234,0.006591376950054447,0.033243720868430755,0.004612516097549857
1.0028249215078224,0.1037077589167159,0.05663110838321182,0.04281328660270074,0.05496644594153463,0.03954900311268204
1.0028720035329528,0.18101238562213362,0.08543571908042963,0.0979436666785688,0.07839111807689313,0.093476531905885
1.0029190855580832,0.25636899888384335,0.11792992382376886,0.15380629462607742,0.0970641670107846,0.14867228252952944
1.0029661675832136,0.31832235074100634,0.1466870081790932,0.19704252226634572,0.10499720879002271,0.19185677121584666
1.003013249608344,0.36361141655314383,0.16192352596731768,0.228525784613192,0.10903153992834037,0.2234354376210855
1.0030603316334743,0.39341420767750745,0.1718594199301271,0.24979870354304085,0.11171994546063099,0.24480194648034956
1.0031074136586047,0.4102870696014962,0.17584598294343207,0.26258314989231946,0.1117483906744817,0.2576953029010815
1.003154495683735,0.41662904201390033,0.1757061369791567,0.266777273312063,0.10977419032638212,0.2619776062649305
1.0032015777088654,0.41405085665469693,0.1719672235987407,0.26326150551395927,0.10542665047542134,0.258551693123193
1.0032486597339958,0.4030953535584088,0.16452602130771685,0.251751202986526,0.09863159181142567,0.24715792483701501
1.0032957417591262,0.38301151602067063,0.15320455860026816,0.2324239377319079,0.08942421554639522,0.22801825952976643
1.0033428237842565,0.3514583105172215,0.1374551490420169,0.2047530276495091,0.07754817224959165,0.20067214362636152
1.003389905809387,0.3042863356687068,0.1170733205434543,0.16911475512504195,0.06328234783715149,0.16555473173526244
1.0034369878345173,0.2364892670841809,0.09249045130401055,0.12615890065588273,0.04692575321845411,0.12335836971452074
1.0034840698596477,0.14805992805189566,0.06505752848460276,0.07745804013496241,0.03027517910267959,0.0755788740447559
1.003531151884778,0.05937981673678241,0.04382127672410586,0.035632586371168055,0.018626482631856307,0.03447430583923622
1.0035782339099084,0.016571701488668728,0.037170755738577387,0.012038086514572617,0.01724518862849963,0.01099687667424587
1.0036253159350388,0.04141534161646615,0.05013502871436127,0.014399178728297872,0.029685094931969174,0.01262087520705513
1.0036723979601692,0.0978579156313711,0.0732677588391701,0.03595348541122598,0.0493490095676975,0.03301149535404446
1.0037194799852995,0.14599333246590304,0.10003019643488742,0.06503465797160808,0.07435522432910219,0.06070822227288112
1.00376656201043,0.17300879075255565,0.1240924528160441,0.0922030709843016,0.09782426413518651,0.08672755675482635
1.0038136440355603,0.18229222765708752,0.14194534441124407,0.11374971918924169,0.11582155971524938,0.10752920810625895
1.0038607260606907,0.18262972424027749,0.15457186649173596,0.12736778710133306,0.13084381546523033,0.1205924005399702
1.003907808085821,0.18292620727983336,0.16199133424980688,0.13485525602086357,0.14178271224230288,0.12770421206162813
1.0039548901109514,0.18798821740501145,0.16608869330801615,0.13913083302593265,0.14665872715416794,0.13183707320047483
1.0040019721360818,0.19658928748535154,0.16526864292490448,0.1397247738744464,0.1479146954141136,0.13238959131347236
1.0040490541612122,0.20361099360789395,0.16435720052306815,0.1356935801867525,0.14468934440273226,0.1284360108276542
1.0040961361863425,0.20356945018764083,0.15985468334745404,0.1287855413388881,0.1378324677969055,0.12172976872996659
1.004143218211473,0.19261735903368254,0.1460165203038023,0.11776025800915435,0.1261493638231974,0.11110272912243924
1.0041903002366033,0.1692114287165738,0.12556215664336834,0.09836742477706704,0.11073835938464101,0.09228561753727642
1.0042373822617336,0.13469585530973552,0.10165156457952455,0.07519967777083232,0.09279142518403477,0.06991303898151974
1.004284464286864,0.094068350002802,0.07944048341909503,0.051842634052145065,0.07340162559095387,0.04754623245294244
1.0043315463119944,0.0558705414627791,0.060525008656374106,0.03082107495389939,0.054354094573151907,0.02759097541297282
1.0043786283371248,0.029785725493520713,0.048707650342332244,0.019809015244991575,0.03932500546252174,0.0174586523888395
1.0044257103622551,0.022326134922130727,0.0439157489555088,0.01684685304795892,0.02971334281916697,0.015063856596585299
1.0044727923873855,0.03362727707623793,0.04509125590328039,0.01768087969631584,0.026825951209196213,0.016066654229060433
1.004519874412516,0.057935866130881315,0.0513615240074703,0.0238553638180855,0.029790750221352722,0.02205933807176537
1.0045669564376463,0.08691312585069338,0.06292749090717849,0.038233159934289905,0.03871791085940071,0.03590337080029843
1.0046140384627766,0.11302745450084833,0.07740235744013182,0.05542672474865837,0.05233895719622081,0.05231313615820396
1.004661120487907,0.13143773576861661,0.08971644447536979,0.07126698378066398,0.0664416943459473,0.06738171604088389
1.0047082025130374,0.140315951549541,0.0990498390544972,0.0817840112464661,0.07882888900462685,0.07725310347467282
1.0047552845381678,0.14016084842095028,0.10276798089223006,0.0846685751900148,0.08796078819813183,0.07966784192039249
1.0048023665632981,0.13271042804166153,0.10093164903576851,0.08028160564993014,0.09153468661298843,0.075079554862821
1.0048494485884285,0.1199532079956697,0.09486361899993417,0.06958311394397716,0.09264143381514206,0.06428374884902742
1.0048965306135589,0.10352759540252561,0.08475535227569689,0.05738407400153901,0.08891737830911597,0.05224458869836588
1.0049436126386893,0.08458770500586026,0.07212363869631566,0.04469505929439128,0.08169174366260568,0.039922035420611866
1.0049906946638196,0.06411017510052013,0.05949670514836639,0.03435472552873721,0.07365804305345593,0.03001790616622613
1.00503777668895,0.043500849939608656,0.04828134166964483,0.022887706523455283,0.06471044621928931,0.019055415488303445
1.0050848587140804,0.02497562650004661,0.037899295342050394,0.013888116903115118,0.0542383972611054,0.010666141779140718
1.0051319407392107,0.011013597455985432,0.03183346482803353,0.011624969459267675,0.04470304213398754,0.008964961957303754
1.0051790227643411,0.003334338693202587,0.026045281905473793,0.009001101837417943,0.035959103084218534,0.006859096698623149
1.0052261047894715,0.0027948227754708652,0.020227172263426883,0.005716764128480125,0.028172852432808385,0.004038944551991361
1.0052731868146019,0.010164673003053454,0.015811498955973075,0.005314070387151807,0.01930210889005005,0.004161762369790629
1.0053202688397322,0.026566180290056158,0.014237900789210969,0.008193549268036414,0.012811500892894687,0.007420660034746264
1.0053673508648626,0.05291846997433676,0.015133050493464839,0.011498759854167706,0.010249928606289161,0.01087186178677585
1.005414432889993,0.08828034555015178,0.01942860371199248,0.017065936640710815,0.009639362110499533,0.01646576242323107
1.0054615149151234,0.12763762777320273,0.025105555449847952,0.025647230237824777,0.010428785395443847,0.024986164399791587
1.0055085969402537,0.16155770115500132,0.0320660671977271,0.038076850744054896,0.01552525248620977,0.03709646842965679
1.0055556789653841,0.18078890709766565,0.03893083025247863,0.05135766337998839,0.0241518301282322,0.04985647973628517
1.0056027609905145,0.18307418566708303,0.04352553072419976,0.06056084021799014,0.03399177801838833,0.05848491387406839
1.0056498430156449,0.1741533504439713,0.04594615141121962,0.06655908741414072,0.04005590766729601,0.06413546448771983
1.0056969250407752,0.16242605985016223,0.04743224721143046,0.07063087442771013,0.04459430692214301,0.06795109986780071
1.0057440070659056,0.15418810481596457,0.04830387463184625,0.07107575192890922,0.047018220148390806,0.06826067556772021
1.005791089091036,0.1523552110015489,0.04762016893099089,0.0660360559428213,0.04706721568316951,0.06321865207653424
1.0058381711161664,0.15691036178882456,0.04632622514319818,0.06130313889977103,0.04617564513881142,0.05853649958605541
1.0058852531412967,0.16538784679386007,0.04855081004229641,0.06307528196508604,0.04578513286105611,0.06033027222754488
1.005932335166427,0.17322460684996496,0.04807171959934054,0.06323184659303546,0.04454921147152214,0.06055634206330018
1.0059794171915575,0.17475929729964576,0.04496452754667011,0.05880087400333982,0.04139058453207853,0.056305468058338755
1.0060264992166879,0.16548577922015562,0.040693723149345225,0.05204155960234529,0.03651725671043101,0.04982800380567632
1.0060735812418182,0.1445721481217929,0.03477952186877117,0.04234591607178599,0.02981228735349095,0.04052757484180201
1.0061206632669486,0.11538472372115638,0.030154271799896985,0.03266210113426135,0.02186904117000869,0.03131834204864291
1.006167745292079,0.08342022676517998,0.025006852212872865,0.0259645785337829,0.014585785970432181,0.025058180159793986
1.0062148273172093,0.053714935068683495,0.021596567464061415,0.01794830890199036,0.009448141133703578,0.017357947314521147
1.0062619093423397,0.029620632829972474,0.01814368433352056,0.006428025048282717,0.006410712211096831,0.006036996828495268
1.00630899136747,0.012907514843990737,0.015310979531980008,-0.004503164505502606,0.007134592692381094,-0.004918136872216231
1.0063560733926005,0.004292560353454192,0.01510743536754216,-0.010519166817943732,0.010857762931658984,-0.011144625929351832
1.0064031554177308,0.0038095921685766332,0.01836285625757096,-0.007972360122875525,0.017867557516484535,-0.0090184537004912
1.0064502374428612,0.010924293923755681,0.027403632754397687,0.0013341291502741227,0.031085687912711654,-0.0005105038297875049
1.0064973194679916,0.02453035587728399,0.03792682736767683,0.011333716656649779,0.04506772463453585,0.008652419183609103
1.006544401493122,0.042966387475684646,0.04799133024194118,0.020787738978896356,0.05902850137706309,0.017285408163581147
1.0065914835182523,0.06411092062196938,0.057596854750592244,0.03329944681240632,0.06852215057499748,0.029255226670287175
1.0066385655433827,0.08556714248621351,0.06697276728759285,0.049462130528264495,0.07365051723682639,0.04514807598507878
1.006685647568513,0.10493697207975199,0.07473133407832645,0.06485229624100503,0.07577624651471829,0.06044801050897903
1.0067327295936435,0.12014720761669652,0.07910412663924783,0.07640706666955516,0.0747165766409779,0.07208295442655975
1.0067798116187738,0.12974860817624662,0.08103517360524061,0.08294186479002422,0.07013896770286467,0.07887452392204324
1.0068268936439042,0.1331160769266914,0.08065861387570532,0.08436945777741765,0.06315011593434214,0.08067818138055026
1.0068739756690346,0.13051634907150206,0.07633923578165436,0.08386978816652868,0.0542218440442625,0.0806607715815498
1.006921057694165,0.12301693370584733,0.0676473045607307,0.08185258015702256,0.045736907827450504,0.07910796275224075
1.0069681397192953,0.11219272060745543,0.05676542535207141,0.07585112215539112,0.03710305073159248,0.07358872387358918
1.0070152217444257,0.09964098937742749,0.04649352059001741,0.06985230351433948,0.028384137410689906,0.06808746399520446
1.007062303769556,0.08648287672211809,0.03738519570311126,0.06302251331950957,0.021022776792791804,0.06168728626637577
1.0071093857946865,0.07315337862299943,0.03029757445486579,0.053521194673379444,0.014795691984007531,0.0525600941719788
1.0071564678198168,0.05967551136841471,0.02550213223105472,0.042771215350936226,0.010438236897170284,0.04208161003930403
1.0072035498449472,0.046352747241279996,0.019285523990880706,0.029687677967592516,0.006947475752964186,0.029225108759271118
1.0072506318700776,0.03458526276589038,0.015180032001833469,0.01916866027493343,0.005992876211317109,0.018780397711072226
1.007297713895208,0.02727830692374265,0.0133694863041886,0.01473006896934623,0.005990547307781136,0.014349578562271375
1.0073447959203383,0.0280866607277734,0.015993592677012492,0.01711698325886342,0.007905250082214288,0.016619191142138813
1.0073918779454687,0.03925806445151868,0.025173000676049245,0.028584290137595406,0.013380346100513935,0.027744646494483848
1.007438959970599,0.059562255279517966,0.037352505675882094,0.043832242766228824,0.020008488056448163,0.04258154583194053
1.0074860419957294,0.08449757331606145,0.04889580527435095,0.058037587268334905,0.026564745993055215,0.05638934198973179
1.0075331240208598,0.10858230355013457,0.05776852044613986,0.06858033205585247,0.03381795843042201,0.06650797719266639
1.0075802060459902,0.12742598805780986,0.06339020632333854,0.07621925524513734,0.03881368009197117,0.07386082132082696
1.0076272880711206,0.13840784538629322,0.06479775627810092,0.07904744927672683,0.041430944261259484,0.07654187218846857
1.007674370096251,0.14057521646913557,0.06217311390554404,0.0769603579802706,0.04367155577003842,0.07433072332389629
1.0077214521213813,0.1345761316442056,0.05690706243237806,0.07084930100861353,0.043013181528127,0.06825789957232749
1.0077685341465117,0.12269802495893224,0.04894923047928172,0.062425783036096825,0.03884533605616785,0.060072743437833837
1.007815616171642,0.10844877640211482,0.040837567284067684,0.054884533548136764,0.033119241097542766,0.05286327136603806
