freq,gls,usurper,pdc_unbiased,shape_periodogram,shift_periodogram
1.0,0.02176245538732735,0.013728059954870163,-0.007335655112181927,0.007095092664801604,-0.007474811462946572
1.0000470820251304,0.05134779247241603,0.0176408926590054,0.016081221596065367,0.006770335931145975,0.01594450043992022
1.0000941640502607,0.09689124580742478,0.023430567982829352,0.05094334186944231,0.01017917229630246,0.05073534011585816
1.0001412460753911,0.14848755125694818,0.028373372900060263,0.08456655871201842,0.018094119236322377,0.08420952565922236
1.0001883281005215,0.19664060203551523,0.03404340716945576,0.10917973127593883,0.030212264682163297,0.1086202807315126
1.0002354101256519,0.23592916525893703,0.04003986272112369,0.12678225514793529,0.04078889583677043,0.1260730966795354
1.0002824921507822,0.26363730657080775,0.04441915274034299,0.13936052532630389,0.0472770903692287,0.13857703994343923
1.0003295741759126,0.2780607972143743,0.047336196830413395,0.14663287491158739,0.050586336004495976,0.14581825934196035
1.000376656201043,0.27778293516045677,0.04802089861927642,0.14742341655727248,0.052962642201545125,0.14658206295189116
1.0004237382261734,0.2619162710265795,0.04613942959298362,0.139633635428265,0.05346895283622711,0.1387738953948911
1.0004708202513037,0.23107843684954268,0.04201344795095715,0.12167319492364326,0.051512873456006546,0.12081066776388451
1.0005179022764341,0.1884924826566669,0.03649972448247049,0.09811663264576473,0.04832817981937034,0.09726737917953628
1.0005649843015645,0.1401213853463462,0.032485364943264775,0.07552593926328457,0.0448826298608785,0.0747053375791388
1.0006120663266949,0.09311329616242185,0.03002290883209205,0.056936636782797936,0.04051699000242339,0.05617348631921519
1.0006591483518252,0.05338098213176131,0.029884680963938343,0.04656239048066332,0.03457449670907617,0.045898614232657994
1.0007062303769556,0.024158292773911582,0.029548035586942977,0.0379052596807291,0.02705691606467418,0.037377174744624875
1.000753312402086,0.006389706849983347,0.02995144874277845,0.024925530867037873,0.01843853425071992,0.024560249563789806
1.0008003944272164,4.4957735270936574e-05,0.030783645124021757,0.013623927240606612,0.011220707051223664,0.013400098735124552
1.0008474764523467,0.004476680458159687,0.030053712391118998,0.005279248516488982,0.009063033067901544,0.005099068044323616
1.000894558477477,0.016631009383087918,0.034268292383620856,0.00604487589630294,0.011789494773049027,0.0058107865397673455
1.0009416405026075,0.030279800796216314,0.041865175484859636,0.01614856324889533,0.018584009526866084,0.0157804770522877
1.0009887225277379,0.04019506929021177,0.050874088455792874,0.031662352407458065,0.030320840336273545,0.031071245735390295
1.0010358045528682,0.045271217739530065,0.05694693575415701,0.049643587368788454,0.04494057188061556,0.04879689634230195
1.0010828865779986,0.04665854735345898,0.06247866027735861,0.06394396252727896,0.05866279238593532,0.06288536958457688
1.001129968603129,0.04557434040645729,0.06647326944164461,0.06951556918541625,0.06932367888129676,0.06830335511647331
1.0011770506282593,0.04281463251624272,0.06744301081751138,0.06676401531502141,0.07462396070514754,0.06546554219843481
1.0012241326533897,0.03911406922799136,0.06429450995203366,0.05756222886158259,0.07471934293940204,0.056236110848980836
1.00127121467852,0.035734840091298535,0.058365259683008854,0.04469056838221148,0.07187116407843311,0.043375542966612536
1.0013182967036505,0.034632288517627896,0.052854277227554126,0.03354469161607427,0.06880622596418445,0.032254978802397666
1.0013653787287808,0.03686446430802818,0.048952510107977264,0.03235087082016887,0.06669603162764524,0.031095744953206973
1.0014124607539112,0.040499198873267514,0.04843213158770962,0.04235422606047071,0.0666640733074826,0.04112138059161322
1.0014595427790416,0.04245011553894062,0.05030614089938755,0.05148956578485458,0.06848055268976078,0.050247139215625104
1.001506624804172,0.04142424671447975,0.05115756779758097,0.057489670337512934,0.06648798140357895,0.056293147327369106
1.0015537068293023,0.03772147907862947,0.05182020821443197,0.05838903434484734,0.05993260864934771,0.05730013364712323
1.0016007888544327,0.032149333674356434,0.049383445790419034,0.05286952532393206,0.04990279940656565,0.051940190362037814
1.001647870879563,0.025799799790141527,0.04369838644552354,0.040386054375886556,0.03623000273863674,0.03968888025563995
1.0016949529046935,0.020580986012262138,0.03513723263644875,0.02276083148008517,0.02203333679991699,0.022326071706756736
1.0017420349298238,0.01993155776046648,0.03106243574540229,0.008396000375120035,0.011762857429909844,0.00816215024939388
1.0017891169549542,0.027489951613850306,0.030401126672953055,0.00883020356959996,0.010076122618938988,0.008629522229759084
1.0018361989800846,0.042074300128446054,0.030735553783377126,0.022145335055818467,0.014229725595189303,0.021861801434774647
1.001883281005215,0.05845891480384451,0.03622950950979754,0.04104344236602053,0.023153574168834373,0.0405892007255443
1.0019303630303453,0.07582159493280267,0.04146107036512212,0.05832937685591873,0.034195376297250286,0.05767827327363172
1.0019774450554757,0.09824195100672209,0.043666559334758076,0.07041397317164165,0.047332941088057294,0.06954794083451743
1.002024527080606,0.1303669711588208,0.04018991643704803,0.07896421651578898,0.05595137316681337,0.07797313237249319
1.0020716091057364,0.17464242099810953,0.03563974328202211,0.08832693698111686,0.0615949492901813,0.08726925444733731
1.0021186911308668,0.22917237164395338,0.03597208778474881,0.11355266104308831,0.06601878659188781,0.11249136891710286
1.0021657731559972,0.2864808872447173,0.039832292218884534,0.14880372324738836,0.07066489882254837,0.14778388315970523
1.0022128551811276,0.335488571803669,0.04372096889994724,0.17945522269565434,0.07493719984125174,0.17849458976945923
1.002259937206258,0.3667004160945303,0.04574722283419392,0.20044309409803335,0.07750045908251159,0.1995388037548991
1.0023070192313883,0.37630521047742305,0.04576358031703321,0.20989430295355302,0.07780673973458893,0.2090211628735261
1.0023541012565187,0.3658732131217113,0.04423607397064444,0.20800353236518512,0.07607493002692546,0.2071295423383285
1.002401183281649,0.3393357840705059,0.04293792695217151,0.19716291122807472,0.07288004918308759,0.196268040600834
1.0024482653067794,0.30043566038503033,0.04160501165452227,0.1783931936762516,0.06517037559585942,0.17749571768145123
1.0024953473319098,0.25183659939415354,0.038307499035564845,0.15384153094853617,0.05177590924054338,0.15302380163535392
1.0025424293570402,0.1956066522565673,0.031572583685516444,0.12081929242955049,0.03498633889639086,0.12019110833846725
1.0025895113821706,0.13475970805500284,0.025390187352231985,0.07564140824241966,0.015330278682117112,0.0753346739351527
1.002636593407301,0.07582916802294695,0.022191056342886314,0.025728531183742454,-2.7822169656888387e-05,0.025724045568845604
1.0026836754324313,0.03145358980808763,0.019851146068202926,-0.0040036080406334615,-0.00013027273102327345,-0.004000245846745944
1.0027307574575617,0.01779891286180085,0.021417860882568165,-0.006351274616742859,0.01543945220525739,-0.006656361327382789
1.002777839482692,0.04358985242398123,0.023842796853374412,0.006591376950054447,0.03653215622031931,0.005871052459729121
1.0028249215078224,0.1037077589167159,0.03514884173082226,0.04281328660270074,0.05346757911846661,0.04180929551382536
1.0028720035329528,0.18101238562213362,0.05016924564345695,0.0979436666785688,0.06288971742725791,0.09688767344954886
1.0029190855580832,0.25636899888384335,0.06303653870690712,0.15380629462607742,0.06649879264525943,0.1528372823358849
1.0029661675832136,0.31832235074100634,0.06999856101532831,0.19704252226634572,0.06755535208641449,0.19617601957891878
1.003013249608344,0.36361141655314383,0.07439189092044093,0.228525784613192,0.06762981160097269,0.2277422683501321
1.0030603316334743,0.39341420767750745,0.07538186396630468,0.24979870354304085,0.06507378261416842,0.24907831000151895
1.0031074136586047,0.4102870696014962,0.07397426572495044,0.26258314989231946,0.0622190438061273,0.2619011993162349
1.003154495683735,0.41662904201390033,0.07155022615153496,0.266777273312063,0.05862136435692151,0.2661150114083153
1.0032015777088654,0.41405085665469693,0.06798551017738645,0.26326150551395927,0.05398231020993603,0.26261042237346033
1.0032486597339958,0.4030953535584088,0.06322548498004271,0.251751202986526,0.04817032218850287,0.2511137019486418
1.0032957417591262,0.38301151602067063,0.05719364116797971,0.2324239377319079,0.041268307177830976,0.23181607987479216
1.0033428237842565,0.3514583105172215,0.04965958419981477,0.2047530276495091,0.03319680372504601,0.20420622480239828
1.003389905809387,0.3042863356687068,0.040340271134610965,0.16911475512504195,0.0243251744970601,0.1686701008201166
1.0034369878345173,0.2364892670841809,0.02992336345482826,0.12615890065588273,0.01494376865224354,0.12585968365583822
1.0034840698596477,0.14805992805189566,0.01970478765715806,0.07745804013496241,0.005699897482023134,0.07733241660942791
1.003531151884778,0.05937981673678241,0.013357702042918595,0.035632586371168055,-0.0009055655947460102,0.035643518641537274
1.0035782339099084,0.016571701488668728,0.01395742586098749,0.012038086514572617,-0.002420312666469387,0.012083653618392429
1.0036253159350388,0.04141534161646615,0.0233522776670766,0.014399178728297872,0.004534454498673615,0.014306794212801163
1.0036723979601692,0.0978579156313711,0.038606636670392644,0.03595348541122598,0.01884736360728397,0.03558047888704727
1.0037194799852995,0.14599333246590304,0.05742561657360484,0.06503465797160808,0.033002802662342845,0.06440786483260574
1.00376656201043,0.17300879075255565,0.07108211405702462,0.0922030709843016,0.04543681483604506,0.09139087122383675
1.0038136440355603,0.18229222765708752,0.08031415601656847,0.11374971918924169,0.05302608399319409,0.11285517523414902
1.0038607260606907,0.18262972424027749,0.0843422883978101,0.12736778710133306,0.05781639370129507,0.12643462408981865
1.003907808085821,0.18292620727983336,0.08661454600805575,0.13485525602086357,0.062391856310155376,0.13388395003336487
1.0039548901109514,0.18798821740501145,0.08852673928807865,0.13913083302593265,0.0664746137991869,0.1381258973556122
1.0040019721360818,0.19658928748535154,0.08722864846754239,0.1397247738744464,0.06850950029614834,0.13870085723503783
1.0040490541612122,0.20361099360789395,0.0819709262195197,0.1356935801867525,0.06933366484141626,0.13465085577644967
1.0040961361863425,0.20356945018764083,0.07372019797341973,0.1287855413388881,0.06721130507717564,0.12774736310386586
1.004143218211473,0.19261735903368254,0.06506326663543686,0.11776025800915435,0.06507051022979146,0.11672013659054285
1.0041903002366033,0.1692114287165738,0.05436343550435345,0.09836742477706704,0.059183589829383806,0.09736287159176243
1.0042373822617336,0.13469585530973552,0.04248465040389005,0.07519967777083232,0.0491898981725408,0.07430913056570818
1.004284464286864,0.094068350002802,0.03019858903695338,0.051842634052145065,0.03783753919321025,0.05112316480266246
1.0043315463119944,0.0558705414627791,0.019318466608434746,0.03082107495389939,0.024953849367163272,0.03033132010643834
1.0043786283371248,0.029785725493520713,0.012640783952993173,0.019809015244991575,0.012587345517160172,0.0195577190730384
1.0044257103622551,0.022326134922130727,0.009764880288776014,0.01684685304795892,0.003122398623938658,0.016781868188043666
1.0044727923873855,0.03362727707623793,0.010341943010687454,0.01768087969631584,-0.0015207727240311272,0.01770752131096483
1.004519874412516,0.057935866130881315,0.013876291456281215,0.0238553638180855,-0.0013679482233850157,0.0238777660831413
1.0045669564376463,0.08691312585069338,0.019713915288199893,0.038233159934289905,0.004459840448833647,0.03813799135823762
1.0046140384627766,0.11302745450084833,0.02632586703270708,0.05542672474865837,0.01590237773479703,0.055109572287862965
1.004661120487907,0.13143773576861661,0.033026360396447206,0.07126698378066398,0.029380176124631015,0.07070640188057695
1.0047082025130374,0.140315951549541,0.03866479189124496,0.0817840112464661,0.04265697690239996,0.08100550827448881
1.0047552845381678,0.14016084842095028,0.03962046199846654,0.0846685751900148,0.053670500374579024,0.08372101725843152
1.0048023665632981,0.13271042804166153,0.03777318143595282,0.08028160564993014,0.06148035737481715,0.07920971651830726
1.0048494485884285,0.1199532079956697,0.033603381924468385,0.06958311394397716,0.06696007495588568,0.06840660987472191
1.0048965306135589,0.10352759540252561,0.03096805627051533,0.05738407400153901,0.0697915870882406,0.056134753998970124
1.0049436126386893,0.08458770500586026,0.027072889255681562,0.04469505929439128,0.06811741506409223,0.043442866306690954
1.0049906946638196,0.06411017510052013,0.024094641621644205,0.03435472552873721,0.06272350912914099,0.03317403454738513
1.00503777668895,0.043500849939608656,0.01984414413659475,0.022887706523455283,0.05606006667799571,0.02180887200312413
1.0050848587140804,0.02497562650004661,0.015303239741651927,0.013888116903115118,0.04804526819413276,0.01294975991477119
1.0051319407392107,0.011013597455985432,0.010974107499279415,0.011624969459267675,0.03852930416202803,0.010868387235846074
1.0051790227643411,0.003334338693202587,0.00908890523914732,0.009001101837417943,0.026760673707409584,0.008472823089071997
1.0052261047894715,0.0027948227754708652,0.005455112951576558,0.005716764128480125,0.014364486708173748,0.005431935843211194
1.0052731868146019,0.010164673003053454,0.00397133150539263,0.005314070387151807,0.004873660858170159,0.005216642745978571
1.0053202688397322,0.026566180290056158,0.005014997398776631,0.008193549268036414,-0.001363672456566626,0.008218937500136626
1.0053673508648626,0.05291846997433676,0.007449458691389215,0.011498759854167706,-0.0043425892769525885,0.011582542716116985
1.005414432889993,0.08828034555015178,0.00930851495585444,0.017065936640710815,-0.0037222189781054805,0.01713634664010574
1.0054615149151234,0.12763762777320273,0.012026666137747648,0.025647230237824777,0.00039545699350890105,0.025634393805240175
1.0055085969402537,0.16155770115500132,0.01474032959734271,0.038076850744054896,0.008918634612502436,0.037894785374376946
1.0055556789653841,0.18078890709766565,0.018221332347897676,0.05135766337998839,0.019370580716967453,0.05097531858335071
1.0056027609905145,0.18307418566708303,0.01956794883048513,0.06056084021799014,0.030219295448658194,0.0599815127589366
1.0056498430156449,0.1741533504439713,0.021636297105187413,0.06655908741414072,0.040049829950195515,0.065811267922142
1.0056969250407752,0.16242605985016223,0.021896595127038402,0.07063087442771013,0.04844294848793065,0.06974694839988207
1.0057440070659056,0.15418810481596457,0.020135906627515607,0.07107575192890922,0.05330988703884765,0.07011394149113725
1.005791089091036,0.1523552110015489,0.016476318199336554,0.0660360559428213,0.05445922265671308,0.06504844690799638
1.0058381711161664,0.15691036178882456,0.014628514254903077,0.06130313889977103,0.05359387016207799,0.06032276988421743
1.0058852531412967,0.16538784679386007,0.014140466210918351,0.06307528196508604,0.050687406493946686,0.062145301406289204
1.005932335166427,0.17322460684996496,0.012970068993021814,0.06323184659303546,0.045777067155780414,0.06238404785589338
1.0059794171915575,0.17475929729964576,0.009987723496337064,0.05880087400333982,0.03863528771475587,0.058071901739297695
1.0060264992166879,0.16548577922015562,0.0067218161404213675,0.05204155960234529,0.03179504608542292,0.05143060748587257
1.0060735812418182,0.1445721481217929,0.003909135616050216,0.04234591607178599,0.0243736163183089,0.04186896630728317
1.0061206632669486,0.11538472372115638,0.0011039113697328866,0.03266210113426135,0.017322309583289477,0.032318277969529255
1.006167745292079,0.08342022676517998,0.0002557921123525172,0.0259645785337829,0.011357088403950473,0.0257366166420508
1.0062148273172093,0.053714935068683495,0.001985233005302875,0.01794830890199036,0.007943841503844898,0.01778821746491484
1.0062619093423397,0.029620632829972474,0.004918453598055153,0.006428025048282717,0.007046410124784193,0.006287477744068397
1.00630899136747,0.012907514843990737,0.008281875404529722,-0.004503164505502606,0.007674201332518722,-0.004654292171129284
1.0063560733926005,0.004292560353454192,0.013054274373339109,-0.010519166817943732,0.009758102805300135,-0.010710703158091991
1.0064031554177308,0.0038095921685766332,0.018589193513186525,-0.007972360122875525,0.01173776063611572,-0.008203638885171593
1.0064502374428612,0.010924293923755681,0.02646043161776143,0.0013341291502741227,0.016599129369430372,0.0010054997239472448
1.0064973194679916,0.02453035587728399,0.0340054153402745,0.011333716656649779,0.023295909935809964,0.010873492096169982
1.006544401493122,0.042966387475684646,0.040114529351494024,0.020787738978896356,0.029462484060597118,0.020209725050733884
1.0065914835182523,0.06411092062196938,0.04444580299474769,0.03329944681240632,0.03457180091638222,0.03262933286531253
1.0066385655433827,0.08556714248621351,0.04961437556489147,0.049462130528264495,0.03870198902943161,0.04872571361574345
1.006685647568513,0.10493697207975199,0.05168798926681435,0.06485229624100503,0.04147530054668443,0.06407884347421647
1.0067327295936435,0.12014720761669652,0.05162866270602244,0.07640706666955516,0.04229598375374806,0.07562965505426177
1.0067798116187738,0.12974860817624662,0.047935345973138435,0.08294186479002422,0.040926538662452425,0.08219242952983122
1.0068268936439042,0.1331160769266914,0.04421915041680366,0.08436945777741765,0.03729344643763005,0.08368059045233885
1.0068739756690346,0.13051634907150206,0.03911694500781052,0.08386978816652868,0.03325464598766308,0.08324794707772845
1.006921057694165,0.12301693370584733,0.03279449384870239,0.08185258015702256,0.026686792546698316,0.08134254990581045
1.0069681397192953,0.11219272060745543,0.025002877952476046,0.07585112215539112,0.01913900696521662,0.075474571257569
1.0070152217444257,0.09964098937742749,0.016865862531373656,0.06985230351433948,0.012207665143055154,0.06960401280868601
1.007062303769556,0.08648287672211809,0.010438790595531985,0.06302251331950957,0.0071180407707803674,0.06287177129164766
1.0071093857946865,0.07315337862299943,0.005828595078349655,0.053521194673379444,0.003725374434758761,0.053437700591430944
1.0071564678198168,0.05967551136841471,0.0012741360895687293,0.042771215350936226,0.0007768385077244058,0.04274753464724494
1.0072035498449472,0.046352747241279996,-0.001814795088634259,0.029687677967592516,4.164566665712349e-05,0.02968104556546467
1.0072506318700776,0.03458526276589038,-0.0034302746913660643,0.01916866027493343,0.000990523595675382,0.019145324482201985
1.007297713895208,0.02727830692374265,-0.0031627294317002072,0.01473006896934623,0.0017596774978118192,0.014692393560855057
1.0073447959203383,0.0280866607277734,-0.0014657552608263404,0.01711698325886342,0.0037297053941471505,0.01703996933871373
1.0073918779454687,0.03925806445151868,0.0035670207734486434,0.028584290137595406,0.00844194665686124,0.02841283995523055
1.007438959970599,0.059562255279517966,0.01074628364244302,0.043832242766228824,0.014318376589640743,0.04354557096614004
1.0074860419957294,0.08449757331606145,0.01705392672828077,0.058037587268334905,0.02167774495473284,0.0576128848840277
1.0075331240208598,0.10858230355013457,0.02208678886747486,0.06858033205585247,0.02765131112238308,0.06804945033690077
1.0075802060459902,0.12742598805780986,0.025227840857835186,0.07621925524513734,0.03168478718426287,0.07562051313625974
1.0076272880711206,0.13840784538629322,0.02679313807761147,0.07904744927672683,0.03415630887682229,0.07840782886965446
1.007674370096251,0.14057521646913557,0.025933035347905017,0.0769603579802706,0.03500909063697229,0.07630511487779637
1.0077214521213813,0.1345761316442056,0.02292757333750899,0.07084930100861353,0.03373099840199958,0.0702126657824497
