freq,gls,usurper,pdc_unbiased,shape_periodogram,shift_periodogram
1.0,0.02176245538732735,-0.000384270146430501,-0.007335655112181927,0.006977557893002579,-0.007500077003752671
1.0000470820251304,0.05134779247241603,0.0018703572875743586,0.016081221596065367,0.005924906718812966,0.015935743054555505
1.0000941640502607,0.09689124580742478,0.007651917847359712,0.05094334186944231,0.0047979534203147585,0.050815550879172
1.0001412460753911,0.14848755125694818,0.01630979750934733,0.08456655871201842,0.008688329968522063,0.08434094904235798
1.0001883281005215,0.19664060203551523,0.024829675015532775,0.10917973127593883,0.015157093222388646,0.10880651239879095
1.0002354101256519,0.23592916525893703,0.03136881071592469,0.12678225514793529,0.019174577166256965,0.12632348829562026
1.0002824921507822,0.26363730657080775,0.032243046795418714,0.13936052532630389,0.02032415508140532,0.1388793074496873
1.0003295741759126,0.2780607972143743,0.03307278024352353,0.14663287491158739,0.021352553858585564,0.14613194722090073
1.000376656201043,0.27778293516045677,0.03470059233611956,0.14742341655727248,0.022212911408629063,0.1469054634863014
1.0004237382261734,0.2619162710265795,0.0337045426983935,0.139633635428265,0.022674625600392007,0.139104923787011
1.0004708202513037,0.23107843684954268,0.030626171209550336,0.12167319492364326,0.021743417363524788,0.12116042617843628
1.0005179022764341,0.1884924826566669,0.026353215589957762,0.09811663264576473,0.020571952045773965,0.09762609298786937
1.0005649843015645,0.1401213853463462,0.02350629400252227,0.07552593926328457,0.019036679770381877,0.07506816261060584
1.0006120663266949,0.09311329616242185,0.022546356450538218,0.056936636782797936,0.017169652500965974,0.05652148062621065
1.0006591483518252,0.05338098213176131,0.02421348853014041,0.04656239048066332,0.014407426028014113,0.04621162249870694
1.0007062303769556,0.024158292773911582,0.025158168755143904,0.0379052596807291,0.010047313169126236,0.03765739611609774
1.000753312402086,0.006389706849983347,0.027815866839360805,0.024925530867037873,0.005245947969935228,0.024793850675876337
1.0008003944272164,4.4957735270936574e-05,0.03228136480165894,0.013623927240606612,0.0010711912297005236,0.013594535018309293
1.0008474764523467,0.004476680458159687,0.03185508385683241,0.005279248516488982,0.0013771348963323154,0.005244925147282388
1.000894558477477,0.016631009383087918,0.03342501951716469,0.00604487589630294,0.005135500570764784,0.005920817788758726
1.0009416405026075,0.030279800796216314,0.03620482780033307,0.01614856324889533,0.011916583332479493,0.01586113144490283
1.0009887225277379,0.04019506929021177,0.04000347434394433,0.031662352407458065,0.019544719967730325,0.031194080397560487
1.0010358045528682,0.045271217739530065,0.04248613390968626,0.049643587368788454,0.02926866128380393,0.04895524340931244
1.0010828865779986,0.04665854735345898,0.04306232509312245,0.06394396252727896,0.03858832615836724,0.063058292206945
1.001129968603129,0.04557434040645729,0.041875247283057006,0.06951556918541625,0.046117062050004515,0.06847687299233489
1.0011770506282593,0.04281463251624272,0.03817723747381213,0.06676401531502141,0.049480437695767356,0.0656533741974776
1.0012241326533897,0.03911406922799136,0.031549318799517494,0.05756222886158259,0.04964358904460059,0.056437594465420814
1.00127121467852,0.035734840091298535,0.023058903977063408,0.04469056838221148,0.048407594605339256,0.04357826389541047
1.0013182967036505,0.034632288517627896,0.015179584105529956,0.03354469161607427,0.046686547669732126,0.032459383429795576
1.0013653787287808,0.03686446430802818,0.013961846604658597,0.03235087082016887,0.04485919259763325,0.03130539707364398
1.0014124607539112,0.040499198873267514,0.018871356184622233,0.04235422606047071,0.04402648656788553,0.04133542999176161
1.0014595427790416,0.04245011553894062,0.025770574198625978,0.05148956578485458,0.04355760072168541,0.05048844217684254
1.001506624804172,0.04142424671447975,0.02865162631874513,0.057489670337512934,0.039965878841608064,0.05657033401009747
1.0015537068293023,0.03772147907862947,0.027599994265571012,0.05838903434484734,0.03351160595896719,0.0576098908813865
1.0016007888544327,0.032149333674356434,0.026190735937967197,0.05286952532393206,0.025548888277903043,0.05226501915157112
1.001647870879563,0.025799799790141527,0.025529548710616363,0.040386054375886556,0.01616611990498517,0.03999536380021351
1.0016949529046935,0.020580986012262138,0.021840576828609515,0.02276083148008517,0.00634376598154003,0.02260370901558947
1.0017420349298238,0.01993155776046648,0.020523972312572015,0.008396000375120035,-0.0005026253511026298,0.00840559635323538
1.0017891169549542,0.027489951613850306,0.021904605775719427,0.00883020356959996,0.000948282872928232,0.00880509485403862
1.0018361989800846,0.042074300128446054,0.02406629458524326,0.022145335055818467,0.005674712554419898,0.022004218484863385
1.001883281005215,0.05845891480384451,0.029460490064374924,0.04104344236602053,0.015304401793058788,0.04067262561416242
1.0019303630303453,0.07582159493280267,0.031188108178063126,0.05832937685591873,0.02430533605570562,0.05775337134538362
1.0019774450554757,0.09824195100672209,0.030166890216024988,0.07041397317164165,0.03272769121738792,0.0696567301659289
1.002024527080606,0.1303669711588208,0.025917682806561447,0.07896421651578898,0.036830323755099016,0.07812470596546041
1.0020716091057364,0.17464242099810953,0.020963767032947542,0.08832693698111686,0.03955346871232019,0.08743791083990467
1.0021186911308668,0.22917237164395338,0.022176008079312266,0.11355266104308831,0.04163264540791615,0.11264371439562222
1.0021657731559972,0.2864808872447173,0.02612634194499229,0.14880372324738836,0.045002608630727386,0.1478712677455751
1.0022128551811276,0.335488571803669,0.03036189205287854,0.17945522269565434,0.04914682841056975,0.17849886224117695
1.002259937206258,0.3667004160945303,0.03309561303987017,0.20044309409803335,0.05237141671495357,0.19947682352261037
1.0023070192313883,0.37630521047742305,0.03427623806566046,0.20989430295355302,0.05386559396722424,0.20892668693398428
1.0023541012565187,0.3658732131217113,0.0332657652081406,0.20800353236518512,0.05366110928643435,0.2070348918276807
1.002401183281649,0.3393357840705059,0.03132916453441001,0.19716291122807472,0.05105152193042773,0.1962078902042504
1.0024482653067794,0.30043566038503033,0.027753800861311104,0.1783931936762516,0.04395903396345393,0.17751168942859663
1.0024953473319098,0.25183659939415354,0.020335753749100495,0.15384153094853617,0.032847226280426245,0.15312397790623597
1.0025424293570402,0.1956066522565673,0.011342328360135599,0.12081929242955049,0.01887853811338963,0.12036633099276968
1.0025895113821706,0.13475970805500284,0.0025551875389805668,0.07564140824241966,0.0050059096959885275,0.07550266035121181
1.002636593407301,0.07582916802294695,-0.00286264365175144,0.025728531183742454,-0.004028308666405913,0.025817368617575095
1.0026836754324313,0.03145358980808763,5.063868601935119e-05,-0.0040036080406334615,-0.004758274326130992,-0.003889084700038852
1.0027307574575617,0.01779891286180085,0.010841280774733182,-0.006351274616742859,0.004997025443728807,-0.00646866698439941
1.002777839482692,0.04358985242398123,0.013241160858126374,0.006591376950054447,0.019075736454914182,0.006135902400372013
1.0028249215078224,0.1037077589167159,0.014855312511599678,0.04281328660270074,0.029062399132694778,0.0421279605365285
1.0028720035329528,0.18101238562213362,0.02665614582490742,0.0979436666785688,0.02825532893782652,0.09729059721990381
1.0029190855580832,0.25636899888384335,0.04224967499372715,0.15380629462607742,0.033337614142922245,0.15307986137385435
1.0029661675832136,0.31832235074100634,0.04965911509352786,0.19704252226634572,0.03867056327046479,0.1962608879616098
1.003013249608344,0.36361141655314383,0.054368515486999634,0.228525784613192,0.0378560411763409,0.22778607099639378
1.0030603316334743,0.39341420767750745,0.057222728390520866,0.24979870354304085,0.03571095962451518,0.2491080159608802
1.0031074136586047,0.4102870696014962,0.05817618922329285,0.26258314989231946,0.034233963087617544,0.2619232346053411
1.003154495683735,0.41662904201390033,0.058544166956677704,0.266777273312063,0.03217010139679711,0.2661481074762994
1.0032015777088654,0.41405085665469693,0.05764754891761256,0.26326150551395927,0.029488226245233912,0.2626668480603879
1.0032486597339958,0.4030953535584088,0.05537051200783222,0.251751202986526,0.025942189368045238,0.2512026623236452
1.0032957417591262,0.38301151602067063,0.05173928399741746,0.2324239377319079,0.021608919575609613,0.2319386321491092
1.0033428237842565,0.3514583105172215,0.04651524048007896,0.2047530276495091,0.01613465155287265,0.20436201407329332
1.003389905809387,0.3042863356687068,0.03966402763334125,0.16911475512504195,0.01007233820842462,0.1688464830912334
1.0034369878345173,0.2364892670841809,0.031318636158802905,0.12615890065588273,0.0028918860679485753,0.12605683492137748
1.0034840698596477,0.14805992805189566,0.022734448583119442,0.07745804013496241,-0.0042518571322926624,0.07753730446250628
1.003531151884778,0.05937981673678241,0.017043777281263744,0.035632586371168055,-0.009436340142158915,0.03584858858603299
1.0035782339099084,0.016571701488668728,0.01640109253628168,0.012038086514572617,-0.011965423735024619,0.01232072748769001
1.0036253159350388,0.04141534161646615,0.022953453981031904,0.014399178728297872,-0.009225810404974189,0.014615573599466896
1.0036723979601692,0.0978579156313711,0.031171175495933984,0.03595348541122598,0.0004744813151419713,0.03593199586968658
1.0037194799852995,0.14599333246590304,0.04100902130898898,0.06503465797160808,0.011482810558959533,0.06474849346403237
1.00376656201043,0.17300879075255565,0.046180502360401526,0.0922030709843016,0.022929676891696782,0.09166127966313614
1.0038136440355603,0.18229222765708752,0.051135869337128534,0.11374971918924169,0.030329349309229533,0.11306003167934656
1.0038607260606907,0.18262972424027749,0.05579269235555447,0.12736778710133306,0.03566910908137305,0.12658158613287837
1.003907808085821,0.18292620727983336,0.05935677095496948,0.13485525602086357,0.04148274101263716,0.1339686219776726
1.0039548901109514,0.18798821740501145,0.06041458264149595,0.13913083302593265,0.04745803177146643,0.13814581780839125
1.0040019721360818,0.19658928748535154,0.05803134107639068,0.1397247738744464,0.05098799762157531,0.13868237108663817
1.0040490541612122,0.20361099360789395,0.05461374762429572,0.1356935801867525,0.0513478173579865,0.13463938833126218
1.0040961361863425,0.20356945018764083,0.04747898816072609,0.1287855413388881,0.049282389345571526,0.12775625134301521
1.004143218211473,0.19261735903368254,0.03839300781325028,0.11776025800915435,0.04597633656931917,0.11677553484368047
1.0041903002366033,0.1692114287165738,0.029368899724002043,0.09836742477706704,0.04003649991576885,0.09747640544675096
1.0042373822617336,0.13469585530973552,0.020731064192236026,0.07519967777083232,0.03149377674811287,0.0744706790302702
1.004284464286864,0.094068350002802,0.012856080762011219,0.051842634052145065,0.02084355831049872,0.05134415889906008
1.0043315463119944,0.0558705414627791,0.007002467589492658,0.03082107495389939,0.00889993130103795,0.030601670133899334
1.0043786283371248,0.029785725493520713,0.004199981457627875,0.019809015244991575,-0.0023034684346863,0.019858320505623805
1.0044257103622551,0.022326134922130727,0.004123974791541203,0.01684685304795892,-0.009998087094914983,0.01708116127247129
1.0044727923873855,0.03362727707623793,0.005832991082633239,0.01768087969631584,-0.01263344247962948,0.01797831530341084
1.004519874412516,0.057935866130881315,0.008621366970675393,0.0238553638180855,-0.011076348732432914,0.02411388743102034
1.0045669564376463,0.08691312585069338,0.013327653620159597,0.038233159934289905,-0.005080478233353466,0.03834365163202055
1.0046140384627766,0.11302745450084833,0.01835930074689971,0.05542672474865837,0.004833253334427038,0.05529697488131699
1.004661120487907,0.13143773576861661,0.02346304282091042,0.07126698378066398,0.016010768898081167,0.07087708001138361
1.0047082025130374,0.140315951549541,0.026973189645391974,0.0817840112464661,0.027074418383413994,0.08115146231939353
1.0047552845381678,0.14016084842095028,0.02714477520271944,0.0846685751900148,0.03616093570453534,0.08384625424196882
1.0048023665632981,0.13271042804166153,0.02571802676416306,0.08028160564993014,0.04272146444852726,0.07932216890103375
1.0048494485884285,0.1199532079956697,0.022460009075356138,0.06958311394397716,0.04842491369820002,0.06849725098530658
1.0048965306135589,0.10352759540252561,0.01969560838868375,0.05738407400153901,0.050827493312515785,0.05623445436614467
1.0049436126386893,0.08458770500586026,0.014512426381206816,0.04469505929439128,0.04945068718143353,0.04356015916354856
1.0049906946638196,0.06411017510052013,0.010044951350528297,0.03435472552873721,0.04350534199236139,0.033341164572212416
1.00503777668895,0.043500849939608656,0.004624358225651343,0.022887706523455283,0.036359458281445524,0.022029648899476006
1.0050848587140804,0.02497562650004661,0.000917166134003458,0.013888116903115118,0.028870817708443283,0.013201612312885585
1.0051319407392107,0.011013597455985432,0.001156358104923746,0.011624969459267675,0.020042951965957796,0.011146194972007995
1.0051790227643411,0.003334338693202587,0.0020886320930182936,0.009001101837417943,0.010811625068041732,0.008741347551213688
1.0052261047894715,0.0027948227754708652,-0.0008891743246299485,0.005716764128480125,0.002438521830444908,0.005657027387008737
1.0052731868146019,0.010164673003053454,-0.003976720961384703,0.005314070387151807,-0.004129156679023636,0.005411036870358144
1.0053202688397322,0.026566180290056158,-0.0059783179999011995,0.008193549268036414,-0.00867658149355932,0.008398356257898278
1.0053673508648626,0.05291846997433676,-0.007578807715634193,0.011498759854167706,-0.008766063104952143,0.011704873694135759
1.005414432889993,0.08828034555015178,-0.006865271109987509,0.017065936640710815,-0.006074318759427902,0.017206147069512193
1.0054615149151234,0.12763762777320273,-0.005942837411812845,0.025647230237824777,-0.001898130386323734,0.025685197372426947
1.0055085969402537,0.16155770115500132,-0.004783950371435343,0.038076850744054896,0.004655951478172865,0.037955703718662415
1.0055556789653841,0.18078890709766565,-0.0031139628826752502,0.05135766337998839,0.012800350112396497,0.05104332939940533
1.0056027609905145,0.18307418566708303,-0.0025819238697755023,0.06056084021799014,0.021005002202632746,0.060058886591781706
1.0056498430156449,0.1741533504439713,-0.0014940677714682354,0.06655908741414072,0.027066913973444174,0.06592329645664279
1.0056969250407752,0.16242605985016223,-0.0008856492242815988,0.07063087442771013,0.03223546178780447,0.06988426231365452
1.0057440070659056,0.15418810481596457,-0.0006575199496598763,0.07107575192890922,0.03332880732966274,0.07030594076277054
1.005791089091036,0.1523552110015489,-0.0014217742409331408,0.0660360559428213,0.03207011696505668,0.06529122994284552
1.0058381711161664,0.15691036178882456,-0.0009732611737060179,0.06130313889977103,0.029739256593822476,0.060607483720747
1.0058852531412967,0.16538784679386007,0.0020863917994987185,0.06307528196508604,0.027258341662402926,0.06243455906221613
1.005932335166427,0.17322460684996496,0.005057368534273225,0.06323184659303546,0.02245187515559248,0.06269764007348726
1.0059794171915575,0.17475929729964576,0.005982474779866217,0.05880087400333982,0.01673644538650203,0.058395445572098886
1.0060264992166879,0.16548577922015562,0.006214692901520947,0.05204155960234529,0.011050896927540908,0.05176758441978031
1.0060735812418182,0.1445721481217929,0.005558026987988297,0.04234591607178599,0.006487629220034162,0.04218054534324819
1.0061206632669486,0.11538472372115638,0.004267949292398624,0.03266210113426135,0.002318463537059469,0.032597734857251974
1.006167745292079,0.08342022676517998,0.0023885748237170985,0.0259645785337829,-0.00031447330176440427,0.02596469509983943
1.0062148273172093,0.053714935068683495,0.0027018722418024957,0.01794830890199036,-0.0004563382095591849,0.017954085083807227
1.0062619093423397,0.029620632829972474,0.0033426053665900307,0.006428025048282717,-2.4223351888401645e-05,0.0064267757807679885
1.00630899136747,0.012907514843990737,0.004461068882086396,-0.004503164505502606,0.002058915870740471,-0.0045509753124498885
1.0063560733926005,0.004292560353454192,0.005982682337808599,-0.010519166817943732,0.004527110717556143,-0.010624190057428649
1.0064031554177308,0.0038095921685766332,0.008290342757782215,-0.007972360122875525,0.005302668416481581,-0.008096606244098534
1.0064502374428612,0.010924293923755681,0.013536980398632376,0.0013341291502741227,0.008550651185095771,0.0011299532474298756
1.0064973194679916,0.02453035587728399,0.01686477539128629,0.011333716656649779,0.01239410644294917,0.011035936688517153
1.006544401493122,0.042966387475684646,0.018662854473188495,0.020787738978896356,0.015333969813715619,0.020418920530447072
1.0065914835182523,0.06411092062196938,0.017884487676223228,0.03329944681240632,0.016750878704958335,0.03289593686950624
1.0066385655433827,0.08556714248621351,0.017960535506407686,0.049462130528264495,0.017887690970823506,0.04903106024745285
1.006685647568513,0.10493697207975199,0.019198893001108712,0.06485229624100503,0.01813056631556527,0.06441497828042257
1.0067327295936435,0.12014720761669652,0.019452390358172377,0.07640706666955516,0.018092588481145058,0.07597028282561454
1.0067798116187738,0.12974860817624662,0.017128860485538955,0.08294186479002422,0.017019224879220262,0.08252876413778402
1.0068268936439042,0.1331160769266914,0.016613848512415864,0.08436945777741765,0.014485510630477524,0.08401274827897458
1.0068739756690346,0.13051634907150206,0.0153445474971451,0.08386978816652868,0.012068061464978302,0.0835674922676441
1.006921057694165,0.12301693370584733,0.012967123926916586,0.08185258015702256,0.00878565659340243,0.08162525771228708
1.0069681397192953,0.11219272060745543,0.008912654367118125,0.07585112215539112,0.00472838301744194,0.07571878145789232
1.0070152217444257,0.09964098937742749,0.0051071206718514344,0.06985230351433948,0.00020537069844650063,0.06982769054972356
1.007062303769556,0.08648287672211809,0.0022830479519912648,0.06302251331950957,-0.0028923574399480874,0.06307347711812353
1.0071093857946865,0.07315337862299943,0.00022405896526833118,0.053521194673379444,-0.005036769851037959,0.05362626129650572
1.0071564678198168,0.05967551136841471,-0.0018741099754516033,0.042771215350936226,-0.006231858372033687,0.04290806646614772
1.0072035498449472,0.046352747241279996,-0.003684284073039633,0.029687677967592516,-0.006995401789687431,0.02984651964436043
1.0072506318700776,0.03458526276589038,-0.004491032272288377,0.01916866027493343,-0.0073049736845061915,0.019337776642653185
1.007297713895208,0.02727830692374265,-0.004289963145278116,0.01473006896934623,-0.007388243085568156,0.014902360384374706
1.0073447959203383,0.0280866607277734,-0.0033452723412391444,0.01711698325886342,-0.006142598656501784,0.017258813974179832
1.0073918779454687,0.03925806445151868,1.613900675539932e-05,0.028584290137595406,-0.0036504835718263184,0.028663281076260403
1.007438959970599,0.059562255279517966,0.004233834937363213,0.043832242766228824,-0.0005392591408681584,0.04383263479810075
1.0074860419957294,0.08449757331606145,0.008619611888884165,0.058037587268334905,0.0026292709364907872,0.05795898572194465
1.0075331240208598,0.10858230355013457,0.010942257247773495,0.06858033205585247,0.006351715078106511,0.0684119533747355
1.0075802060459902,0.12742598805780986,0.013671295867033771,0.07621925524513734,0.010567463738858767,0.07595220332457703
1.0076272880711206,0.13840784538629322,0.014720836717062473,0.07904744927672683,0.013585926635448777,0.078711487422891
1.007674370096251,0.14057521646913557,0.013583972525421322,0.0769603579802706,0.01636093935382585,0.07656221711616397
