freq,gls,usurper,pdc_unbiased,shape_periodogram,shift_periodogram
1.0,0.02176245538732735,0.01891120901069429,-0.007335655112181927,0.0078043296780699895,-0.007646066649686238
1.0000470820251304,0.05134779247241603,0.02995452346867681,0.016081221596065367,0.01373953817482683,0.01551296764777106
1.0000941640502607,0.09689124580742478,0.04497153181677327,0.05094334186944231,0.027297641851277248,0.04981824138278057
1.0001412460753911,0.14848755125694818,0.06145250907389416,0.08456655871201842,0.04608040111905812,0.08273725420738182
1.0001883281005215,0.19664060203551523,0.07781939315209496,0.10917973127593883,0.06857885364487193,0.10660871560653336
1.0002354101256519,0.23592916525893703,0.09101158846604986,0.12678225514793529,0.0867214841188718,0.12370682726533885
1.0002824921507822,0.26363730657080775,0.09932457210924249,0.13936052532630389,0.09836609546838296,0.13602227350631418
1.0003295741759126,0.2780607972143743,0.10491941012322224,0.14663287491158739,0.10570584830794984,0.14315092212209948
1.000376656201043,0.27778293516045677,0.10720657118427435,0.14742341655727248,0.11010110611545218,0.14384050830248715
1.0004237382261734,0.2619162710265795,0.1048864665315717,0.139633635428265,0.11097858470334493,0.1359755611085707
1.0004708202513037,0.23107843684954268,0.0983156578575887,0.12167319492364326,0.10756158488110434,0.11798437165006212
1.0005179022764341,0.1884924826566669,0.08915142742607966,0.09811663264576473,0.10171209016012157,0.09445786904708785
1.0005649843015645,0.1401213853463462,0.0814556331928585,0.07552593926328457,0.09552254864402021,0.0719524113975928
1.0006120663266949,0.09311329616242185,0.07498911603985131,0.056936636782797936,0.0878666985130994,0.053552446921982494
1.0006591483518252,0.05338098213176131,0.07022625137758375,0.04656239048066332,0.0773158428818364,0.0435309717170764
1.0007062303769556,0.024158292773911582,0.0636578134289787,0.0379052596807291,0.06331106097521495,0.035384878405942496
1.000753312402086,0.006389706849983347,0.0561852051061614,0.024925530867037873,0.04666683357709234,0.023040863347715945
1.0008003944272164,4.4957735270936574e-05,0.05088754364407772,0.013623927240606612,0.03201594611456452,0.012322105633236166
1.0008474764523467,0.004476680458159687,0.046389051816259,0.005279248516488982,0.025791773753114998,0.004231279947420631
1.000894558477477,0.016631009383087918,0.04915490488997866,0.00604487589630294,0.027297165881014475,0.004935726693202141
1.0009416405026075,0.030279800796216314,0.05866275590339038,0.01614856324889533,0.035901557046222665,0.014690569395226177
1.0009887225277379,0.04019506929021177,0.07187406071755008,0.031662352407458065,0.05113270268752999,0.029606096802697022
1.0010358045528682,0.045271217739530065,0.08371479472253808,0.049643587368788454,0.06972146734477065,0.04690154620562391
1.0010828865779986,0.04665854735345898,0.09266018223884032,0.06394396252727896,0.08701993869701288,0.06061514355876169
1.001129968603129,0.04557434040645729,0.09792641654101053,0.06951556918541625,0.09955019105244968,0.06577785995555349
1.0011770506282593,0.04281463251624272,0.09719106521932933,0.06676401531502141,0.10455258858898764,0.0628425571751763
1.0012241326533897,0.03911406922799136,0.0910418163068576,0.05756222886158259,0.1032545954118198,0.053636410675037445
1.00127121467852,0.035734840091298535,0.0818307004790229,0.04469056838221148,0.09862637588028267,0.040867453490973996
1.0013182967036505,0.034632288517627896,0.07401674012568966,0.03354469161607427,0.09466930170642453,0.029820762885528953
1.0013653787287808,0.03686446430802818,0.07170919734075579,0.03235087082016887,0.09312432301585714,0.028680736802637104
1.0014124607539112,0.040499198873267514,0.07477119771791045,0.04235422606047071,0.09511012378909292,0.03865005358133631
1.0014595427790416,0.04245011553894062,0.08032126540240836,0.05148956578485458,0.09907042271659651,0.04768184986456342
1.001506624804172,0.04142424671447975,0.08361670917411618,0.057489670337512934,0.09871092530903759,0.053722935515946195
1.0015537068293023,0.03772147907862947,0.08368407193602986,0.05838903434484734,0.09229378197755407,0.054852833012840586
1.0016007888544327,0.032149333674356434,0.07872132633236126,0.05286952532393206,0.07995071564874494,0.04975827766880416
1.001647870879563,0.025799799790141527,0.06848664758890342,0.040386054375886556,0.061483965007301765,0.03793901686696064
1.0016949529046935,0.020580986012262138,0.05395516260404039,0.02276083148008517,0.04112961798710617,0.0210946291707033
1.0017420349298238,0.01993155776046648,0.04482274886377063,0.008396000375120035,0.02623546322968284,0.007328672263200292
1.0017891169549542,0.027489951613850306,0.04413522974614085,0.00883020356959996,0.024865213543540193,0.007817941834591164
1.0018361989800846,0.042074300128446054,0.04799522407351653,0.022145335055818467,0.032762514905420086,0.020811713208272804
1.001883281005215,0.05845891480384451,0.05898154936861307,0.04104344236602053,0.048081538381494926,0.03911139021711987
1.0019303630303453,0.07582159493280267,0.07124352037420759,0.05832937685591873,0.06629378688168358,0.05573070609532784
1.0019774450554757,0.09824195100672209,0.08082260096062278,0.07041397317164165,0.08563035590525116,0.06715676594334988
1.002024527080606,0.1303669711588208,0.08308430551153545,0.07896421651578898,0.09922963116722217,0.07528410808048443
1.0020716091057364,0.17464242099810953,0.08199735226896103,0.08832693698111686,0.10828690422907766,0.08440874396464808
1.0021186911308668,0.22917237164395338,0.08617427306408001,0.11355266104308831,0.11536332982255466,0.1095955359211556
1.0021657731559972,0.2864808872447173,0.0938649053030477,0.14880372324738836,0.12225763817238847,0.14495333453912837
1.0022128551811276,0.335488571803669,0.10088150462127772,0.17945522269565434,0.12805600562943817,0.17576822468817885
1.002259937206258,0.3667004160945303,0.10468383489614434,0.20044309409803335,0.13077372052990585,0.19692040794470714
1.0023070192313883,0.37630521047742305,0.10475185755960453,0.20989430295355302,0.12953907918281468,0.20648170285034348
1.0023541012565187,0.3658732131217113,0.10142125601780162,0.20800353236518512,0.12464648134775702,0.2046357401035566
1.002401183281649,0.3393357840705059,0.0962934579129579,0.19716291122807472,0.11667022379102662,0.193820720644143
1.0024482653067794,0.30043566038503033,0.0893921225801012,0.1783931936762516,0.10327409840774658,0.17516831018687568
1.0024953473319098,0.25183659939415354,0.07902656663194861,0.15384153094853617,0.08307815210828312,0.15097808923109218
1.0025424293570402,0.1956066522565673,0.06244378706288559,0.12081929242955049,0.05762310245191504,0.11863089223205849
1.0025895113821706,0.13475970805500284,0.042541452894796064,0.07564140824241966,0.027195729813419438,0.07451437871088054
1.002636593407301,0.07582916802294695,0.02653775125423461,0.025728531183742454,0.002827869594179421,0.02559304605193089
1.0026836754324313,0.03145358980808763,0.02169717343424273,-0.0040036080406334615,-0.0007891188343542814,-0.003968347182497233
1.0027307574575617,0.01779891286180085,0.030730094450097077,-0.006351274616742859,0.018946909853749798,-0.007115007693935109
1.002777839482692,0.04358985242398123,0.044818380543490355,0.006591376950054447,0.05115925036637226,0.004519018410248172
1.0028249215078224,0.1037077589167159,0.06672481605983496,0.04281328660270074,0.08100730975603941,0.03963418270841169
1.0028720035329528,0.18101238562213362,0.09081208210704293,0.0979436666785688,0.10074824461352501,0.09431347953473372
1.0029190855580832,0.25636899888384335,0.11111610147591162,0.15380629462607742,0.11160408564404825,0.15023315392826367
1.0029661675832136,0.31832235074100634,0.12393411917156796,0.19704252226634572,0.11606659751043989,0.19370933390980002
1.003013249608344,0.36361141655314383,0.13071508946832466,0.228525784613192,0.11790069444179029,0.22542548971705192
1.0030603316334743,0.39341420767750745,0.13331255645033244,0.24979870354304085,0.11687150967274527,0.24688876596934076
1.0031074136586047,0.4102870696014962,0.13255325244254876,0.26258314989231946,0.11430952977476522,0.25980231052566377
1.003154495683735,0.41662904201390033,0.12972758706830598,0.266777273312063,0.10997273280060114,0.26406823511635924
1.0032015777088654,0.41405085665469693,0.12484946212339468,0.26326150551395927,0.10377050823808696,0.26059034722360536
1.0032486597339958,0.4030953535584088,0.11789493809382669,0.251751202986526,0.0955243572099075,0.2491124318560746
1.0032957417591262,0.38301151602067063,0.10863899188706799,0.2324239377319079,0.08516478868758443,0.22985539348304607
1.0033428237842565,0.3514583105172215,0.09671307124506431,0.2047530276495091,0.0724876408285329,0.20234537899497423
1.003389905809387,0.3042863356687068,0.08162574714842549,0.16911475512504195,0.057719841745892425,0.16700988140027861
1.0034369878345173,0.2364892670841809,0.06410362074876692,0.12615890065588273,0.04127281398390012,0.12452823232194055
1.0034840698596477,0.14805992805189566,0.04589745955617531,0.07745804013496241,0.024532232417258822,0.07643244205870173
1.003531151884778,0.05937981673678241,0.03291320792515652,0.035632586371168055,0.011642259423974514,0.03513488152742152
1.0035782339099084,0.016571701488668728,0.030028319306603112,0.012038086514572617,0.006483675635959709,0.01176578767131283
1.0036253159350388,0.04141534161646615,0.039801915708942225,0.014399178728297872,0.01342978520578648,0.013844595135079981
1.0036723979601692,0.0978579156313711,0.05812377684701481,0.03595348541122598,0.030570607986309385,0.03470379927887783
1.0037194799852995,0.14599333246590304,0.08146451087256552,0.06503465797160808,0.050356301806125804,0.0630332124140962
1.00376656201043,0.17300879075255565,0.0992371730105183,0.0922030709843016,0.06848668821177727,0.08959583226383712
1.0038136440355603,0.18229222765708752,0.11004156669213705,0.11374971918924169,0.07957002555729598,0.11084106026341681
1.0038607260606907,0.18262972424027749,0.11477712563060131,0.12736778710133306,0.0868698478225592,0.1242904746804479
1.003907808085821,0.18292620727983336,0.11670855581618855,0.13485525602086357,0.09309671354773469,0.13163562240229928
1.0039548901109514,0.18798821740501145,0.11814650533215945,0.13913083302593265,0.09733356059927199,0.13581861141601445
1.0040019721360818,0.19658928748535154,0.11661498237501726,0.1397247738744464,0.09932883740054363,0.13636326048871109
1.0040490541612122,0.20361099360789395,0.11255662642836105,0.1356935801867525,0.1000759823252472,0.13228982876026385
1.0040961361863425,0.20356945018764083,0.1052971113224838,0.1287855413388881,0.0984988750182617,0.12538636998386674
1.004143218211473,0.19261735903368254,0.09602706061867336,0.11776025800915435,0.09523345355900838,0.11439655826506365
1.0041903002366033,0.1692114287165738,0.08365906975115259,0.09836742477706704,0.0875601876890723,0.09515115493432841
1.0042373822617336,0.13469585530973552,0.0689768866489274,0.07519967777083232,0.07530378978658508,0.07231601931472649
1.004284464286864,0.094068350002802,0.05326544938622042,0.051842634052145065,0.06006550899274321,0.04946476512447325
1.0043315463119944,0.0558705414627791,0.03843292177457745,0.03082107495389939,0.04256624084050427,0.029099684169109602
1.0043786283371248,0.029785725493520713,0.028429144228658144,0.019809015244991575,0.02618620378564533,0.018738709084019377
1.0044257103622551,0.022326134922130727,0.02376644264324497,0.01684685304795892,0.014031770473234634,0.01626629205854646
1.0044727923873855,0.03362727707623793,0.024109883691619517,0.01768087969631584,0.008464464785048592,0.01732416351371584
1.004519874412516,0.057935866130881315,0.028912108704080966,0.0238553638180855,0.009470383966309536,0.023453418822167553
1.0045669564376463,0.08691312585069338,0.037822382637512135,0.038233159934289905,0.018117894799853658,0.037475392358500795
1.0046140384627766,0.11302745450084833,0.04974228830228765,0.05542672474865837,0.03448051400394787,0.05402249552921702
1.004661120487907,0.13143773576861661,0.06181161148369656,0.07126698378066398,0.053787479881009334,0.06914497177558063
1.0047082025130374,0.140315951549541,0.07318698052147704,0.0817840112464661,0.0730375629616198,0.0789960494383929
1.0047552845381678,0.14016084842095028,0.07868712001422376,0.0846685751900148,0.08883865107049906,0.08135635944483809
1.0048023665632981,0.13271042804166153,0.07965688317221414,0.08028160564993014,0.09988136354997088,0.07658677002131248
1.0048494485884285,0.1199532079956697,0.07743689685792467,0.06958311394397716,0.10761627014556284,0.06557451629781984
1.0048965306135589,0.10352759540252561,0.07529276655536714,0.05738407400153901,0.1110576988017053,0.05318564527413846
1.0049436126386893,0.08458770500586026,0.07123352037769858,0.04469505929439128,0.10952262693967889,0.040475689656365665
1.0049906946638196,0.06411017510052013,0.06712739277619427,0.03435472552873721,0.10384569949374381,0.03028891587035711
1.00503777668895,0.043500849939608656,0.06031660385566103,0.022887706523455283,0.09478182591799073,0.01911695108545776
1.0050848587140804,0.02497562650004661,0.051444323718947506,0.013888116903115118,0.08227596374671506,0.010579527194527079
1.0051319407392107,0.011013597455985432,0.04261877726273208,0.011624969459267675,0.0678235023017405,0.008888132169408425
1.0051790227643411,0.003334338693202587,0.03456391012232346,0.009001101837417943,0.050628886320870155,0.0069513513691838984
1.0052261047894715,0.0027948227754708652,0.023847039525912557,0.005716764128480125,0.03169310632111035,0.00443014789189109
1.0052731868146019,0.010164673003053454,0.015232247045490135,0.005314070387151807,0.01529055673702209,0.0046907083989169525
1.0053202688397322,0.026566180290056158,0.01029029071993969,0.008193549268036414,0.002999527467203782,0.008065328890626297
1.0053673508648626,0.05291846997433676,0.009074848052283946,0.011498759854167706,-0.0029018253762479788,0.01160692417749556
1.005414432889993,0.08828034555015178,0.00968297687497711,0.017065936640710815,-0.0040936486308253564,0.01721786989672636
1.0054615149151234,0.12763762777320273,0.012313660000048849,0.025647230237824777,-0.0009163016781090898,0.02566328343369257
1.0055085969402537,0.16155770115500132,0.017697944173597692,0.038076850744054896,0.00939511825503785,0.037667415259654335
1.0055556789653841,0.18078890709766565,0.02525730565476903,0.05135766337998839,0.024340698519630395,0.050348015840218294
1.0056027609905145,0.18307418566708303,0.031171881105804922,0.06056084021799014,0.040719264806521514,0.05891885879208652
1.0056498430156449,0.1741533504439713,0.037473747560636844,0.06655908741414072,0.05562479761224257,0.06436444470107201
1.0056969250407752,0.16242605985016223,0.04219298145196002,0.07063087442771013,0.06836704379031804,0.06798114495958155
1.0057440070659056,0.15418810481596457,0.0434345530144262,0.07107575192890922,0.0760815427538459,0.06815379789106207
1.005791089091036,0.1523552110015489,0.0416502400945666,0.0660360559428213,0.07885690972149834,0.06300207181654545
1.0058381711161664,0.15691036178882456,0.040574277656157974,0.06130313889977103,0.07866637468428696,0.058262396983957396
1.0058852531412967,0.16538784679386007,0.041181803325599356,0.06307528196508604,0.075794293307635,0.060142307827259746
1.005932335166427,0.17322460684996496,0.03986534361743907,0.06323184659303546,0.06994012105165576,0.06051001250001737
1.0059794171915575,0.17475929729964576,0.03574098255803003,0.05880087400333982,0.061249505981713664,0.05638877800900437
1.0060264992166879,0.16548577922015562,0.03076086748982807,0.05204155960234529,0.05194215360491437,0.04996973019213844
1.0060735812418182,0.1445721481217929,0.025528790612778737,0.04234591607178599,0.04122201345544958,0.04067972505942588
1.0061206632669486,0.11538472372115638,0.021017079510051925,0.03266210113426135,0.03103425367881341,0.031394844957386675
1.006167745292079,0.08342022676517998,0.019168483274789486,0.0259645785337829,0.023268038529884502,0.025008138088795828
1.0062148273172093,0.053714935068683495,0.02043297226970949,0.01794830890199036,0.018305489998557477,0.017195063103895788
1.0062619093423397,0.029620632829972474,0.022826359823551367,0.006428025048282717,0.01635272060906496,0.005760945278377423
1.00630899136747,0.012907514843990737,0.024735298730446876,-0.004503164505502606,0.015774864115527264,-0.005139276978971776
1.0063560733926005,0.004292560353454192,0.027552078483845957,-0.010519166817943732,0.016853856501149,-0.011194911999895325
1.0064031554177308,0.0038095921685766332,0.0310273783807849,-0.007972360122875525,0.018132715092150104,-0.008701900176454627
1.0064502374428612,0.010924293923755681,0.038130934441206216,0.0013341291502741227,0.02419007322676585,0.00035296227458624536
1.0064973194679916,0.02453035587728399,0.04525326442235513,0.011333716656649779,0.032422258611425156,0.010016158064827635
1.006544401493122,0.042966387475684646,0.05116290562361272,0.020787738978896356,0.04054754069787663,0.019144417755991506
1.0065914835182523,0.06411092062196938,0.05512564266820838,0.03329944681240632,0.0470043219500193,0.03140518929130326
1.0066385655433827,0.08556714248621351,0.060155025408281555,0.049462130528264495,0.05216998694613729,0.04737948475321928
1.006685647568513,0.10493697207975199,0.06277502852411045,0.06485229624100503,0.05515761092250835,0.06267290828954007
1.0067327295936435,0.12014720761669652,0.06281614021783699,0.07640706666955516,0.05582387832847741,0.07421698196611265
1.0067798116187738,0.12974860817624662,0.059357924426664946,0.08294186479002422,0.05371838224857847,0.08083532537278107
1.0068268936439042,0.1331160769266914,0.055884675903116084,0.08436945777741765,0.04917709814794867,0.08242778481330174
1.0068739756690346,0.13051634907150206,0.050797294492642704,0.08386978816652868,0.043929780224300746,0.08211843876777389
1.006921057694165,0.12301693370584733,0.04381166419704588,0.08185258015702256,0.0366330979070003,0.0803696441788179
1.0069681397192953,0.11219272060745543,0.035460255090983266,0.07585112215539112,0.028598332553835183,0.07467058020614921
1.0070152217444257,0.09964098937742749,0.027349802649370564,0.06985230351433948,0.02129446231081347,0.06895415133055993
1.007062303769556,0.08648287672211809,0.021611162572196176,0.06302251331950957,0.016221979729735034,0.06232568484991294
1.0071093857946865,0.07315337862299943,0.01792090323449489,0.053521194673379444,0.012672459762762723,0.052970302326977074
1.0071564678198168,0.05967551136841471,0.014828788109055677,0.042771215350936226,0.00984892435658128,0.042340209774846364
1.0072035498449472,0.046352747241279996,0.012786773501956117,0.029687677967592516,0.0090485097780568,0.029298351004596292
1.0072506318700776,0.03458526276589038,0.012481220397762378,0.01916866027493343,0.010138455695371607,0.018743300091823418
1.007297713895208,0.02727830692374265,0.014097722688105567,0.01473006896934623,0.011446860381504479,0.01425523023203337
1.0073447959203383,0.0280866607277734,0.018516136287949066,0.01711698325886342,0.015249130370463177,0.016487216875786696
1.0073918779454687,0.03925806445151868,0.0280855649345149,0.028584290137595406,0.023524553740125114,0.027616389533703514
1.007438959970599,0.059562255279517966,0.040351175718012396,0.043832242766228824,0.033608693095566085,0.042462239558570695
1.0074860419957294,0.08449757331606145,0.05220815154256412,0.058037587268334905,0.045535769774844956,0.05621211830694785
1.0075331240208598,0.10858230355013457,0.061785149305120086,0.06858033205585247,0.056445809045378124,0.06635800001309664
1.0075802060459902,0.12742598805780986,0.06790524179166378,0.07621925524513734,0.06414505527203503,0.07373072514380068
1.0076272880711206,0.13840784538629322,0.07074415412902392,0.07904744927672683,0.06848073068337117,0.07641148482397961
1.007674370096251,0.14057521646913557,0.06876205664474123,0.0769603579802706,0.0694894715499751,0.07428445783747463
1.0077214521213813,0.1345761316442056,0.06290071734559646,0.07084930100861353,0.06680980154129242,0.06825564746781156
1.0077685341465117,0.12269802495893224,0.0543318781294957,0.062425783036096825,0.05934462793186033,0.060089097191178165
