freq,gls,usurper,pdc_unbiased,shape_periodogram,shift_periodogram
1.0,0.02176245538732735,0.03037457922928392,-0.007335655112181927,0.0033822108989111786,-0.007510682652480431
1.0000470820251304,0.05134779247241603,0.050771911818699125,0.016081221596065367,0.01971511006288554,0.014975294746554308
1.0000941640502607,0.09689124580742478,0.07110497810902454,0.05094334186944231,0.04134728835774517,0.04864106016705449
1.0001412460753911,0.14848755125694818,0.09147330900857764,0.08456655871201842,0.060791819402994905,0.0812778009923265
1.0001883281005215,0.19664060203551523,0.10711730044503445,0.10917973127593883,0.07676627463468025,0.10517122989593294
1.0002354101256519,0.23592916525893703,0.11583287440334837,0.12678225514793529,0.08779492412362365,0.12233892280171613
1.0002824921507822,0.26363730657080775,0.12083195880883449,0.13936052532630389,0.09343169914099846,0.1347342681682283
1.0003295741759126,0.2780607972143743,0.1231374901428772,0.14663287491158739,0.09651949455526727,0.1419176093012056
1.000376656201043,0.27778293516045677,0.12284757479150313,0.14742341655727248,0.09787430092208561,0.14265826654918248
1.0004237382261734,0.2619162710265795,0.11865498607014406,0.139633635428265,0.09628306116013324,0.13489152781167044
1.0004708202513037,0.23107843684954268,0.10893434218155822,0.12167319492364326,0.09145558577436608,0.11704945385611944
1.0005179022764341,0.1884924826566669,0.09630433846080448,0.09811663264576473,0.08424496477961997,0.09372743727315996
1.0005649843015645,0.1401213853463462,0.08718663408929184,0.07552593926328457,0.07861695800568404,0.07134056233256862
1.0006120663266949,0.09311329616242185,0.08275732098153266,0.056936636782797936,0.07440859556957119,0.05292088668910278
1.0006591483518252,0.05338098213176131,0.08475044177565777,0.04656239048066332,0.07119213941599627,0.04269427567947284
1.0007062303769556,0.024158292773911582,0.08670133490393743,0.0379052596807291,0.06791302319829039,0.03419696143981393
1.000753312402086,0.006389706849983347,0.08425875144979945,0.024925530867037873,0.06304848420383974,0.02146387830061215
1.0008003944272164,4.4957735270936574e-05,0.08364719740103159,0.013623927240606612,0.05872351956204053,0.01039052136916577
1.0008474764523467,0.004476680458159687,0.0806074377284034,0.005279248516488982,0.05789028251719,0.002089275860140936
1.000894558477477,0.016631009383087918,0.08279002721863948,0.00604487589630294,0.061229491675019926,0.0026715361052880335
1.0009416405026075,0.030279800796216314,0.0935834860608798,0.01614856324889533,0.06959723618144908,0.012325402786231548
1.0009887225277379,0.04019506929021177,0.11040296995751003,0.031662352407458065,0.08241245576078939,0.02717774390859486
1.0010358045528682,0.045271217739530065,0.12863382320682523,0.049643587368788454,0.09604075240365113,0.04450649323115285
1.0010828865779986,0.04665854735345898,0.13746149108513295,0.06394396252727896,0.10894122784299937,0.058231457829280096
1.001129968603129,0.04557434040645729,0.13937616261374777,0.06951556918541625,0.11765914076775798,0.06341756884577847
1.0011770506282593,0.04281463251624272,0.13234766660238073,0.06676401531502141,0.12042869784229016,0.060515189892121346
1.0012241326533897,0.03911406922799136,0.12058281663836276,0.05756222886158259,0.11896241043044029,0.051321494104737284
1.00127121467852,0.035734840091298535,0.1071963678723355,0.04469056838221148,0.11431713855969777,0.03860137513856006
1.0013182967036505,0.034632288517627896,0.09769054193211008,0.03354469161607427,0.11158615598451105,0.027534019380484574
1.0013653787287808,0.03686446430802818,0.10138497524819982,0.03235087082016887,0.11279701484628994,0.026270499578917725
1.0014124607539112,0.040499198873267514,0.11321042962508891,0.04235422606047071,0.11793528470545138,0.03606675695527156
1.0014595427790416,0.04245011553894062,0.1247033965576472,0.05148956578485458,0.12358310992061614,0.044978971740887594
1.001506624804172,0.04142424671447975,0.1325039773349896,0.057489670337512934,0.12531638217099964,0.050937697632852885
1.0015537068293023,0.03772147907862947,0.1335496102774066,0.05838903434484734,0.12252243156592814,0.05197991758792307
1.0016007888544327,0.032149333674356434,0.12886827017463687,0.05286952532393206,0.11321863925845649,0.04688341241292259
1.001647870879563,0.025799799790141527,0.11744423706074077,0.040386054375886556,0.09865523579475803,0.0350786853968576
1.0016949529046935,0.020580986012262138,0.10116180501698827,0.02276083148008517,0.08074610960473709,0.018345819792773558
1.0017420349298238,0.01993155776046648,0.0866754500510639,0.008396000375120035,0.06678960698617542,0.004718806549198574
1.0017891169549542,0.027489951613850306,0.08087015260454254,0.00883020356959996,0.06246892360365855,0.0053901206565066
1.0018361989800846,0.042074300128446054,0.08158476662837236,0.022145335055818467,0.06705353787707129,0.018465847303367727
1.001883281005215,0.05845891480384451,0.08798807606944256,0.04104344236602053,0.07729370025933668,0.03684782170813802
1.0019303630303453,0.07582159493280267,0.09690228416745296,0.05832937685591873,0.08653959341510255,0.053702443765056694
1.0019774450554757,0.09824195100672209,0.10411927050327124,0.07041397317164165,0.08891444767695823,0.06570801559711079
1.002024527080606,0.1303669711588208,0.10200141946497496,0.07896421651578898,0.0869208287390102,0.07438418932211592
1.0020716091057364,0.17464242099810953,0.09452911613077539,0.08832693698111686,0.08309646748371177,0.0839604830415907
1.0021186911308668,0.22917237164395338,0.09935620102545994,0.11355266104308831,0.08382576805146877,0.10923519724885487
1.0021657731559972,0.2864808872447173,0.11321092387812831,0.14880372324738836,0.08905294830312636,0.14440103723154885
1.0022128551811276,0.335488571803669,0.12690014859329704,0.17945522269565434,0.09489802975537776,0.17497840733417164
1.002259937206258,0.3667004160945303,0.13612048180215872,0.20044309409803335,0.0978466074719882,0.1959842071253231
1.0023070192313883,0.37630521047742305,0.13963437897540062,0.20989430295355302,0.09699854449278138,0.20552084233989396
1.0023541012565187,0.3658732131217113,0.13740497599932627,0.20800353236518512,0.09253593295714584,0.20376676821166007
1.002401183281649,0.3393357840705059,0.12947742007805674,0.19716291122807472,0.0846091523751933,0.1931490105554571
1.0024482653067794,0.30043566038503033,0.11719060515994588,0.1783931936762516,0.07352359020880599,0.1747311653448085
1.0024953473319098,0.25183659939415354,0.10309881736251882,0.15384153094853617,0.05981100083352764,0.1506998292521581
1.0025424293570402,0.1956066522565673,0.08489539047694017,0.12081929242955049,0.04556398786356835,0.11830622650523127
1.0025895113821706,0.13475970805500284,0.05926938147655722,0.07564140824241966,0.029025162071281127,0.07397463739248325
1.002636593407301,0.07582916802294695,0.031199508030716878,0.025728531183742454,0.014641052767516817,0.0248873552076621
1.0026836754324313,0.03145358980808763,0.020551071787335153,-0.0040036080406334615,0.008088065440221585,-0.0044427399686812795
1.0027307574575617,0.01779891286180085,0.029043657390868543,-0.006351274616742859,0.012944142678576074,-0.007054476233815433
1.002777839482692,0.04358985242398123,0.036121345057634376,0.006591376950054447,0.02719359329870268,0.005086958141231352
1.0028249215078224,0.1037077589167159,0.05037409187009402,0.04281328660270074,0.04591134989211728,0.040271077167047
1.0028720035329528,0.18101238562213362,0.07647026826870852,0.0979436666785688,0.06889472533037903,0.09427984206900032
1.0029190855580832,0.25636899888384335,0.10741591393780286,0.15380629462607742,0.08893273088136161,0.14943088431589058
1.0029661675832136,0.31832235074100634,0.13548281747713875,0.19704252226634572,0.09697980668893105,0.1925925299349495
1.003013249608344,0.36361141655314383,0.15050142628246163,0.228525784613192,0.09980330657655603,0.22418324306237375
1.0030603316334743,0.39341420767750745,0.1604315186950058,0.24979870354304085,0.10202447429047677,0.24553965875258033
1.0031074136586047,0.4102870696014962,0.1645167507988223,0.26258314989231946,0.10201554993301447,0.25841604607832097
1.003154495683735,0.41662904201390033,0.164687725182015,0.266777273312063,0.10020301990341203,0.26268537353263616
1.0032015777088654,0.41405085665469693,0.16157679598877261,0.26326150551395927,0.0960892682622087,0.2592512450755502
1.0032486597339958,0.4030953535584088,0.15493800248205877,0.251751202986526,0.08959306267820338,0.24785157222362872
1.0032957417591262,0.38301151602067063,0.14456796499603922,0.2324239377319079,0.08078935236831315,0.22870199388189325
1.0033428237842565,0.3514583105172215,0.1302768937770736,0.2047530276495091,0.06958259991330314,0.20132855370334105
1.003389905809387,0.3042863356687068,0.11190031218879386,0.16911475512504195,0.056232056639429706,0.16615632628340254
1.0034369878345173,0.2364892670841809,0.08963318229036514,0.12615890065588273,0.041131554693381873,0.12386337017903425
1.0034840698596477,0.14805992805189566,0.06436186574561506,0.07745804013496241,0.025798917391640416,0.07595936325149931
1.003531151884778,0.05937981673678241,0.044671991062505946,0.035632586371168055,0.015412817050129327,0.03473623321851935
1.0035782339099084,0.016571701488668728,0.038788171730927745,0.012038086514572617,0.015425469246685818,0.011172527965193331
1.0036253159350388,0.04141534161646615,0.05196319461251726,0.014399178728297872,0.029086662569589458,0.012782656135558531
1.0036723979601692,0.0978579156313711,0.07523681074494468,0.03595348541122598,0.04974989737462688,0.0332074510307811
1.0037194799852995,0.14599333246590304,0.1020884889581016,0.06503465797160808,0.07591688656408817,0.06095904744255945
1.00376656201043,0.17300879075255565,0.1257794524243965,0.0922030709843016,0.10032940953482888,0.08704558528477137
1.0038136440355603,0.18229222765708752,0.1429131797943544,0.11374971918924169,0.11915708128723472,0.10790206394693266
1.0038607260606907,0.18262972424027749,0.1545701303508764,0.12736778710133306,0.13413294270470372,0.12104343427578158
1.003907808085821,0.18292620727983336,0.16126523151242733,0.13485525602086357,0.14430082460462038,0.12823749306972648
1.0039548901109514,0.18798821740501145,0.1646779695954298,0.13913083302593265,0.14795345913545896,0.13243652399506203
1.0040019721360818,0.19658928748535154,0.16382407553231668,0.1397247738744464,0.14769147080797299,0.13304685256024582
1.0040490541612122,0.20361099360789395,0.162729476365448,0.1356935801867525,0.14263583818680728,0.12914496412420337
1.0040961361863425,0.20356945018764083,0.15836359187704027,0.1287855413388881,0.1340900853153828,0.12247700945080509
1.004143218211473,0.19261735903368254,0.14501301513958845,0.11776025800915435,0.12079090672939743,0.1118764492225285
1.0041903002366033,0.1692114287165738,0.12545604378720351,0.09836742477706704,0.10441137083532312,0.09305686570775604
1.0042373822617336,0.13469585530973552,0.1026208005557951,0.07519967777083232,0.08628965008692427,0.07063789991968976
1.004284464286864,0.094068350002802,0.08128250495045562,0.051842634052145065,0.06751351015922495,0.04817274842842463
1.0043315463119944,0.0558705414627791,0.0631804179282132,0.03082107495389939,0.04966684568892606,0.028079562727580807
1.0043786283371248,0.029785725493520713,0.05196098278286195,0.019809015244991575,0.03629645977880966,0.01779449613637583
1.0044257103622551,0.022326134922130727,0.04745474474054803,0.01684685304795892,0.028718240127939443,0.015247944545278636
1.0044727923873855,0.03362727707623793,0.04923008111115176,0.01768087969631584,0.027378046148528182,0.016154258350339228
1.004519874412516,0.057935866130881315,0.055843958262403084,0.0238553638180855,0.031002580922328764,0.022125231799070885
1.0045669564376463,0.08691312585069338,0.06732998379747221,0.038233159934289905,0.03978712463632076,0.03601893640888143
1.0046140384627766,0.11302745450084833,0.08131175573100796,0.05542672474865837,0.05265812840148921,0.05253066909733433
1.004661120487907,0.13143773576861661,0.09332461804154703,0.07126698378066398,0.06663412861440532,0.0676689817859077
1.0047082025130374,0.140315951549541,0.10225647397176871,0.0817840112464661,0.07903324269063922,0.07759438096348642
1.0047552845381678,0.14016084842095028,0.1057479427761384,0.0846685751900148,0.08857761237456122,0.0800288344971866
1.0048023665632981,0.13271042804166153,0.10351538672941606,0.08028160564993014,0.09268722007526109,0.07542934436061195
1.0048494485884285,0.1199532079956697,0.09684463884074179,0.06958311394397716,0.09421130669450677,0.06461498652010185
1.0048965306135589,0.10352759540252561,0.08685397011313145,0.05738407400153901,0.09031763948437187,0.05256412176741987
1.0049436126386893,0.08458770500586026,0.07520170579111347,0.04469505929439128,0.08283940341460973,0.04021933239564552
1.0049906946638196,0.06411017510052013,0.06315905509118702,0.03435472552873721,0.07494208227537183,0.03027035735044758
1.00503777668895,0.043500849939608656,0.051949887805762804,0.022887706523455283,0.06645382056111518,0.019241219103423718
1.0050848587140804,0.02497562650004661,0.04180909077018515,0.013888116903115118,0.05593524138308361,0.010806734916748358
1.0051319407392107,0.011013597455985432,0.035985465505905104,0.011624969459267675,0.046527211580085145,0.009057310707173043
1.0051790227643411,0.003334338693202587,0.030628545112188422,0.009001101837417943,0.0386194696215506,0.006867663895718454
1.0052261047894715,0.0027948227754708652,0.024921027893533326,0.005716764128480125,0.03137322443909491,0.003983740943589365
1.0052731868146019,0.010164673003053454,0.020107036911985954,0.005314070387151807,0.0225960892572035,0.004063695698583197
1.0053202688397322,0.026566180290056158,0.017987664590946792,0.008193549268036414,0.01515522026821137,0.007348103979288929
1.0053673508648626,0.05291846997433676,0.018871125470279682,0.011498759854167706,0.011450369654367977,0.01085208598863223
1.005414432889993,0.08828034555015178,0.02375176823385713,0.017065936640710815,0.009735932236023407,0.016505352666239877
1.0054615149151234,0.12763762777320273,0.02949572139196069,0.025647230237824777,0.008920006956275036,0.025119024623849674
1.0055085969402537,0.16155770115500132,0.03569010590033755,0.038076850744054896,0.011665182858167214,0.03738124627119855
1.0055556789653841,0.18078890709766565,0.04179420156029083,0.05135766337998839,0.018209573651984206,0.050290220682483816
1.0056027609905145,0.18307418566708303,0.04608036940387224,0.06056084021799014,0.026416161494007464,0.05904411634858993
1.0056498430156449,0.1741533504439713,0.04810428245993779,0.06655908741414072,0.031485843172095844,0.06476925481811038
1.0056969250407752,0.16242605985016223,0.048981116123547205,0.07063087442771013,0.035694735910826475,0.06861796241794436
1.0057440070659056,0.15418810481596457,0.04916123288381494,0.07107575192890922,0.038869222232798324,0.06889721486975595
1.005791089091036,0.1523552110015489,0.04754607698190562,0.0660360559428213,0.03997036435153705,0.06380161270153537
1.0058381711161664,0.15691036178882456,0.04546904619503311,0.06130313889977103,0.040420197185642645,0.059046518673767694
1.0058852531412967,0.16538784679386007,0.04704077257461467,0.06307528196508604,0.041437068194047175,0.06076499145663178
1.005932335166427,0.17322460684996496,0.04708721217207472,0.06323184659303546,0.042312060384473674,0.060875824801977466
1.0059794171915575,0.17475929729964576,0.04521806052920933,0.05880087400333982,0.041557695661118006,0.056485285369698664
1.0060264992166879,0.16548577922015562,0.04222376869765056,0.05204155960234529,0.03928841479344779,0.04984777044811082
1.0060735812418182,0.1445721481217929,0.037492944572849816,0.04234591607178599,0.03462280240148258,0.040405737245628175
1.0061206632669486,0.11538472372115638,0.03362708556195198,0.03266210113426135,0.0273163557188532,0.0311234118896499
1.006167745292079,0.08342022676517998,0.02933620716720182,0.0259645785337829,0.02004977217384636,0.02482803302371306
1.0062148273172093,0.053714935068683495,0.026532466856348587,0.01794830890199036,0.014563248522269864,0.01712193114622405
1.0062619093423397,0.029620632829972474,0.023092765270856432,0.006428025048282717,0.010315499436067832,0.005850995203036332
1.00630899136747,0.012907514843990737,0.019998929500471805,-0.004503164505502606,0.009139002344223044,-0.004999428146997034
1.0063560733926005,0.004292560353454192,0.01935163476419092,-0.010519166817943732,0.010854354142173558,-0.011101065695618114
1.0064031554177308,0.0038095921685766332,0.021693766160849438,-0.007972360122875525,0.01552602506194979,-0.008815609245091033
1.0064502374428612,0.010924293923755681,0.029444387286388637,0.0013341291502741227,0.026614310455584836,-0.00013245189960357038
1.0064973194679916,0.02453035587728399,0.038425984604890946,0.011333716656649779,0.038836398918707944,0.009186751951738325
1.006544401493122,0.042966387475684646,0.04709341340373285,0.020787738978896356,0.05137007721708992,0.017954786414723957
1.0065914835182523,0.06411092062196938,0.055401057205946624,0.03329944681240632,0.060072760374800464,0.03000249659828337
1.0066385655433827,0.08556714248621351,0.06386917230944315,0.049462130528264495,0.06523989089858932,0.04590718915032014
1.006685647568513,0.10493697207975199,0.07141581430913377,0.06485229624100503,0.06822117867035149,0.06116464369606526
1.0067327295936435,0.12014720761669652,0.07584536319429784,0.07640706666955516,0.06904001533009457,0.0726969499481401
1.0067798116187738,0.12974860817624662,0.07812656659833035,0.08294186479002422,0.06634767172179544,0.07937581135896907
1.0068268936439042,0.1331160769266914,0.07826159521120163,0.08436945777741765,0.06123753859293134,0.0810583394722073
1.0068739756690346,0.13051634907150206,0.07467259443993383,0.08386978816652868,0.053424064056234656,0.08094847991689665
1.006921057694165,0.12301693370584733,0.06697368305369854,0.08185258015702256,0.04602783630487808,0.07930469161777393
1.0069681397192953,0.11219272060745543,0.057203086583661425,0.07585112215539112,0.038469316405469856,0.07369193409666615
1.0070152217444257,0.09964098937742749,0.048162208189150846,0.06985230351433948,0.030487165128088353,0.06811280758554751
1.007062303769556,0.08648287672211809,0.03983672464072467,0.06302251331950957,0.024057359128351278,0.061629052747743863
1.0071093857946865,0.07315337862299943,0.03353484239793463,0.053521194673379444,0.018584708976233905,0.052430992685464084
1.0071564678198168,0.05967551136841471,0.02894371844978747,0.042771215350936226,0.013990766193622519,0.04194282017757395
1.0072035498449472,0.046352747241279996,0.022565823504344548,0.029687677967592516,0.009761397355828268,0.029107673499499633
1.0072506318700776,0.03458526276589038,0.018160919539024854,0.01916866027493343,0.008252391059383796,0.018686400353366866
1.007297713895208,0.02727830692374265,0.01601122339672896,0.01473006896934623,0.007605163976260781,0.014289808947364964
1.0073447959203383,0.0280866607277734,0.018048203081063405,0.01711698325886342,0.008215176168568645,0.016639751215788916
1.0073918779454687,0.03925806445151868,0.026650492033146466,0.028584290137595406,0.01282162600269449,0.027838603742140644
1.007438959970599,0.059562255279517966,0.038341117965642386,0.043832242766228824,0.01885399093404995,0.04273896592842
1.0074860419957294,0.08449757331606145,0.04938038708665055,0.058037587268334905,0.025167763787496893,0.05658970672852363
1.0075331240208598,0.10858230355013457,0.05803272862001973,0.06858033205585247,0.03257652047781887,0.06673184205681917
1.0075802060459902,0.12742598805780986,0.0635224333912953,0.07621925524513734,0.037528366255491004,0.07410871258421937
1.0076272880711206,0.13840784538629322,0.06477491588899648,0.07904744927672683,0.040429371267231694,0.07678630166103169
1.007674370096251,0.14057521646913557,0.06255512411868254,0.0769603579802706,0.042773870675294846,0.07457877922885235
1.0077214521213813,0.1345761316442056,0.0579689547091984,0.07084930100861353,0.04224469199355407,0.06849560622518573
1.0077685341465117,0.12269802495893224,0.05072346990745994,0.062425783036096825,0.03876012102913196,0.06025581711719559
