freq,gls,usurper,pdc_unbiased,shape_periodogram,shift_periodogram
1.0,0.02176245538732735,0.028033841765028423,-0.007335655112181927,0.006136785178693309,-0.00757305836607198
1.0000470820251304,0.05134779247241603,0.04174337737669263,0.016081221596065367,0.012071487950686717,0.015591856600741518
1.0000941640502607,0.09689124580742478,0.055302660575595644,0.05094334186944231,0.02581107377815305,0.04990175797455739
1.0001412460753911,0.14848755125694818,0.0697821271867565,0.08456655871201842,0.04186301444508901,0.0829323723832483
1.0001883281005215,0.19664060203551523,0.08333543671991661,0.10917973127593883,0.059461100819050206,0.1069683991272224
1.0002354101256519,0.23592916525893703,0.09270067670564697,0.12678225514793529,0.0729670370059677,0.12418838893881647
1.0002824921507822,0.26363730657080775,0.09662229211996279,0.13936052532630389,0.08103488867241758,0.1365757498332228
1.0003295741759126,0.2780607972143743,0.09915069598550767,0.14663287491158739,0.08616154108457062,0.14373846097347376
1.000376656201043,0.27778293516045677,0.10030693451418207,0.14742341655727248,0.0884603239990563,0.14447243001552149
1.0004237382261734,0.2619162710265795,0.09720664360905272,0.139633635428265,0.08883690042247953,0.13663798828181598
1.0004708202513037,0.23107843684954268,0.09004745285048081,0.12167319492364326,0.08604528721370142,0.11867872055728997
1.0005179022764341,0.1884924826566669,0.08048542250333111,0.09811663264576473,0.08118781449735685,0.09518126147605921
1.0005649843015645,0.1401213853463462,0.07293893783204093,0.07552593926328457,0.07602681094196113,0.07269009000262278
1.0006120663266949,0.09311329616242185,0.06763952209502894,0.056936636782797936,0.06970186089376779,0.05427608151010283
1.0006591483518252,0.05338098213176131,0.06567770676487666,0.04656239048066332,0.06095805747487989,0.04420129137508192
1.0007062303769556,0.024158292773911582,0.06289155100007057,0.0379052596807291,0.04982264695765344,0.03595105427969299
1.000753312402086,0.006389706849983347,0.05872122866074043,0.024925530867037873,0.03647516482969739,0.02347834284956018
1.0008003944272164,4.4957735270936574e-05,0.056767874428481996,0.013623927240606612,0.024583433515987838,0.01264373419555697
1.0008474764523467,0.004476680458159687,0.05404869817106909,0.005279248516488982,0.02075170401490164,0.004454264403885404
1.000894558477477,0.016631009383087918,0.05677451184860103,0.00604487589630294,0.023542838206873116,0.005109224988234399
1.0009416405026075,0.030279800796216314,0.06633181934417376,0.01614856324889533,0.032270198799713386,0.014866100643756605
1.0009887225277379,0.04019506929021177,0.08034697112488907,0.031662352407458065,0.047395095703248576,0.02979665600645015
1.0010358045528682,0.045271217739530065,0.09186698721791463,0.049643587368788454,0.06546192700111725,0.04712216861400937
1.0010828865779986,0.04665854735345898,0.097509600489469,0.06394396252727896,0.08280167748278904,0.060842017307852936
1.001129968603129,0.04557434040645729,0.10006607515439277,0.06951556918541625,0.09567249589699318,0.06599974641952917
1.0011770506282593,0.04281463251624272,0.09657668567571154,0.06676401531502141,0.10182165323307894,0.06303103257131155
1.0012241326533897,0.03911406922799136,0.08797724660742853,0.05756222886158259,0.10248335170494051,0.05375955787177
1.00127121467852,0.035734840091298535,0.07702690784659134,0.04469056838221148,0.09962265992085528,0.040924250924953755
1.0013182967036505,0.034632288517627896,0.06792547789208624,0.03354469161607427,0.09714249471673658,0.029817932055239155
1.0013653787287808,0.03686446430802818,0.06713934650904281,0.03235087082016887,0.09591853074894606,0.028664189182925758
1.0014124607539112,0.040499198873267514,0.07316082890420068,0.04235422606047071,0.09715793190125914,0.03866538647553089
1.0014595427790416,0.04245011553894062,0.08007435173838964,0.05148956578485458,0.09888531929402745,0.047781161063800294
1.001506624804172,0.04142424671447975,0.08349668392980322,0.057489670337512934,0.09605537648026806,0.05390677939113699
1.0015537068293023,0.03772147907862947,0.08305451338591119,0.05838903434484734,0.08813432592820113,0.05508346805486538
1.0016007888544327,0.032149333674356434,0.07914437084801071,0.05286952532393206,0.07469035840201613,0.0500212674878557
1.001647870879563,0.025799799790141527,0.07162242924368986,0.040386054375886556,0.05626194159077301,0.03819183029290989
1.0016949529046935,0.020580986012262138,0.05958094477778072,0.02276083148008517,0.036697530963966704,0.021305051240606755
1.0017420349298238,0.01993155776046648,0.05099973661378149,0.008396000375120035,0.021757451455318,0.007529616680515387
1.0017891169549542,0.027489951613850306,0.04964047944725102,0.00883020356959996,0.01911130512284622,0.008067964981478756
1.0018361989800846,0.042074300128446054,0.05162118141103679,0.022145335055818467,0.02571873411923941,0.021117125906411433
1.001883281005215,0.05845891480384451,0.05942964624598967,0.04104344236602053,0.03920299499800517,0.03949282046111259
1.0019303630303453,0.07582159493280267,0.07054363331382629,0.05832937685591873,0.054453439918665664,0.05622098119818956
1.0019774450554757,0.09824195100672209,0.07875468938234204,0.07041397317164165,0.07017067260551828,0.06776612538517096
1.002024527080606,0.1303669711588208,0.0782174552134623,0.07896421651578898,0.08151457653742096,0.07595463968606748
1.0020716091057364,0.17464242099810953,0.07349140490221195,0.08832693698111686,0.08879083677059114,0.08511496793045062
1.0021186911308668,0.22917237164395338,0.07667912085666287,0.11355266104308831,0.09444140969075102,0.1102812103407769
1.0021657731559972,0.2864808872447173,0.08485779014645982,0.14880372324738836,0.10014666036891957,0.14556734241142794
1.0022128551811276,0.335488571803669,0.09284372274305283,0.17945522269565434,0.10506638912301042,0.17629844517386986
1.002259937206258,0.3667004160945303,0.09781191626151957,0.20044309409803335,0.10744367215893509,0.19738401557518245
1.0023070192313883,0.37630521047742305,0.099090788319068,0.20989430295355302,0.10647883300586619,0.20691644954637872
1.0023541012565187,0.3658732131217113,0.09663758263730478,0.20800353236518512,0.10232466441342787,0.20508163908933494
1.002401183281649,0.3393357840705059,0.09212665057966278,0.19716291122807472,0.09499503634014,0.19431096110272839
1.0024482653067794,0.30043566038503033,0.08581009834040033,0.1783931936762516,0.08323086296750239,0.17570555957014114
1.0024953473319098,0.25183659939415354,0.07632946669440081,0.15384153094853617,0.06610535813353083,0.15152031135188634
1.0025424293570402,0.1956066522565673,0.061583995261999855,0.12081929242955049,0.04508642753196503,0.11909806218019839
1.0025895113821706,0.13475970805500284,0.04277006874171527,0.07564140824241966,0.021288087690733593,0.07476331517063803
1.002636593407301,0.07582916802294695,0.025936464505854538,0.025728531183742454,0.0023808958690715357,0.025614235172820684
1.0026836754324313,0.03145358980808763,0.021910722467003218,-0.0040036080406334615,-0.002390658845694821,-0.0039058031960754968
1.0027307574575617,0.01779891286180085,0.031482841696404334,-0.006351274616742859,0.011657362421084633,-0.0068083920612476805
1.002777839482692,0.04358985242398123,0.038426979362048044,0.006591376950054447,0.03723182429746584,0.005115334619833542
1.0028249215078224,0.1037077589167159,0.050725095313742946,0.04281328660270074,0.06082303995253598,0.04045199952765202
1.0028720035329528,0.18101238562213362,0.07066766324495709,0.0979436666785688,0.07827882488796178,0.0950997323154677
1.0029190855580832,0.25636899888384335,0.09235790945095411,0.15380629462607742,0.08890191959901543,0.15087287081853507
1.0029661675832136,0.31832235074100634,0.11042148028782758,0.19704252226634572,0.09111226484248099,0.19426757444915704
1.003013249608344,0.36361141655314383,0.11946384236197394,0.228525784613192,0.09185072816309674,0.2259015120485833
1.0030603316334743,0.39341420767750745,0.12413271046452856,0.24979870354304085,0.09133716358473994,0.24729702425611877
1.0031074136586047,0.4102870696014962,0.1250273685684425,0.26258314989231946,0.08912720426739364,0.2601813192744634
1.003154495683735,0.41662904201390033,0.12374938368417047,0.266777273312063,0.08566438444643873,0.26444593208203787
1.0032015777088654,0.41405085665469693,0.12029627148868999,0.26326150551395927,0.0806657146049855,0.26098984574671913
1.0032486597339958,0.4030953535584088,0.1146632115434082,0.251751202986526,0.07390652312039377,0.24954999439404085
1.0032957417591262,0.38301151602067063,0.10666369971727123,0.2324239377319079,0.06536288505415465,0.23033388041485056
1.0033428237842565,0.3514583105172215,0.09593428713835854,0.2047530276495091,0.054806482517334304,0.20285451989920325
1.003389905809387,0.3042863356687068,0.08214591919408343,0.16911475512504195,0.042590454355010236,0.16751795644301778
1.0034369878345173,0.2364892670841809,0.06590732588694155,0.12615890065588273,0.029052249405658703,0.12498995368285361
1.0034840698596477,0.14805992805189566,0.0483518769093752,0.07745804013496241,0.015385039194527307,0.07680280382043986
1.003531151884778,0.05937981673678241,0.0355081038074749,0.035632586371168055,0.00514888893161597,0.03540161006878211
1.0035782339099084,0.016571701488668728,0.03258930971562661,0.012038086514572617,0.0020628560042616284,0.011946991507455306
1.0036253159350388,0.04141534161646615,0.04280657563294605,0.014399178728297872,0.009927579620536219,0.013995530570184133
1.0036723979601692,0.0978579156313711,0.06059958809097951,0.03595348541122598,0.025784312644221718,0.034917693949938614
1.0037194799852995,0.14599333246590304,0.08194635877023962,0.06503465797160808,0.04528930232560107,0.06326595626915008
1.00376656201043,0.17300879075255565,0.09792781193489365,0.0922030709843016,0.06438857913234243,0.08979772981575511
1.0038136440355603,0.18229222765708752,0.10923043533727622,0.11374971918924169,0.0767416328244844,0.11100294444908734
1.0038607260606907,0.18262972424027749,0.11486526112927115,0.12736778710133306,0.08657334541013917,0.12438153285876857
1.003907808085821,0.18292620727983336,0.11603009325898468,0.13485525602086357,0.09595866523325519,0.1316484293619785
1.0039548901109514,0.18798821740501145,0.11635798646386528,0.13913083302593265,0.10128256904505728,0.1358108153181514
1.0040019721360818,0.19658928748535154,0.11479043278484476,0.1397247738744464,0.10267274553507992,0.13637356113039267
1.0040490541612122,0.20361099360789395,0.11183943739772757,0.1356935801867525,0.10111999565748807,0.13235787415388717
1.0040961361863425,0.20356945018764083,0.105261588748077,0.1287855413388881,0.09812644769700027,0.1254895605169645
1.004143218211473,0.19261735903368254,0.0945012989049146,0.11776025800915435,0.0927491929335722,0.11455709024207017
1.0041903002366033,0.1692114287165738,0.08083307893316752,0.09836742477706704,0.0835706210131108,0.09535818641571894
1.0042373822617336,0.13469585530973552,0.06533278429402778,0.07519967777083232,0.07092170550762537,0.0725368838535494
1.004284464286864,0.094068350002802,0.05044250864673904,0.051842634052145065,0.05556573073322222,0.04968655700105715
1.0043315463119944,0.0558705414627791,0.03755197513010569,0.03082107495389939,0.03832706658023811,0.02930261543319274
1.0043786283371248,0.029785725493520713,0.029575454437972076,0.019809015244991575,0.022153524106560338,0.018921268639260663
1.0044257103622551,0.022326134922130727,0.026698287577069314,0.01684685304795892,0.009827313910432855,0.016445404116078786
1.0044727923873855,0.03362727707623793,0.028293062506338094,0.01768087969631584,0.0039652083344662295,0.01751018930758957
1.004519874412516,0.057935866130881315,0.033642763762582295,0.0238553638180855,0.004352054528461495,0.023664674825938013
1.0045669564376463,0.08691312585069338,0.042747095328197225,0.038233159934289905,0.011867235187467398,0.037736900150802055
1.0046140384627766,0.11302745450084833,0.054369884390288496,0.05542672474865837,0.02617828644023412,0.054369891343970134
1.004661120487907,0.13143773576861661,0.06521541183870858,0.07126698378066398,0.04269783491513135,0.06959610142808559
1.0047082025130374,0.140315951549541,0.07412013550514877,0.0817840112464661,0.059387677942418934,0.07953069014498601
1.0047552845381678,0.14016084842095028,0.07769358427644071,0.0846685751900148,0.07334951240669511,0.08194711511995219
1.0048023665632981,0.13271042804166153,0.07620859457599949,0.08028160564993014,0.08280537848694865,0.0772336924139719
1.0048494485884285,0.1199532079956697,0.0719605030229885,0.06958311394397716,0.09028728003944361,0.06624712396614135
1.0048965306135589,0.10352759540252561,0.06724359425106166,0.05738407400153901,0.09380605223873054,0.0538782403444227
1.0049436126386893,0.08458770500586026,0.05998261218118373,0.04469505929439128,0.09330742760493888,0.04115420895483329
1.0049906946638196,0.06411017510052013,0.05393228713455094,0.03435472552873721,0.08910227593081393,0.030927598575366103
1.00503777668895,0.043500849939608656,0.047049797571669535,0.022887706523455283,0.08164394393320415,0.019704361519724725
1.0050848587140804,0.02497562650004661,0.03964739563521595,0.013888116903115118,0.07053863563851821,0.011112009234166366
1.0051319407392107,0.011013597455985432,0.03440187477499356,0.011624969459267675,0.05757074857162309,0.009351758914956968
1.0051790227643411,0.003334338693202587,0.02946777388767321,0.009001101837417943,0.042925631149993385,0.007300953449068188
1.0052261047894715,0.0027948227754708652,0.021218474423946136,0.005716764128480125,0.027907192397170082,0.004608908518680745
1.0052731868146019,0.010164673003053454,0.013478864410757074,0.005314070387151807,0.014726884454292526,0.004727206553162833
1.0053202688397322,0.026566180290056158,0.00867625018290775,0.008193549268036414,0.003099657703301457,0.008064416748432491
1.0053673508648626,0.05291846997433676,0.007481771287949672,0.011498759854167706,-0.0028426652962162636,0.011602342773942677
1.005414432889993,0.08828034555015178,0.009820977576938304,0.017065936640710815,-0.004314338090723406,0.017223498129300456
1.0054615149151234,0.12763762777320273,0.01314949405260396,0.025647230237824777,-0.002111024250025442,0.025710700634727485
1.0055085969402537,0.16155770115500132,0.01770229388965552,0.038076850744054896,0.006193644167580773,0.037802988155521966
1.0055556789653841,0.18078890709766565,0.023468521728715292,0.05135766337998839,0.018836282233279496,0.050583358423866104
1.0056027609905145,0.18307418566708303,0.027706334382519678,0.06056084021799014,0.03293358618578092,0.059248265220105914
1.0056498430156449,0.1741533504439713,0.03132848541508582,0.06655908741414072,0.04454244549298771,0.0648185339382947
1.0056969250407752,0.16242605985016223,0.03373797590637264,0.07063087442771013,0.054399802987892674,0.06853794885516805
1.0057440070659056,0.15418810481596457,0.03361387880642208,0.07107575192890922,0.05999503883945449,0.06878497063575657
1.005791089091036,0.1523552110015489,0.031391862158895445,0.0660360559428213,0.061371226283757935,0.06368883791622533
1.0058381711161664,0.15691036178882456,0.03048011343499856,0.06130313889977103,0.060923682951785255,0.05896465656015306
1.0058852531412967,0.16538784679386007,0.03183468278204809,0.06307528196508604,0.05936700802821717,0.06079519692328798
1.005932335166427,0.17322460684996496,0.031034308504458118,0.06323184659303546,0.05531411426974439,0.061097680766012186
1.0059794171915575,0.17475929729964576,0.028295515187272302,0.05880087400333982,0.04868814072781059,0.05690362605330153
1.0060264992166879,0.16548577922015562,0.025049355032831722,0.05204155960234529,0.04120950697875459,0.05041795099202275
1.0060735812418182,0.1445721481217929,0.021536856544522365,0.04234591607178599,0.032116024251686054,0.041065322813127844
1.0061206632669486,0.11538472372115638,0.018567488538717827,0.03266210113426135,0.0222876844604299,0.03176309837228205
1.006167745292079,0.08342022676517998,0.016465034777539907,0.0259645785337829,0.01427521558806757,0.025382023601282583
1.0062148273172093,0.053714935068683495,0.016826891383536543,0.01794830890199036,0.009324606891029447,0.017565887794261884
1.0062619093423397,0.029620632829972474,0.017560329370240216,0.006428025048282717,0.00693923760998281,0.006148331675361215
1.00630899136747,0.012907514843990737,0.01852158456717062,-0.004503164505502606,0.007416794312571353,-0.00479348188991627
1.0063560733926005,0.004292560353454192,0.020192704685504756,-0.010519166817943732,0.010139140184621814,-0.010912948110503645
1.0064031554177308,0.0038095921685766332,0.023461538729901175,-0.007972360122875525,0.012869333981421227,-0.008476421382732729
1.0064502374428612,0.010924293923755681,0.031271368930072846,0.0013341291502741227,0.02092138816434584,0.0005046430706081777
1.0064973194679916,0.02453035587728399,0.038147605400434485,0.011333716656649779,0.031009022727529926,0.010101843153796619
1.006544401493122,0.042966387475684646,0.04369748548075582,0.020787738978896356,0.04118172810523436,0.0191577361587576
1.0065914835182523,0.06411092062196938,0.04689301609554965,0.03329944681240632,0.04762399882344929,0.03142587604861016
1.0066385655433827,0.08556714248621351,0.051227679163258336,0.049462130528264495,0.051444125382385394,0.04745593162393699
1.006685647568513,0.10493697207975199,0.054059306308715166,0.06485229624100503,0.05268526105354745,0.0628147443733422
1.0067327295936435,0.12014720761669652,0.05483755050398904,0.07640706666955516,0.05185700961032128,0.07441079969037785
1.0067798116187738,0.12974860817624662,0.053113389200469055,0.08294186479002422,0.04889550275313431,0.08105660780031174
1.0068268936439042,0.1331160769266914,0.052182289962878756,0.08436945777741765,0.044024321210571066,0.08265801277871644
1.0068739756690346,0.13051634907150206,0.047967087312272956,0.08386978816652868,0.0387616173656851,0.08234669357643028
1.006921057694165,0.12301693370584733,0.041130119655074605,0.08185258015702256,0.032972317736007985,0.08053937460353189
1.0069681397192953,0.11219272060745543,0.03272929465169755,0.07585112215539112,0.025921855663814053,0.07479908246741004
1.0070152217444257,0.09964098937742749,0.025012506484114336,0.06985230351433948,0.01904797353550857,0.06906132978627635
1.007062303769556,0.08648287672211809,0.019087852422205752,0.06302251331950957,0.013567661558139483,0.06244483820111688
1.0071093857946865,0.07315337862299943,0.0159153840774479,0.053521194673379444,0.009202212442106523,0.05311868569457689
1.0071564678198168,0.05967551136841471,0.013831862510721885,0.042771215350936226,0.005366567510646717,0.04252638017959108
1.0072035498449472,0.046352747241279996,0.011380655707505603,0.029687677967592516,0.0029685705087250827,0.029547128352119603
1.0072506318700776,0.03458526276589038,0.010634600355839761,0.01916866027493343,0.0026788669646496503,0.0190476628501034
1.007297713895208,0.02727830692374265,0.011528909853899769,0.01473006896934623,0.0028935232791936515,0.014604021291516209
1.0073447959203383,0.0280866607277734,0.01531362409877292,0.01711698325886342,0.005093518299826491,0.016902146504834938
1.0073918779454687,0.03925806445151868,0.02449768969413782,0.028584290137595406,0.011499754787763404,0.0281088638770664
1.007438959970599,0.059562255279517966,0.03598966814222136,0.043832242766228824,0.01993702571768197,0.043019119715415874
1.0074860419957294,0.08449757331606145,0.04658464998665437,0.058037587268334905,0.029498114239227116,0.05685442603212335
1.0075331240208598,0.10858230355013457,0.054940943795614414,0.06858033205585247,0.03918619914619377,0.06703682266411196
1.0075802060459902,0.12742598805780986,0.06080189334160971,0.07621925524513734,0.04593233101525239,0.07443430639874075
1.0076272880711206,0.13840784538629322,0.06266946230319133,0.07904744927672683,0.04976622720786695,0.07712789440051064
1.007674370096251,0.14057521646913557,0.05992118522104212,0.0769603579802706,0.051140564650558405,0.07499006794323175
1.0077214521213813,0.1345761316442056,0.05528533508017928,0.07084930100861353,0.04937733414790544,0.06893647826197194
1.0077685341465117,0.12269802495893224,0.04792333799637228,0.062425783036096825,0.044814418937266266,0.06067300268679305
