freq,gls,usurper,pdc_unbiased,shape_periodogram,shift_periodogram
1.0,0.02176245538732735,0.03306563587846985,-0.007335655112181927,0.008496959717294117,-0.007900837815887648
1.0000470820251304,0.05134779247241603,0.05552109205665083,0.016081221596065367,0.024245895648913288,0.014386988952798704
1.0000941640502607,0.09689124580742478,0.07765196850472438,0.05094334186944231,0.04781879355571104,0.04761376607765617
1.0001412460753911,0.14848755125694818,0.09998614522400943,0.08456655871201842,0.0702717810103931,0.07979892513608872
1.0001883281005215,0.19664060203551523,0.11824181463049066,0.10917973127593883,0.09028904257675881,0.10326092990976354
1.0002354101256519,0.23592916525893703,0.12965747521135315,0.12678225514793529,0.10488001166248695,0.12011844993618884
1.0002824921507822,0.26363730657080775,0.13522833376948878,0.13936052532630389,0.11343695616857755,0.13231865249877042
1.0003295741759126,0.2780607972143743,0.13851081644657712,0.14663287491158739,0.11875266229416231,0.1393724726785643
1.000376656201043,0.27778293516045677,0.13997049557337277,0.14742341655727248,0.12095976438771221,0.14005832138783014
1.0004237382261734,0.2619162710265795,0.13681771928376463,0.139633635428265,0.12043101074757716,0.13223167439526223
1.0004708202513037,0.23107843684954268,0.1282258993278327,0.12167319492364326,0.11615817542769624,0.11436108111793167
1.0005179022764341,0.1884924826566669,0.11660754763604318,0.09811663264576473,0.10961606334434269,0.09102145551551312
1.0005649843015645,0.1401213853463462,0.10843828333713926,0.07552593926328457,0.10449361759575465,0.06861909896368637
1.0006120663266949,0.09311329616242185,0.10472051168340671,0.056936636782797936,0.10067385483578158,0.050189233106542865
1.0006591483518252,0.05338098213176131,0.10679998085651415,0.04656239048066332,0.09706057670439087,0.040010100797671116
1.0007062303769556,0.024158292773911582,0.10902805399362707,0.0379052596807291,0.09217426957741888,0.031646802925114466
1.000753312402086,0.006389706849983347,0.10755121462405388,0.024925530867037873,0.08438978060622038,0.019157380720736094
1.0008003944272164,4.4957735270936574e-05,0.1075026214903024,0.013623927240606612,0.07641535020086385,0.008381633681653232
1.0008474764523467,0.004476680458159687,0.10565702395407864,0.005279248516488982,0.07467837789090016,0.00015059615498898068
1.000894558477477,0.016631009383087918,0.10998519582671648,0.00604487589630294,0.07961587999429096,0.0005775709617323806
1.0009416405026075,0.030279800796216314,0.12335604869279644,0.01614856324889533,0.09132385281209641,0.009896348040591574
1.0009887225277379,0.04019506929021177,0.14285297258077906,0.031662352407458065,0.10960925782006647,0.024232622517710658
1.0010358045528682,0.045271217739530065,0.16130628878877007,0.049643587368788454,0.13019449743946127,0.04098218108011858
1.0010828865779986,0.04665854735345898,0.17067767472002776,0.06394396252727896,0.14908471673687773,0.05423674444539704
1.001129968603129,0.04557434040645729,0.17333485509402421,0.06951556918541625,0.16176241796945862,0.0591132522824404
1.0011770506282593,0.04281463251624272,0.16672349439544534,0.06676401531502141,0.16635652053657943,0.05605182457041602
1.0012241326533897,0.03911406922799136,0.1540936876805168,0.05756222886158259,0.16467135135610536,0.04682808888096893
1.00127121467852,0.035734840091298535,0.13901364596497193,0.04469056838221148,0.15896031539577385,0.034153223716369564
1.0013182967036505,0.034632288517627896,0.12728778090013285,0.03354469161607427,0.15477792137674093,0.023152655659127233
1.0013653787287808,0.03686446430802818,0.12880639347878575,0.03235087082016887,0.1551674127545766,0.021920430103528878
1.0014124607539112,0.040499198873267514,0.14020457036804929,0.04235422606047071,0.16036755048322326,0.03169927598213473
1.0014595427790416,0.04245011553894062,0.15274526200329794,0.05148956578485458,0.16639147553005024,0.04056872156023759
1.001506624804172,0.04142424671447975,0.1606486622695079,0.057489670337512934,0.16727292477782266,0.04659508582169209
1.0015537068293023,0.03772147907862947,0.16108430350621009,0.05838903434484734,0.16164284418646999,0.04785120406773195
1.0016007888544327,0.032149333674356434,0.15541315237323938,0.05286952532393206,0.14787525833753898,0.04312155005561352
1.001647870879563,0.025799799790141527,0.14327928353488656,0.040386054375886556,0.1270213493420018,0.031862954163341735
1.0016949529046935,0.020580986012262138,0.12511260467781327,0.02276083148008517,0.1029192909704126,0.01574316335521929
1.0017420349298238,0.01993155776046648,0.11001339738588366,0.008396000375120035,0.08348697444320644,0.0026655825182623012
1.0017891169549542,0.027489951613850306,0.10453534046645821,0.00883020356959996,0.07684273323006555,0.0035552503330620474
1.0018361989800846,0.042074300128446054,0.10507412789889178,0.022145335055818467,0.08141385954323027,0.016573224695860495
1.001883281005215,0.05845891480384451,0.11241416840471856,0.04104344236602053,0.09333723731998589,0.03471703769021231
1.0019303630303453,0.07582159493280267,0.12320336358542097,0.05832937685591873,0.10551682482525751,0.05128094039536625
1.0019774450554757,0.09824195100672209,0.12996913540991584,0.07041397317164165,0.11418603995702338,0.06288702394619144
1.002024527080606,0.1303669711588208,0.12494019115418799,0.07896421651578898,0.11619737146847736,0.07136613408323882
1.0020716091057364,0.17464242099810953,0.11401516182294823,0.08832693698111686,0.11428215616162894,0.08090058096142759
1.0021186911308668,0.22917237164395338,0.11521384208466212,0.11355266104308831,0.11508148371955694,0.10624342028216072
1.0021657731559972,0.2864808872447173,0.12541087340557927,0.14880372324738836,0.1198713736737985,0.14150453337080582
1.0022128551811276,0.335488571803669,0.13610026225574479,0.17945522269565434,0.12504963350705833,0.17218139068471047
1.002259937206258,0.3667004160945303,0.14266859725277703,0.20044309409803335,0.12719325320155994,0.1932847329569229
1.0023070192313883,0.37630521047742305,0.14391809730817112,0.20989430295355302,0.12517481529570365,0.20291419454182397
1.0023541012565187,0.3658732131217113,0.13977402726586705,0.20800353236518512,0.11921529215959925,0.2012483741580513
1.002401183281649,0.3393357840705059,0.131119441119409,0.19716291122807472,0.10944144084353424,0.19073917203927288
1.0024482653067794,0.30043566038503033,0.11926793020752637,0.1783931936762516,0.09571512452064963,0.17249620254936232
1.0024953473319098,0.25183659939415354,0.10425227299676253,0.15384153094853617,0.07782887167312963,0.14877841080538204
1.0025424293570402,0.1956066522565673,0.08459943756387074,0.12081929242955049,0.05767986809250626,0.11686245374283524
1.0025895113821706,0.13475970805500284,0.0584056280159962,0.07564140824241966,0.03503287988491968,0.07312879884357538
1.002636593407301,0.07582916802294695,0.03206955944478579,0.025728531183742454,0.01590157104959535,0.024582717334034502
1.0026836754324313,0.03145358980808763,0.023106389064949762,-0.0040036080406334615,0.008164092931547452,-0.0045537152140941945
1.0027307574575617,0.01779891286180085,0.032660243879143847,-0.006351274616742859,0.016878521285895485,-0.007493799655691809
1.002777839482692,0.04358985242398123,0.03937815571619005,0.006591376950054447,0.03595094894138732,0.004115403459432133
1.0028249215078224,0.1037077589167159,0.05248518352666372,0.04281328660270074,0.05719565747295171,0.03886728009875738
1.0028720035329528,0.18101238562213362,0.07742068069607345,0.0979436666785688,0.07963054947584576,0.09262502358955471
1.0029190855580832,0.25636899888384335,0.10737878021301953,0.15380629462607742,0.0978284227290327,0.14766906431360874
1.0029661675832136,0.31832235074100634,0.13443812964360585,0.19704252226634572,0.10504312425602341,0.19081689669810808
1.003013249608344,0.36361141655314383,0.14890970213332133,0.228525784613192,0.10921201144436679,0.22235748755130294
1.0030603316334743,0.39341420767750745,0.15782983534233191,0.24979870354304085,0.11176755739515769,0.2437105669698032
1.0031074136586047,0.4102870696014962,0.16162052085225612,0.26258314989231946,0.11167569457045891,0.25661159261981975
1.003154495683735,0.41662904201390033,0.16219562101849372,0.266777273312063,0.10985858343313783,0.2609065401632249
1.0032015777088654,0.41405085665469693,0.15969809875523103,0.26326150551395927,0.10589886378998452,0.2575024352520877
1.0032486597339958,0.4030953535584088,0.1541018688440194,0.251751202986526,0.09962713230231025,0.24614219035466242
1.0032957417591262,0.38301151602067063,0.1452837819780996,0.2324239377319079,0.09109927878690145,0.22704565427857756
1.0033428237842565,0.3514583105172215,0.13276385235071886,0.2047530276495091,0.0800732950424112,0.19975294793827408
1.003389905809387,0.3042863356687068,0.11627876260665009,0.16911475512504195,0.06688214924523304,0.16469420492756556
1.0034369878345173,0.2364892670841809,0.09646034841287901,0.12615890065588273,0.051968421120260434,0.12255150174774924
1.0034840698596477,0.14805992805189566,0.0744975308351186,0.07745804013496241,0.03698379443943611,0.07481591383580245
1.003531151884778,0.05937981673678241,0.05867801682572898,0.035632586371168055,0.027249644419807675,0.0336977445244777
1.0035782339099084,0.016571701488668728,0.056796613059847546,0.012038086514572617,0.028608580390946332,0.010054099309032609
1.0036253159350388,0.04141534161646615,0.0736590249636229,0.014399178728297872,0.045167736043983615,0.011282868379588544
1.0036723979601692,0.0978579156313711,0.10068360081113993,0.03595348541122598,0.07082926292063288,0.031102286826802404
1.0037194799852995,0.14599333246590304,0.1310912266460294,0.06503465797160808,0.10084089576391563,0.05830850739167999
1.00376656201043,0.17300879075255565,0.1556015479920891,0.0922030709843016,0.1285911107346521,0.08397123011963409
1.0038136440355603,0.18229222765708752,0.17413564225414105,0.11374971918924169,0.14857112286480187,0.10463426539755906
1.0038607260606907,0.18262972424027749,0.18526742101642135,0.12736778710133306,0.1644360267151043,0.11763520877996517
1.003907808085821,0.18292620727983336,0.18954252412450767,0.13485525602086357,0.1767325079723815,0.12466705387497543
1.0039548901109514,0.18798821740501145,0.1910580040615466,0.13913083302593265,0.18210268951774214,0.12878001247708185
1.0040019721360818,0.19658928748535154,0.18918726495684374,0.1397247738744464,0.18181663954426378,0.1293977809850561
1.0040490541612122,0.20361099360789395,0.18597356884812422,0.1356935801867525,0.1765905121195701,0.1255266804303902
1.0040961361863425,0.20356945018764083,0.17810694610392808,0.1287855413388881,0.16816687834639638,0.11889548997404585
1.004143218211473,0.19261735903368254,0.16302412209418676,0.11776025800915435,0.15531360480031078,0.1083460192406265
1.0041903002366033,0.1692114287165738,0.14260370370157432,0.09836742477706704,0.13810101947937667,0.08965228038510477
1.0042373822617336,0.13469585530973552,0.11921819278880119,0.07519967777083232,0.11787665728847949,0.06747679349164046
1.004284464286864,0.094068350002802,0.09750401205741978,0.051842634052145065,0.09590745004145157,0.04538176282586072
1.0043315463119944,0.0558705414627791,0.07909238089170924,0.03082107495389939,0.07406195167201954,0.025750957486318875
1.0043786283371248,0.029785725493520713,0.06788409107864254,0.019809015244991575,0.056345878257374866,0.01592897818058031
1.0044257103622551,0.022326134922130727,0.06384444811174363,0.01684685304795892,0.04461159705724877,0.013765395730090826
1.0044727923873855,0.03362727707623793,0.06576199075903175,0.01768087969631584,0.04063574556302457,0.014868484939917014
1.004519874412516,0.057935866130881315,0.07265095756976873,0.0238553638180855,0.04362993979983313,0.020832003450651098
1.0045669564376463,0.08691312585069338,0.08483029632719835,0.038233159934289905,0.05402200153093204,0.03449965136437126
1.0046140384627766,0.11302745450084833,0.10004606115400419,0.05542672474865837,0.07051060977124933,0.0506116132318606
1.004661120487907,0.13143773576861661,0.11359296586802752,0.07126698378066398,0.08812324415721078,0.0653575813673432
1.0047082025130374,0.140315951549541,0.12355365395457737,0.0817840112464661,0.10400390723254989,0.07493626507040617
1.0047552845381678,0.14016084842095028,0.12728783010896486,0.0846685751900148,0.11587294241441458,0.07712539361990675
1.0048023665632981,0.13271042804166153,0.12445686238039298,0.08028160564993014,0.12169311800051066,0.07236327294882473
1.0048494485884285,0.1199532079956697,0.11744970444014485,0.06958311394397716,0.12448430334479109,0.0614214455109428
1.0048965306135589,0.10352759540252561,0.10677056296917868,0.05738407400153901,0.12197388505525744,0.049294939423353085
1.0049436126386893,0.08458770500586026,0.09274567839069461,0.04469505929439128,0.11493624925377326,0.03697946408679552
1.0049906946638196,0.06411017510052013,0.07929583633756465,0.03435472552873721,0.10521864924678367,0.027226054308287895
1.00503777668895,0.043500849939608656,0.06652105292372884,0.022887706523455283,0.09333720477080762,0.01651456616646343
1.0050848587140804,0.02497562650004661,0.05456348113006051,0.013888116903115118,0.07941617463213772,0.008441819269831006
1.0051319407392107,0.011013597455985432,0.04681857515591172,0.011624969459267675,0.06590836144872067,0.007097844092950488
1.0051790227643411,0.003334338693202587,0.03969981673874356,0.009001101837417943,0.052280748362972536,0.005405505160283419
1.0052261047894715,0.0027948227754708652,0.03079164582095919,0.005716764128480125,0.039101764761024865,0.0030265870944766993
1.0052731868146019,0.010164673003053454,0.022506421424276918,0.005314070387151807,0.02635968903730649,0.0034967632886323146
1.0053202688397322,0.026566180290056158,0.017182398681196826,0.008193549268036414,0.015249039461093359,0.007130397515292547
1.0053673508648626,0.05291846997433676,0.015171285751373782,0.011498759854167706,0.008922398428212814,0.010860951227379805
1.005414432889993,0.08828034555015178,0.0176163502376165,0.017065936640710815,0.006108991653801345,0.01660775991662866
1.0054615149151234,0.12763762777320273,0.02133961763974065,0.025647230237824777,0.006446306084361099,0.0251462641372235
1.0055085969402537,0.16155770115500132,0.02675078091922862,0.038076850744054896,0.012297029080007071,0.03714952979997394
1.0055556789653841,0.18078890709766565,0.03258374315667532,0.05135766337998839,0.022427125816581326,0.049718990426634496
1.0056027609905145,0.18307418566708303,0.03643777001515644,0.06056084021799014,0.03404703650830425,0.05813210578623217
1.0056498430156449,0.1741533504439713,0.03855610979734004,0.06655908741414072,0.042009494296523286,0.06359912349436753
1.0056969250407752,0.16242605985016223,0.0394656923038215,0.07063087442771013,0.04822396376936313,0.06726290897269453
1.0057440070659056,0.15418810481596457,0.03929691726583382,0.07107575192890922,0.05166671092250818,0.06748460409744189
1.005791089091036,0.1523552110015489,0.03751666103578943,0.0660360559428213,0.052000236762467913,0.06242471824997238
1.0058381711161664,0.15691036178882456,0.03659120499953618,0.06130313889977103,0.051478155955387454,0.057727428019253846
1.0058852531412967,0.16538784679386007,0.039200222569799895,0.06307528196508604,0.05143274349554536,0.05950186564314523
1.005932335166427,0.17322460684996496,0.03937236652465254,0.06323184659303546,0.05019229296127893,0.059739260900841515
1.0059794171915575,0.17475929729964576,0.0373123289780947,0.05880087400333982,0.046549956370374804,0.055549309592922716
1.0060264992166879,0.16548577922015562,0.03431799381445998,0.05204155960234529,0.04122091205495114,0.049147732862601885
1.0060735812418182,0.1445721481217929,0.03046865643328702,0.04234591607178599,0.034022179141777846,0.039944469445579854
1.0061206632669486,0.11538472372115638,0.027506942819417797,0.03266210113426135,0.02558014300795528,0.03084547740789082
1.006167745292079,0.08342022676517998,0.024087448933216866,0.0259645785337829,0.017965248545947873,0.024677837281877283
1.0062148273172093,0.053714935068683495,0.022705876098797758,0.01794830890199036,0.012855165643793203,0.017027155024614396
1.0062619093423397,0.029620632829972474,0.02104304932424628,0.006428025048282717,0.009912604658273656,0.005734056691936633
1.00630899136747,0.012907514843990737,0.020127001263243974,-0.004503164505502606,0.01073898212925046,-0.0052286604552907005
1.0063560733926005,0.004292560353454192,0.021094228105434175,-0.010519166817943732,0.015183766165976657,-0.011535935560350177
1.0064031554177308,0.0038095921685766332,0.02514305778944391,-0.007972360122875525,0.02135766940055879,-0.009418971983738937
1.0064502374428612,0.010924293923755681,0.03531704229491999,0.0013341291502741227,0.03400297501474302,-0.00099936479088843
1.0064973194679916,0.02453035587728399,0.04569038740771791,0.011333716656649779,0.04835694633785553,0.008003641603641622
1.006544401493122,0.042966387475684646,0.054602465276250456,0.020787738978896356,0.06234472239823175,0.01650155273058677
1.0065914835182523,0.06411092062196938,0.06161872824722699,0.03329944681240632,0.07148660693476787,0.028402809016359207
1.0066385655433827,0.08556714248621351,0.0687690127902146,0.049462130528264495,0.07657674120047851,0.04424622862189236
1.006685647568513,0.10493697207975199,0.0749239860546,0.06485229624100503,0.07860701549545858,0.059529231168316814
1.0067327295936435,0.12014720761669652,0.0783617866686284,0.07640706666955516,0.07776341137049846,0.07115806278693568
1.0067798116187738,0.12974860817624662,0.07898810068601228,0.08294186479002422,0.07375726816393127,0.07795445175540683
1.0068268936439042,0.1331160769266914,0.078726283212312,0.08436945777741765,0.06706037670360925,0.07980247879994459
1.0068739756690346,0.13051634907150206,0.0744036145464313,0.08386978816652868,0.05882439255487291,0.07982121829115717
1.006921057694165,0.12301693370584733,0.066068068220447,0.08185258015702256,0.05065474110913383,0.07832395270771647
1.0069681397192953,0.11219272060745543,0.05544777367847312,0.07585112215539112,0.04148906264946702,0.07291712199423026
1.0070152217444257,0.09964098937742749,0.04531576044069686,0.06985230351433948,0.032073888792211236,0.06754142442957616
1.007062303769556,0.08648287672211809,0.03677899045874813,0.06302251331950957,0.023962905444403517,0.06126012783375978
1.0071093857946865,0.07315337862299943,0.031058466235401976,0.053521194673379444,0.01718839269162518,0.05223069711876944
1.0071564678198168,0.05967551136841471,0.027306546919298375,0.042771215350936226,0.011942681911036855,0.0418577783913851
1.0072035498449472,0.046352747241279996,0.022455455020988335,0.029687677967592516,0.007861097567443803,0.0290809462837344
1.0072506318700776,0.03458526276589038,0.019840546418049863,0.01916866027493343,0.006531675744458685,0.01867673652046969
1.007297713895208,0.02727830692374265,0.01958248352370313,0.01473006896934623,0.006840446990523739,0.01422725281516357
1.0073447959203383,0.0280866607277734,0.023317881024067916,0.01711698325886342,0.009541033624185477,0.016424068526007488
1.0073918779454687,0.03925806445151868,0.033474416067296814,0.028584290137595406,0.016680029241847992,0.027379449398649305
1.007438959970599,0.059562255279517966,0.046245131827510576,0.043832242766228824,0.025599103885919412,0.04199402561179658
1.0074860419957294,0.08449757331606145,0.05791464098747139,0.058037587268334905,0.03477719345756184,0.055563821260894805
1.0075331240208598,0.10858230355013457,0.06648416123148908,0.06858033205585247,0.04405797043280339,0.06548477348948331
1.0075802060459902,0.12742598805780986,0.07214365242262472,0.07621925524513734,0.050215831067333225,0.07272027800593406
1.0076272880711206,0.13840784538629322,0.0727164225447921,0.07904744927672683,0.053043575130612045,0.0753662843895342
1.007674370096251,0.14057521646913557,0.06907014914855134,0.0769603579802706,0.054057954012898826,0.07321432381964942
1.0077214521213813,0.1345761316442056,0.06371769146889393,0.07084930100861353,0.05191628478633231,0.06724207440899904
1.0077685341465117,0.12269802495893224,0.05547952427012239,0.062425783036096825,0.046832743193725046,0.05915320130591266
1.007815616171642,0.10844877640211482,0.04637505584367803,0.054884533548136764,0.03942383821011953,0.05210668737872148
