freq,gls,usurper,pdc_unbiased,shape_periodogram,shift_periodogram
1.0,0.02176245538732735,0.007427453497389438,-0.007335655112181927,0.010404514673642192,-0.00741581001442882
1.0000470820251304,0.05134779247241603,0.009021149245784265,0.016081221596065367,0.009697072293746865,0.01600698899137177
1.0000941640502607,0.09689124580742478,0.011755811647705321,0.05094334186944231,0.011213953330447283,0.050859166467772325
1.0001412460753911,0.14848755125694818,0.014030190591955826,0.08456655871201842,0.0168816555892332,0.08444764915198395
1.0001883281005215,0.19664060203551523,0.016328966293065142,0.10917973127593883,0.027010501100867966,0.10901191639844944
1.0002354101256519,0.23592916525893703,0.01966667441393278,0.12678225514793529,0.03686047733651575,0.12658667021417533
1.0002824921507822,0.26363730657080775,0.024216443298993515,0.13936052532630389,0.044504062255798706,0.13915950291284204
1.0003295741759126,0.2780607972143743,0.026669310175075595,0.14663287491158739,0.04858397896390593,0.1464363580875633
1.000376656201043,0.27778293516045677,0.02682796489087772,0.14742341655727248,0.05158623414712423,0.14722723453396575
1.0004237382261734,0.2619162710265795,0.026423187735505355,0.139633635428265,0.05230855527121485,0.1394263529373157
1.0004708202513037,0.23107843684954268,0.024943071831177232,0.12167319492364326,0.051113441222853474,0.1214418282584962
1.0005179022764341,0.1884924826566669,0.022683809877458362,0.09811663264576473,0.049234788853832125,0.09785828281663653
1.0005649843015645,0.1401213853463462,0.021626203190810045,0.07552593926328457,0.04772114756404001,0.07524526235255308
1.0006120663266949,0.09311329616242185,0.02196207033423264,0.056936636782797936,0.04598016795000471,0.05664294566982492
1.0006591483518252,0.05338098213176131,0.023857687614790235,0.04656239048066332,0.043007497335511256,0.04627422115571561
1.0007062303769556,0.024158292773911582,0.025450418550208284,0.0379052596807291,0.03771145177168001,0.03764162092902109
1.000753312402086,0.006389706849983347,0.027283670770260948,0.024925530867037873,0.031227324008678784,0.02469701745440601
1.0008003944272164,4.4957735270936574e-05,0.028334600654685616,0.013623927240606612,0.026161217296946978,0.013427080388380985
1.0008474764523467,0.004476680458159687,0.02827026921508431,0.005279248516488982,0.024877645540385844,0.005089447506083657
1.000894558477477,0.016631009383087918,0.032187965914167706,0.00604487589630294,0.026727443900409896,0.00584134810974762
1.0009416405026075,0.030279800796216314,0.03719811362334814,0.01614856324889533,0.0319554384195374,0.015910671515565546
1.0009887225277379,0.04019506929021177,0.04234866333454802,0.031662352407458065,0.03921024402322499,0.031384579494623324
1.0010358045528682,0.045271217739530065,0.045816115129364475,0.049643587368788454,0.04870834461150124,0.0493274963214968
1.0010828865779986,0.04665854735345898,0.05079391393900305,0.06394396252727896,0.05694903794744268,0.063609809206887
1.001129968603129,0.04557434040645729,0.052961056062462056,0.06951556918541625,0.0637686244998355,0.06916698007698319
1.0011770506282593,0.04281463251624272,0.05281332397376697,0.06676401531502141,0.06691010348953245,0.06639928642359398
1.0012241326533897,0.03911406922799136,0.051908257104310296,0.05756222886158259,0.06575288647537342,0.057180936647782066
1.00127121467852,0.035734840091298535,0.04866120165104708,0.04469056838221148,0.061527103694430846,0.04430147807915199
1.0013182967036505,0.034632288517627896,0.046010654128509486,0.03354469161607427,0.05784994300408859,0.03315522943424695
1.0013653787287808,0.03686446430802818,0.04361134687600837,0.03235087082016887,0.056126380252733934,0.03196949854373107
1.0014124607539112,0.040499198873267514,0.04162706391278952,0.04235422606047071,0.056873257765903365,0.04198480786463528
1.0014595427790416,0.04245011553894062,0.042272124640006056,0.05148956578485458,0.060228524791011186,0.051119470931557054
1.001506624804172,0.04142424671447975,0.04384265113658884,0.057489670337512934,0.06202323048298003,0.057123184481083285
1.0015537068293023,0.03772147907862947,0.04554826391842977,0.05838903434484734,0.06034020297086022,0.05803123247484886
1.0016007888544327,0.032149333674356434,0.0442382732134248,0.05286952532393206,0.05499864201778231,0.052526248212344265
1.001647870879563,0.025799799790141527,0.03934848100495632,0.040386054375886556,0.04666321788127705,0.04007062457112371
1.0016949529046935,0.020580986012262138,0.03341790833362782,0.02276083148008517,0.036647445748927074,0.022493778747971725
1.0017420349298238,0.01993155776046648,0.03036381620399273,0.008396000375120035,0.029907544354806203,0.008169538852031175
1.0017891169549542,0.027489951613850306,0.028965014473645412,0.00883020356959996,0.03039828402837144,0.008600279950278223
1.0018361989800846,0.042074300128446054,0.028688336859670087,0.022145335055818467,0.03359632417395361,0.02189897920063956
1.001883281005215,0.05845891480384451,0.03255162063821897,0.04104344236602053,0.04020229808258688,0.04076688489139427
1.0019303630303453,0.07582159493280267,0.033776315388036826,0.05832937685591873,0.04855452755282234,0.05802453258322387
1.0019774450554757,0.09824195100672209,0.03169442104144735,0.07041397317164165,0.05772416332277569,0.07008776172771587
1.002024527080606,0.1303669711588208,0.026884432793668846,0.07896421651578898,0.06150892952773252,0.0786414709099657
1.0020716091057364,0.17464242099810953,0.023376836864231833,0.08832693698111686,0.06361213263498858,0.0880179438406416
1.0021186911308668,0.22917237164395338,0.022446374163676536,0.11355266104308831,0.06524849616725951,0.11329576748239979
1.0021657731559972,0.2864808872447173,0.023732428605774358,0.14880372324738836,0.0675278215540581,0.14862923484913326
1.0022128551811276,0.335488571803669,0.02499642701302215,0.17945522269565434,0.06958957573417203,0.17936161792659938
1.002259937206258,0.3667004160945303,0.025242467631062547,0.20044309409803335,0.070547555384643,0.20040674465615246
1.0023070192313883,0.37630521047742305,0.024395231763183166,0.20989430295355302,0.06984940827452031,0.20987657672825363
1.0023541012565187,0.3658732131217113,0.023043021331288615,0.20800353236518512,0.06786344951399777,0.20796818848505144
1.002401183281649,0.3393357840705059,0.021244804391457685,0.19716291122807472,0.0657590044177168,0.1970910323643486
1.0024482653067794,0.30043566038503033,0.01927088142942087,0.1783931936762516,0.06100206332702818,0.17826280094139796
1.0024953473319098,0.25183659939415354,0.018376613621701912,0.15384153094853617,0.051299798759393216,0.15365419566428448
1.0025424293570402,0.1956066522565673,0.016599783824667546,0.12081929242955049,0.038637937913813376,0.12061399547818599
1.0025895113821706,0.13475970805500284,0.016280127064844243,0.07564140824241966,0.02166533822290697,0.07549169318002158
1.002636593407301,0.07582916802294695,0.017023142505296324,0.025728531183742454,0.007025557022189985,0.025674454693893838
1.0026836754324313,0.03145358980808763,0.013245380599376508,-0.0040036080406334615,0.006044391110472621,-0.004050024250689695
1.0027307574575617,0.01779891286180085,0.01035966245186129,-0.006351274616742859,0.02090689882038117,-0.006513206367450488
1.002777839482692,0.04358985242398123,0.014507592612087956,0.006591376950054447,0.03792826269030673,0.006304191783291921
1.0028249215078224,0.1037077589167159,0.025907463146849594,0.04281328660270074,0.05245654953057429,0.04246826690273308
1.0028720035329528,0.18101238562213362,0.03788335818635906,0.0979436666785688,0.05591645381144909,0.09766848169930735
1.0029190855580832,0.25636899888384335,0.04476018905534237,0.15380629462607742,0.05698066646513411,0.15362298721635684
1.0029661675832136,0.31832235074100634,0.04499761051084162,0.19704252226634572,0.05953574598918215,0.19694144945608943
1.003013249608344,0.36361141655314383,0.0469054523116156,0.228525784613192,0.059049529959380995,0.22847843246630886
1.0030603316334743,0.39341420767750745,0.04704187536654432,0.24979870354304085,0.05618643993196481,0.24976961988710428
1.0031074136586047,0.4102870696014962,0.04612952022320115,0.26258314989231946,0.054303315505149684,0.2625616288923079
1.003154495683735,0.41662904201390033,0.044508167596569934,0.266777273312063,0.051714941002253205,0.2667456357655762
1.0032015777088654,0.41405085665469693,0.04238342120731059,0.26326150551395927,0.04841911913887303,0.26320740857042135
1.0032486597339958,0.4030953535584088,0.039715552393821386,0.251751202986526,0.04440039403534253,0.2516673213730563
1.0032957417591262,0.38301151602067063,0.03643964039483094,0.2324239377319079,0.039735178776046674,0.2323099676649053
1.0033428237842565,0.3514583105172215,0.03249851681328762,0.2047530276495091,0.03431921647306607,0.20461531533634938
1.003389905809387,0.3042863356687068,0.027713796335469665,0.16911475512504195,0.02846812637633654,0.16896691116976145
1.0034369878345173,0.2364892670841809,0.0224213230441256,0.12615890065588273,0.02234153784963395,0.12601853261392257
1.0034840698596477,0.14805992805189566,0.01738448925569802,0.07745804013496241,0.016156894395953303,0.07734272115516452
1.003531151884778,0.05937981673678241,0.015077440559180718,0.035632586371168055,0.01153022377552347,0.03554543344136507
1.0035782339099084,0.016571701488668728,0.017246343269744103,0.012038086514572617,0.010370163919703596,0.011958678369660723
1.0036253159350388,0.04141534161646615,0.02473606194236516,0.014399178728297872,0.016074854197951405,0.014277072706989415
1.0036723979601692,0.0978579156313711,0.03552239887560394,0.03595348541122598,0.02916547008471584,0.035743855294403305
1.0037194799852995,0.14599333246590304,0.049746568757296876,0.06503465797160808,0.04199661584465783,0.06476886630430757
1.00376656201043,0.17300879075255565,0.061526581666052925,0.0922030709843016,0.05135343502133324,0.09193090734612376
1.0038136440355603,0.18229222765708752,0.06804781334869939,0.11374971918924169,0.05614508830073023,0.11349987871729428
1.0038607260606907,0.18262972424027749,0.06880319122993628,0.12736778710133306,0.05801639557982192,0.1271395959735531
1.003907808085821,0.18292620727983336,0.07114869949724785,0.13485525602086357,0.05672464808473286,0.13463998790487458
1.0039548901109514,0.18798821740501145,0.0727007863303945,0.13913083302593265,0.056620387791255146,0.13892268512708197
1.0040019721360818,0.19658928748535154,0.06982390187589364,0.1397247738744464,0.05605311614137868,0.1395174700413549
1.0040490541612122,0.20361099360789395,0.06449710349326226,0.1356935801867525,0.05807227354220794,0.13547994332975538
1.0040961361863425,0.20356945018764083,0.05758186779544552,0.1287855413388881,0.0569150257209813,0.1285600679676052
1.004143218211473,0.19261735903368254,0.052177971592489006,0.11776025800915435,0.055167092171754376,0.11751802912401432
1.0041903002366033,0.1692114287165738,0.04504545772283772,0.09836742477706704,0.05136419583545227,0.09810367169220291
1.0042373822617336,0.13469585530973552,0.03722551882437697,0.07519967777083232,0.044587839853184076,0.07493172784711481
1.004284464286864,0.094068350002802,0.028918640357055273,0.051842634052145065,0.036724673446018256,0.05159465686756453
1.0043315463119944,0.0558705414627791,0.020950558111111267,0.03082107495389939,0.027939172840518403,0.030617649192008302
1.0043786283371248,0.029785725493520713,0.015880360694884067,0.019809015244991575,0.019448321775558736,0.019662740964159788
1.0044257103622551,0.022326134922130727,0.013482351047824047,0.01684685304795892,0.012988088145663577,0.01674797399861648
1.0044727923873855,0.03362727707623793,0.013186310113945212,0.01768087969631584,0.010073348903413677,0.017603855381507577
1.004519874412516,0.057935866130881315,0.014954538917814252,0.0238553638180855,0.01041179768669279,0.023775982821346357
1.0045669564376463,0.08691312585069338,0.018302410851142495,0.038233159934289905,0.015506445949336565,0.038117674841969804
1.0046140384627766,0.11302745450084833,0.02176790287772515,0.05542672474865837,0.025184615477492265,0.05524986389768465
1.004661120487907,0.13143773576861661,0.024849450931375208,0.07126698378066398,0.0370789472494081,0.07103063164155884
1.0047082025130374,0.140315951549541,0.02904748145005684,0.0817840112464661,0.04842606532341465,0.08150807783552404
1.0047552845381678,0.14016084842095028,0.029179124528734984,0.0846685751900148,0.05739062323714996,0.08436772332603884
1.0048023665632981,0.13271042804166153,0.02754417699926358,0.08028160564993014,0.06418978461975408,0.07995441092462525
1.0048494485884285,0.1199532079956697,0.02325503146888628,0.06958311394397716,0.06785251653595974,0.06922202883812105
1.0048965306135589,0.10352759540252561,0.021408822077583826,0.05738407400153901,0.06844872763097261,0.05699204443350337
1.0049436126386893,0.08458770500586026,0.020103471785312858,0.04469505929439128,0.065137291037808,0.044288402023995976
1.0049906946638196,0.06411017510052013,0.01777867277142309,0.03435472552873721,0.059735202716158085,0.0339559116470613
1.00503777668895,0.043500849939608656,0.014760128038417608,0.022887706523455283,0.05385438140571717,0.022506029936909134
1.0050848587140804,0.02497562650004661,0.011117558417426255,0.013888116903115118,0.047770398020096194,0.013536062424992001
1.0051319407392107,0.011013597455985432,0.006407046052353662,0.011624969459267675,0.04213147946631701,0.011310878284848542
1.0051790227643411,0.003334338693202587,0.003873573403173462,0.009001101837417943,0.03434721131931455,0.00874200689482771
1.0052261047894715,0.0027948227754708652,0.0022542544209027257,0.005716764128480125,0.022373286793402274,0.005546014081048631
1.0052731868146019,0.010164673003053454,0.003924266414479642,0.005314070387151807,0.011395044523329132,0.005226665687129035
1.0053202688397322,0.026566180290056158,0.006406548860187208,0.008193549268036414,0.005142542249557341,0.008153889629559617
1.0053673508648626,0.05291846997433676,0.008190778482423326,0.011498759854167706,0.002125682834629798,0.011482109798535364
1.005414432889993,0.08828034555015178,0.007513205584654573,0.017065936640710815,0.00038933770142781624,0.017062442465882625
1.0054615149151234,0.12763762777320273,0.007836731279717372,0.025647230237824777,0.0008528428723582903,0.02563993323601218
1.0055085969402537,0.16155770115500132,0.009774270181185953,0.038076850744054896,0.005522185529153253,0.03803395112778355
1.0055556789653841,0.18078890709766565,0.01217387661376454,0.05135766337998839,0.013312526726112163,0.05125875438981628
1.0056027609905145,0.18307418566708303,0.012483157205998283,0.06056084021799014,0.02187995527288757,0.06040620217342595
1.0056498430156449,0.1741533504439713,0.014206052242175892,0.06655908741414072,0.0306050188246654,0.06635437956261792
1.0056969250407752,0.16242605985016223,0.015306649027903973,0.07063087442771013,0.038112236070184255,0.07038890677683109
1.0057440070659056,0.15418810481596457,0.01360189892086769,0.07107575192890922,0.04351190289750218,0.07080844384233338
1.005791089091036,0.1523552110015489,0.010249644925214052,0.0660360559428213,0.04571679796539169,0.06575343683202216
1.0058381711161664,0.15691036178882456,0.008713235913212256,0.06130313889977103,0.04524778312603524,0.06101773689157054
1.0058852531412967,0.16538784679386007,0.008386105151249958,0.06307528196508604,0.04163703915759087,0.062809525057886
1.005932335166427,0.17322460684996496,0.008837650733124734,0.06323184659303546,0.036658109934486614,0.06299205678375633
1.0059794171915575,0.17475929729964576,0.006715130133403401,0.05880087400333982,0.03098763110880076,0.05859021872746632
1.0060264992166879,0.16548577922015562,0.004147527935266323,0.05204155960234529,0.026604197690861014,0.051854658626413634
1.0060735812418182,0.1445721481217929,0.0019293694769722156,0.04234591607178599,0.022437945524684977,0.04218325578789986
1.0061206632669486,0.11538472372115638,8.182149262959655e-05,0.03266210113426135,0.02001962108156945,0.032514006029912834
1.006167745292079,0.08342022676517998,0.00043965130501025717,0.0259645785337829,0.018609836275463226,0.025825376314262724
1.0062148273172093,0.053714935068683495,0.0029265323805647567,0.01794830890199036,0.017994231380420292,0.01781241131553609
1.0062619093423397,0.029620632829972474,0.006948187060614378,0.006428025048282717,0.020407624884103012,0.0062722828194256555
1.00630899136747,0.012907514843990737,0.010092297338007625,-0.004503164505502606,0.02080945643356023,-0.0046639931369151216
1.0063560733926005,0.004292560353454192,0.014317704892426827,-0.010519166817943732,0.02101919217312299,-0.010682757669560049
1.0064031554177308,0.0038095921685766332,0.018001790796498184,-0.007972360122875525,0.022671672445476396,-0.008148473084672647
1.0064502374428612,0.010924293923755681,0.02240596266031491,0.0013341291502741227,0.02448305623573275,0.0011462389833077475
1.0064973194679916,0.02453035587728399,0.028664619126923332,0.011333716656649779,0.027699564768677402,0.01112477101078545
1.006544401493122,0.042966387475684646,0.033740580372782866,0.020787738978896356,0.030514863426752973,0.020562287268972315
1.0065914835182523,0.06411092062196938,0.038631449352164324,0.03329944681240632,0.03298045398068679,0.033063337335821286
1.0066385655433827,0.08556714248621351,0.0432113654295103,0.049462130528264495,0.035018961517363896,0.04922259084695073
1.006685647568513,0.10493697207975199,0.045311758146719276,0.06485229624100503,0.03722210886507093,0.06461065433325555
1.0067327295936435,0.12014720761669652,0.04408147525231955,0.07640706666955516,0.037926074892157734,0.07617031755594612
1.0067798116187738,0.12974860817624662,0.040835541540477256,0.08294186479002422,0.035320749387270825,0.08272198096099075
1.0068268936439042,0.1331160769266914,0.03680462061618103,0.08436945777741765,0.031314723940288995,0.08416981997838693
1.0068739756690346,0.13051634907150206,0.03382919062142625,0.08386978816652868,0.0267867033027558,0.08369341010885141
1.006921057694165,0.12301693370584733,0.030110653636579512,0.08185258015702256,0.01977740587300028,0.0817155530374001
1.0069681397192953,0.11219272060745543,0.024769861988397205,0.07585112215539112,0.013335776671793455,0.07575396551230436
1.0070152217444257,0.09964098937742749,0.018276707183752045,0.06985230351433948,0.007837593223308612,0.06979257759703697
1.007062303769556,0.08648287672211809,0.013102499949473538,0.06302251331950957,0.004155555942178653,0.06298944788269886
1.0071093857946865,0.07315337862299943,0.008135000342101024,0.053521194673379444,0.00213171917234721,0.05350342359249389
1.0071564678198168,0.05967551136841471,0.002682567037370508,0.042771215350936226,0.0011481344690399435,0.0427611809825094
1.0072035498449472,0.046352747241279996,-0.00023078903426539262,0.029687677967592516,0.0023781128762030983,0.029668629707025995
1.0072506318700776,0.03458526276589038,-0.002623502591379783,0.01916866027493343,0.00418585335740391,0.019136103914292286
1.007297713895208,0.02727830692374265,-0.0029354224574540677,0.01473006896934623,0.006028092724310468,0.014683579295068904
1.0073447959203383,0.0280866607277734,-0.0020325425492360057,0.01711698325886342,0.009197507555549374,0.01704653066856611
1.0073918779454687,0.03925806445151868,0.0004292596303899763,0.028584290137595406,0.013871881021410168,0.028479685103615954
1.007438959970599,0.059562255279517966,0.005457745252542678,0.043832242766228824,0.018857328223714363,0.04369416980089894
1.0074860419957294,0.08449757331606145,0.010376105748719826,0.058037587268334905,0.02597428680863814,0.057856680251076736
1.0075331240208598,0.10858230355013457,0.01438021117435178,0.06858033205585247,0.03187290153146589,0.06836961141790134
1.0075802060459902,0.12742598805780986,0.015689666804450327,0.07621925524513734,0.036006581205306726,0.07599163528753453
1.0076272880711206,0.13840784538629322,0.017080515302428646,0.07904744927672683,0.03923998322353987,0.07880663216650423
1.007674370096251,0.14057521646913557,0.016454964878840326,0.0769603579802706,0.041489308496477036,0.07670765900428479
1.0077214521213813,0.1345761316442056,0.01341983822492589,0.07084930100861353,0.042071297002176385,0.07058843543999202
