freq,gls,usurper,pdc_unbiased,shape_periodogram,shift_periodogram
1.0,0.02176245538732735,0.011576331808656958,-0.007335655112181927,-0.008434935436112562,-0.007165320368001834
1.0000470820251304,0.05134779247241603,0.02495444109672209,0.016081221596065367,0.0015178464615884827,0.01604758548973743
1.0000941640502607,0.09689124580742478,0.03802074628765818,0.05094334186944231,0.017805507898615635,0.05058548733867754
1.0001412460753911,0.14848755125694818,0.051314645828881844,0.08456655871201842,0.030439940685495964,0.0839844607777085
1.0001883281005215,0.19664060203551523,0.061186205586836635,0.10917973127593883,0.041011778454342326,0.10844042837697479
1.0002354101256519,0.23592916525893703,0.06622586686400109,0.12678225514793529,0.048492695174243934,0.1259538521913879
1.0002824921507822,0.26363730657080775,0.06739114149279776,0.13936052532630389,0.05128984639188447,0.13851305168190906
1.0003295741759126,0.2780607972143743,0.06816468695998895,0.14663287491158739,0.052525955369229674,0.14578134752420763
1.000376656201043,0.27778293516045677,0.0687064135075579,0.14742341655727248,0.05323130210755319,0.14656478108508983
1.0004237382261734,0.2619162710265795,0.06651229372492197,0.139633635428265,0.052877999811846814,0.13876688358589973
1.0004708202513037,0.23107843684954268,0.06106670717915232,0.12167319492364326,0.05128814085739798,0.12079994668386727
1.0005179022764341,0.1884924826566669,0.053677217188084575,0.09811663264576473,0.04817819348150902,0.09725672806932514
1.0005649843015645,0.1401213853463462,0.04721389198895999,0.07552593926328457,0.04474972704141781,0.07469555295183224
1.0006120663266949,0.09311329616242185,0.042316443297879265,0.056936636782797936,0.04078500684697121,0.056157944668614436
1.0006591483518252,0.05338098213176131,0.04011854177713596,0.04656239048066332,0.03661078949167093,0.04585199190641166
1.0007062303769556,0.024158292773911582,0.038131286600606114,0.0379052596807291,0.03094107903979413,0.037296399472456596
1.000753312402086,0.006389706849983347,0.03329835921006479,0.024925530867037873,0.02426432128175147,0.024441637003827746
1.0008003944272164,4.4957735270936574e-05,0.030026654460159202,0.013623927240606612,0.017771441929120585,0.013267046299107924
1.0008474764523467,0.004476680458159687,0.024620223974299162,0.005279248516488982,0.014484220605019612,0.004988299882844342
1.000894558477477,0.016631009383087918,0.024894317757834357,0.00604487589630294,0.014361920885830055,0.005756299538484335
1.0009416405026075,0.030279800796216314,0.032396633938178605,0.01614856324889533,0.0176116675639761,0.015794771487747498
1.0009887225277379,0.04019506929021177,0.044778418173315127,0.031662352407458065,0.025613938213978005,0.031153380729300125
1.0010358045528682,0.045271217739530065,0.05718312895398297,0.049643587368788454,0.03438561856281681,0.04897557193713029
1.0010828865779986,0.04665854735345898,0.06212629889978285,0.06394396252727896,0.04334970280427507,0.06312631502071012
1.001129968603129,0.04557434040645729,0.06418845745112353,0.06951556918541625,0.05013992896376379,0.06858934737508034
1.0011770506282593,0.04281463251624272,0.06128387868747471,0.06676401531502141,0.05380330789407249,0.0657737924384316
1.0012241326533897,0.03911406922799136,0.05515275979760035,0.05756222886158259,0.05532332269318094,0.05653311735680673
1.00127121467852,0.035734840091298535,0.04816618684000927,0.04469056838221148,0.05519383681538598,0.04364454822758815
1.0013182967036505,0.034632288517627896,0.04329658432853216,0.03354469161607427,0.05619742380460756,0.03246423249600614
1.0013653787287808,0.03686446430802818,0.04631316699297532,0.03235087082016887,0.058247291516874286,0.03123120173500768
1.0014124607539112,0.040499198873267514,0.05286419141968354,0.04235422606047071,0.06079437243668491,0.041206016184673254
1.0014595427790416,0.04245011553894062,0.05802948155443349,0.05148956578485458,0.06193480018968043,0.05033860327471808
1.001506624804172,0.04142424671447975,0.059979088017299245,0.057489670337512934,0.05997550721491081,0.056382593077774164
1.0015537068293023,0.03772147907862947,0.05794131054623354,0.05838903434484734,0.0562026961295461,0.05734641110200973
1.0016007888544327,0.032149333674356434,0.05414068047653894,0.05286952532393206,0.048459081019069365,0.05195214256692761
1.001647870879563,0.025799799790141527,0.04858904748866778,0.040386054375886556,0.03810391405698128,0.0396445075685414
1.0016949529046935,0.020580986012262138,0.039309065022576466,0.02276083148008517,0.02674859554907228,0.022228280177781133
1.0017420349298238,0.01993155776046648,0.03079056081593903,0.008396000375120035,0.018343719083498855,0.008027891845659801
1.0017891169549542,0.027489951613850306,0.02700906376748019,0.00883020356959996,0.015355565069966716,0.00852157455206387
1.0018361989800846,0.042074300128446054,0.026499742118340355,0.022145335055818467,0.019126611194791136,0.02176163492017974
1.001883281005215,0.05845891480384451,0.029262718579851035,0.04104344236602053,0.026947862218299076,0.04051090939417714
1.0019303630303453,0.07582159493280267,0.03753453908070634,0.05832937685591873,0.035651988386913205,0.05764295814331223
1.0019774450554757,0.09824195100672209,0.04757531937835931,0.07041397317164165,0.03981404270407776,0.06966240696220334
1.002024527080606,0.1303669711588208,0.05120335597341329,0.07896421651578898,0.0434192837288314,0.07815914123533658
1.0020716091057364,0.17464242099810953,0.04900162061267811,0.08832693698111686,0.04511684442215246,0.08750356100012077
1.0021186911308668,0.22917237164395338,0.05265214070560502,0.11355266104308831,0.04634827045960424,0.11273818473365761
1.0021657731559972,0.2864808872447173,0.060713182339396224,0.14880372324738836,0.047864940530713475,0.1480121629619861
1.0022128551811276,0.335488571803669,0.06840724389487719,0.17945522269565434,0.04889173392097899,0.17869358485152445
1.002259937206258,0.3667004160945303,0.07351398205319383,0.20044309409803335,0.048522398543255824,0.19971513197756952
1.0023070192313883,0.37630521047742305,0.07548838045303163,0.20989430295355302,0.04664544327549354,0.20919728580705255
1.0023541012565187,0.3658732131217113,0.07421845593308636,0.20800353236518512,0.04336758838124469,0.20733623586789662
1.002401183281649,0.3393357840705059,0.07019067310315234,0.19716291122807472,0.03833469699629291,0.19653926139328398
1.0024482653067794,0.30043566038503033,0.06368469546337008,0.1783931936762516,0.03168653507895903,0.1778395785183252
1.0024953473319098,0.25183659939415354,0.055751042643380565,0.15384153094853617,0.022107176952175296,0.1534202713373106
1.0025424293570402,0.1956066522565673,0.044914360683876706,0.12081929242955049,0.012919494133321274,0.12055186190809766
1.0025895113821706,0.13475970805500284,0.03098310640735492,0.07564140824241966,0.0037849841830401,0.07555158341980765
1.002636593407301,0.07582916802294695,0.015268449182826306,0.025728531183742454,-0.0022705789689190657,0.025768910479704258
1.0026836754324313,0.03145358980808763,0.013407665812889845,-0.0040036080406334615,-0.0023091006838190623,-0.003956515202804069
1.0027307574575617,0.01779891286180085,0.024000888507525762,-0.006351274616742859,0.005610877855662251,-0.006462595916721437
1.002777839482692,0.04358985242398123,0.02655887587474033,0.006591376950054447,0.019305508610397815,0.006204138480027223
1.0028249215078224,0.1037077589167159,0.03104689120571057,0.04281328660270074,0.03362120886148837,0.04215617251825259
1.0028720035329528,0.18101238562213362,0.041354987512476904,0.0979436666785688,0.048873244135469965,0.09707304677123427
1.0029190855580832,0.25636899888384335,0.058772671261565664,0.15380629462607742,0.05943479283046429,0.1528900695973789
1.0029661675832136,0.31832235074100634,0.07935586468558589,0.19704252226634572,0.0565804215766387,0.19623729160473669
1.003013249608344,0.36361141655314383,0.08826310687815145,0.228525784613192,0.05235426003996509,0.22780951099045427
1.0030603316334743,0.39341420767750745,0.09366112247931753,0.24979870354304085,0.05029836656062841,0.24913143207954383
1.0031074136586047,0.4102870696014962,0.09541271226636665,0.26258314989231946,0.04731081514794398,0.26195466660046063
1.003154495683735,0.41662904201390033,0.09471816671446785,0.266777273312063,0.04412654351942823,0.26617605242634984
1.0032015777088654,0.41405085665469693,0.09213041448886226,0.26326150551395927,0.04015883309436483,0.2626863167636261
1.0032486597339958,0.4030953535584088,0.08767885845627461,0.251751202986526,0.035172127679516565,0.25120997733315586
1.0032957417591262,0.38301151602067063,0.08129955591500067,0.2324239377319079,0.029491299078004313,0.2319310011856164
1.0033428237842565,0.3514583105172215,0.07287039212095187,0.2047530276495091,0.02286478352640804,0.20433477570337957
1.003389905809387,0.3042863356687068,0.06195612210692249,0.16911475512504195,0.015256017810947441,0.16880791832176933
1.0034369878345173,0.2364892670841809,0.049011241394019196,0.12615890065588273,0.007439109871853421,0.12599175249
1.0034840698596477,0.14805992805189566,0.03460405521710561,0.07745804013496241,0.000289642520070178,0.07743680915606184
1.003531151884778,0.05937981673678241,0.023408755543772995,0.035632586371168055,-0.00435145070699676,0.03571285373979619
1.0035782339099084,0.016571701488668728,0.02017641488384409,0.012038086514572617,-0.0038539982196094565,0.012113016018076983
1.0036253159350388,0.04141534161646615,0.025261949112051096,0.014399178728297872,0.0036731753151182643,0.014322753322312129
1.0036723979601692,0.0978579156313711,0.035098394152569136,0.03595348541122598,0.013327404260420523,0.03568271885412068
1.0037194799852995,0.14599333246590304,0.04658426202877266,0.06503465797160808,0.025715894173916298,0.06453050393579302
1.00376656201043,0.17300879075255565,0.05574939235349549,0.0922030709843016,0.03810771792625631,0.09149614057832124
1.0038136440355603,0.18229222765708752,0.06341793188028169,0.11374971918924169,0.04888750263515036,0.11289898014045383
1.0038607260606907,0.18262972424027749,0.0689997182782294,0.12736778710133306,0.05876951311795113,0.1264075069847382
1.003907808085821,0.18292620727983336,0.07142092068936137,0.13485525602086357,0.06673181774562592,0.13381954066968046
1.0039548901109514,0.18798821740501145,0.07305623317459993,0.13913083302593265,0.06857634261418528,0.13808661817860612
1.0040019721360818,0.19658928748535154,0.07459491733081713,0.1397247738744464,0.0678481741372363,0.13868953156246736
1.0040490541612122,0.20361099360789395,0.07565056934849956,0.1356935801867525,0.06429825563564837,0.13468632961560148
1.0040961361863425,0.20356945018764083,0.07454746811496432,0.1287855413388881,0.059393797992882066,0.1278203808784591
1.004143218211473,0.19261735903368254,0.06837095550156506,0.11776025800915435,0.05177227352417578,0.11687475683258124
1.0041903002366033,0.1692114287165738,0.05905035628276191,0.09836742477706704,0.04389669569813286,0.09757345725297742
1.0042373822617336,0.13469585530973552,0.04786316778427503,0.07519967777083232,0.03572167507134307,0.0745216974509476
1.004284464286864,0.094068350002802,0.037182444822027975,0.051842634052145065,0.025770902608550486,0.05133457404116115
1.0043315463119944,0.0558705414627791,0.028307734242860493,0.03082107495389939,0.016246205223049325,0.030493612811710098
1.0043786283371248,0.029785725493520713,0.02242289782764997,0.019809015244991575,0.007840547910176953,0.01964851960529656
1.0044257103622551,0.022326134922130727,0.020530039501553143,0.01684685304795892,0.001663994444178712,0.016810139918009143
1.0044727923873855,0.03362727707623793,0.02169808563200928,0.01768087969631584,-0.0008111719794196701,0.01769358918232249
1.004519874412516,0.057935866130881315,0.025223001986985915,0.0238553638180855,-0.00010969139819881472,0.023852768343533705
1.0045669564376463,0.08691312585069338,0.031090505783254955,0.038233159934289905,0.0041400164660110065,0.03814298148335939
1.0046140384627766,0.11302745450084833,0.03820220219304277,0.05542672474865837,0.011973593643012035,0.055180578233764266
1.004661120487907,0.13143773576861661,0.04316300696596636,0.07126698378066398,0.0213978248942214,0.07084306536064545
1.0047082025130374,0.140315951549541,0.04669194386354621,0.0817840112464661,0.031228886627735836,0.08118707052194266
1.0047552845381678,0.14016084842095028,0.047683663437249654,0.0846685751900148,0.040972790859521005,0.08390882939506547
1.0048023665632981,0.13271042804166153,0.04552913200223898,0.08028160564993014,0.04737273999902419,0.07941335764795497
1.0048494485884285,0.1199532079956697,0.04156956332890694,0.06958311394397716,0.05270059974811993,0.06861494623784273
1.0048965306135589,0.10352759540252561,0.03589476282424537,0.05738407400153901,0.05436881788712982,0.056370819782506805
1.0049436126386893,0.08458770500586026,0.029986018166028337,0.04469505929439128,0.05394883409411513,0.04367100546950716
1.0049906946638196,0.06411017510052013,0.024398891473080782,0.03435472552873721,0.05277380888289128,0.03333788329732781
1.00503777668895,0.043500849939608656,0.020154330851028156,0.022887706523455283,0.04976738702704472,0.021913116240136275
1.0050848587140804,0.02497562650004661,0.017031289228137316,0.013888116903115118,0.04386372013130772,0.01301858359059408
1.0051319407392107,0.011013597455985432,0.014056641745052136,0.011624969459267675,0.03698582742941332,0.010888622609675129
1.0051790227643411,0.003334338693202587,0.010761274555482208,0.009001101837417943,0.02956285712697675,0.008410272710891484
1.0052261047894715,0.0027948227754708652,0.006948312403852933,0.005716764128480125,0.022305694249113307,0.0052696963115624025
1.0052731868146019,0.010164673003053454,0.004005651922426705,0.005314070387151807,0.013293531690979292,0.005046911099940988
1.0053202688397322,0.026566180290056158,0.002490709137251381,0.008193549268036414,0.0040246831584470864,0.008111277245217383
1.0053673508648626,0.05291846997433676,0.0029125914461103344,0.011498759854167706,-0.0022777789660638923,0.011542140879196137
1.005414432889993,0.08828034555015178,0.007520296191513885,0.017065936640710815,-0.0064716736370309886,0.017192572605504955
1.0054615149151234,0.12763762777320273,0.011939247569859304,0.025647230237824777,-0.00903768209973445,0.02582416543684218
1.0055085969402537,0.16155770115500132,0.016622227315642116,0.038076850744054896,-0.007667337604703638,0.03822373059393902
1.0055556789653841,0.18078890709766565,0.02012452784634262,0.05135766337998839,-0.002721844877469608,0.051401915152090166
1.0056027609905145,0.18307418566708303,0.02135777246257088,0.06056084021799014,0.0052456824327233795,0.060444934388340435
1.0056498430156449,0.1741533504439713,0.02143378912360522,0.06655908741414072,0.012321926610488589,0.06630534447949842
1.0056969250407752,0.16242605985016223,0.021582561762960754,0.07063087442771013,0.018947435392107696,0.0702522044295228
1.0057440070659056,0.15418810481596457,0.021557740174622194,0.07107575192890922,0.02447508392037808,0.0705955162615024
1.005791089091036,0.1523552110015489,0.02079376522492317,0.0660360559428213,0.028207707908652457,0.0654868565863256
1.0058381711161664,0.15691036178882456,0.019503756215874125,0.06130313889977103,0.031236246364843408,0.06069754485426129
1.0058852531412967,0.16538784679386007,0.019989378650678787,0.06307528196508604,0.03341520911962574,0.062431325255346906
1.005932335166427,0.17322460684996496,0.018410307388114857,0.06323184659303546,0.0343555650604669,0.06257119835764084
1.0059794171915575,0.17475929729964576,0.016904548244505532,0.05880087400333982,0.034026076892112136,0.05814388715761146
1.0060264992166879,0.16548577922015562,0.014212678319002024,0.05204155960234529,0.0326216581208002,0.05140694022916209
1.0060735812418182,0.1445721481217929,0.011423764778823349,0.04234591607178599,0.02853257158696592,0.041783812494707674
1.0061206632669486,0.11538472372115638,0.009376541151709489,0.03266210113426135,0.021328077292623517,0.032235894024421334
1.006167745292079,0.08342022676517998,0.007160614289694481,0.0259645785337829,0.013614577875043884,0.025689029567350603
1.0062148273172093,0.053714935068683495,0.005727699378153691,0.01794830890199036,0.0067322645002312834,0.017810181773263073
1.0062619093423397,0.029620632829972474,0.004405119451725338,0.006428025048282717,0.0019344682261549138,0.0063879592673676475
1.00630899136747,0.012907514843990737,0.003750898624632115,-0.004503164505502606,-0.00017817213190506013,-0.00449868687057834
1.0063560733926005,0.004292560353454192,0.0041377783101136665,-0.010519166817943732,0.0003022096526178676,-0.010523111336504205
1.0064031554177308,0.0038095921685766332,0.0071441034371399845,-0.007972360122875525,0.003339840969057124,-0.008037762763845945
1.0064502374428612,0.010924293923755681,0.014238978994944657,0.0013341291502741227,0.010421916104766957,0.0011249534129124776
1.0064973194679916,0.02453035587728399,0.020379669442169773,0.011333716656649779,0.018635621212368992,0.010959749550592377
1.006544401493122,0.042966387475684646,0.025460788411896022,0.020787738978896356,0.02765693046368445,0.020237102307618538
1.0065914835182523,0.06411092062196938,0.028795884509644553,0.03329944681240632,0.03387595640684586,0.03263333163386865
1.0066385655433827,0.08556714248621351,0.032702125297234416,0.049462130528264495,0.036302520599943267,0.048759004662766905
1.006685647568513,0.10493697207975199,0.03627508645442769,0.06485229624100503,0.03548791342091023,0.06417243698794453
1.0067327295936435,0.12014720761669652,0.03858110760904168,0.07640706666955516,0.034305478292916525,0.07575423146096494
1.0067798116187738,0.12974860817624662,0.03992888211950039,0.08294186479002422,0.030827585767832847,0.08235237666345177
1.0068268936439042,0.1331160769266914,0.04124330002272465,0.08436945777741765,0.02697016225930326,0.0838478513535428
1.0068739756690346,0.13051634907150206,0.039024084293187634,0.08386978816652868,0.021338305114875507,0.0834485426008453
1.006921057694165,0.12301693370584733,0.034143452247460473,0.08185258015702256,0.01769551562521658,0.08149764234874202
1.0069681397192953,0.11219272060745543,0.028803940740203413,0.07585112215539112,0.01445189363125927,0.07555651924360708
1.0070152217444257,0.09964098937742749,0.024858149893800235,0.06985230351433948,0.011373815756483052,0.06961641562644909
1.007062303769556,0.08648287672211809,0.021761446430484128,0.06302251331950957,0.009222761329752647,0.06282872724160861
1.0071093857946865,0.07315337862299943,0.020215328016777626,0.053521194673379444,0.0069197699751223155,0.053373585959978334
1.0071564678198168,0.05967551136841471,0.020063246096073947,0.042771215350936226,0.00418567145804663,0.04267930858942898
1.0072035498449472,0.046352747241279996,0.017652886675738895,0.029687677967592516,0.0014726073614891148,0.029652258764569412
1.0072506318700776,0.03458526276589038,0.016212312534920625,0.01916866027493343,0.0003160906766180739,0.019158474557043198
1.007297713895208,0.02727830692374265,0.01524663305531103,0.01473006896934623,0.0001389914668995486,0.014724322418174873
1.0073447959203383,0.0280866607277734,0.016649132387184323,0.01711698325886342,-1.2155980902205486e-05,0.017113786700080298
1.0073918779454687,0.03925806445151868,0.02151523949445763,0.028584290137595406,0.0019358939018215874,0.028539832688890952
1.007438959970599,0.059562255279517966,0.027216763463646,0.043832242766228824,0.004681294567890121,0.043730331294452314
1.0074860419957294,0.08449757331606145,0.03207655798746535,0.058037587268334905,0.00917045984386659,0.057845431646240605
1.0075331240208598,0.10858230355013457,0.03498260611360736,0.06858033205585247,0.014966077664347701,0.0682762414564435
1.0075802060459902,0.12742598805780986,0.037270731930349535,0.07621925524513734,0.019106479339124877,0.07583799838155689
1.0076272880711206,0.13840784538629322,0.036940434287957194,0.07904744927672683,0.022480105100510142,0.07860484406861257
1.007674370096251,0.14057521646913557,0.03502730940800168,0.0769603579802706,0.025351193142593535,0.07646557254646577
1.0077214521213813,0.1345761316442056,0.03209123679649749,0.07084930100861353,0.025466758306634977,0.07035101193506865
