freq,gls,usurper,pdc_unbiased,shape_periodogram,shift_periodogram
1.0,0.02176245538732735,0.01751480647156549,-0.007335655112181927,-0.0023686213876993496,-0.007266484628713589
1.0000470820251304,0.05134779247241603,0.026145775915114147,0.016081221596065367,0.0021653780578186573,0.0160143497478953
1.0000941640502607,0.09689124580742478,0.03486696708704252,0.05094334186944231,0.01263512012562278,0.05057503588986025
1.0001412460753911,0.14848755125694818,0.04425105360237354,0.08456655871201842,0.022581515533822396,0.0839293346098705
1.0001883281005215,0.19664060203551523,0.051745600785247044,0.10917973127593883,0.032615002911817736,0.10829730543049354
1.0002354101256519,0.23592916525893703,0.05581693818603273,0.12678225514793529,0.03950724985454781,0.12575010542397339
1.0002824921507822,0.26363730657080775,0.055610077076616464,0.13936052532630389,0.04236537609512434,0.13827659353772015
1.0003295741759126,0.2780607972143743,0.05548061954089986,0.14663287491158739,0.04433793416090756,0.14551472327539242
1.000376656201043,0.27778293516045677,0.05573601245917621,0.14742341655727248,0.045381288156725194,0.1462845351088056
1.0004237382261734,0.2619162710265795,0.05337069775429106,0.139633635428265,0.04597486906811653,0.13847340398784638
1.0004708202513037,0.23107843684954268,0.04827464033823315,0.12167319492364326,0.04511494022574806,0.12051156931297803
1.0005179022764341,0.1884924826566669,0.04156361997118092,0.09811663264576473,0.04317557464879877,0.09697641155157805
1.0005649843015645,0.1401213853463462,0.036956329122472355,0.07552593926328457,0.04059568185476735,0.07443041418417697
1.0006120663266949,0.09311329616242185,0.03437735720365913,0.056936636782797936,0.036350246675480126,0.05593830398854759
1.0006591483518252,0.05338098213176131,0.035216339203615415,0.04656239048066332,0.030081876532480938,0.045725233088253714
1.0007062303769556,0.024158292773911582,0.0358848782012946,0.0379052596807291,0.022260670411503754,0.037277675951994105
1.000753312402086,0.006389706849983347,0.03546382986980901,0.024925530867037873,0.012912051997015757,0.024556610845545782
1.0008003944272164,4.4957735270936574e-05,0.036598921127762925,0.013623927240606612,0.004456104245971285,0.013493986317146222
1.0008474764523467,0.004476680458159687,0.03480999378690103,0.005279248516488982,0.0015740382562811207,0.005233114754722847
1.000894558477477,0.016631009383087918,0.03606488796985731,0.00604487589630294,0.0028362927080903474,0.005963119430007263
1.0009416405026075,0.030279800796216314,0.04210933342442517,0.01614856324889533,0.007316473390773458,0.01593788137621798
1.0009887225277379,0.04019506929021177,0.05094801535416708,0.031662352407458065,0.016361705586568163,0.031196681442600297
1.0010358045528682,0.045271217739530065,0.05879893187511949,0.049643587368788454,0.027319922160908443,0.04888020908633154
1.0010828865779986,0.04665854735345898,0.060147667502338846,0.06394396252727896,0.03865810808522524,0.06288992680017971
1.001129968603129,0.04557434040645729,0.05947047843700889,0.06951556918541625,0.047957721705222514,0.06823332851444036
1.0011770506282593,0.04281463251624272,0.05416286107067707,0.06676401531502141,0.05371025549206995,0.06533781700568533
1.0012241326533897,0.03911406922799136,0.0459799298800719,0.05756222886158259,0.056932797943127604,0.05604395605770007
1.00127121467852,0.035734840091298535,0.03756471400616601,0.04469056838221148,0.058491580295712754,0.04311374665500237
1.0013182967036505,0.034632288517627896,0.03103776357797767,0.03354469161607427,0.05958456249767762,0.03192255113818479
1.0013653787287808,0.03686446430802818,0.032819754559116954,0.03235087082016887,0.06014018025662629,0.0307123486050177
1.0014124607539112,0.040499198873267514,0.03964631415810946,0.04235422606047071,0.060778392064886784,0.04071542353951186
1.0014595427790416,0.04245011553894062,0.04584923139790903,0.05148956578485458,0.05957762349842402,0.0498961112333216
1.001506624804172,0.04142424671447975,0.048664694720048654,0.057489670337512934,0.054282375835572015,0.056037011788418724
1.0015537068293023,0.03772147907862947,0.047999902033915666,0.05838903434484734,0.04667289002268307,0.05712797962218415
1.0016007888544327,0.032149333674356434,0.04642701388937704,0.05286952532393206,0.03615026379050871,0.051874637977724354
1.001647870879563,0.025799799790141527,0.04394026683820789,0.040386054375886556,0.0232862054757798,0.0397305676447066
1.0016949529046935,0.020580986012262138,0.038060782950113274,0.02276083148008517,0.010367760343694715,0.022463049241710758
1.0017420349298238,0.01993155776046648,0.03384444787807272,0.008396000375120035,0.0006346543951001364,0.008374942378064897
1.0017891169549542,0.027489951613850306,0.0334734533760892,0.00883020356959996,-0.0014509695115995243,0.008867372861624456
1.0018361989800846,0.042074300128446054,0.03349277060688446,0.022145335055818467,0.0029063851405604917,0.022055432218749258
1.001883281005215,0.05845891480384451,0.03690257704321444,0.04104344236602053,0.011620871797727304,0.04070555769475977
1.0019303630303453,0.07582159493280267,0.043275357935897665,0.05832937685591873,0.02092597877258267,0.05773622440268516
1.0019774450554757,0.09824195100672209,0.049433436702288114,0.07041397317164165,0.030492738157541787,0.06957117692486181
1.002024527080606,0.1303669711588208,0.048946412120691805,0.07896421651578898,0.03912385701976299,0.07790736977482746
1.0020716091057364,0.17464242099810953,0.04414133525354186,0.08832693698111686,0.04545120420080456,0.08712396189810007
1.0021186911308668,0.22917237164395338,0.04697702597518456,0.11355266104308831,0.04964656336406605,0.11228181170200431
1.0021657731559972,0.2864808872447173,0.05389000531047608,0.14880372324738836,0.05229588430272354,0.14752777139456522
1.0022128551811276,0.335488571803669,0.06053926337072105,0.17945522269565434,0.05379186141534659,0.17820235603494478
1.002259937206258,0.3667004160945303,0.0652069994336788,0.20044309409803335,0.054004947225878425,0.199224278174589
1.0023070192313883,0.37630521047742305,0.06732669897533222,0.20989430295355302,0.052609071135387236,0.20871463935345985
1.0023541012565187,0.3658732131217113,0.06656042430460214,0.20800353236518512,0.04950447431438603,0.20687057597651157
1.002401183281649,0.3393357840705059,0.06359631419514196,0.19716291122807472,0.04430103657220841,0.19610448989906207
1.0024482653067794,0.30043566038503033,0.05873513705782306,0.1783931936762516,0.03690131994413327,0.17745794227476694
1.0024953473319098,0.25183659939415354,0.05201241263691493,0.15384153094853617,0.026343405409336856,0.1531228253540392
1.0025424293570402,0.1956066522565673,0.04302397451578342,0.12081929242955049,0.01507396743311112,0.12037319848535494
1.0025895113821706,0.13475970805500284,0.030442767136719593,0.07564140824241966,0.004504887165972198,0.07548762685305878
1.002636593407301,0.07582916802294695,0.018600844196972156,0.025728531183742454,-0.0024537359748760135,0.025787163325726288
1.0026836754324313,0.03145358980808763,0.019498497953897746,-0.0040036080406334615,-0.003152538170769015,-0.003913790342033228
1.0027307574575617,0.01779891286180085,0.030305780739264494,-0.006351274616742859,0.006222777507892847,-0.006523134907039423
1.002777839482692,0.04358985242398123,0.030862374162354513,0.006591376950054447,0.022718236400169876,0.005954267200573752
1.0028249215078224,0.1037077589167159,0.032470949247523105,0.04281328660270074,0.0363578842474493,0.04180885233423908
1.0028720035329528,0.18101238562213362,0.04118867091127111,0.0979436666785688,0.04598874944397623,0.09673759967138865
1.0029190855580832,0.25636899888384335,0.05661615963144947,0.15380629462607742,0.049732480869117,0.15258801640688546
1.0029661675832136,0.31832235074100634,0.07210920702651616,0.19704252226634572,0.04520898523415513,0.1959676289075919
1.003013249608344,0.36361141655314383,0.07888701978519397,0.228525784613192,0.04288114202189186,0.22753098362896496
1.0030603316334743,0.39341420767750745,0.08263954275424032,0.24979870354304085,0.0414559785497504,0.24885323710335694
1.0031074136586047,0.4102870696014962,0.08310453252015179,0.26258314989231946,0.0391189157702966,0.2616894059649941
1.003154495683735,0.41662904201390033,0.0821065631803875,0.266777273312063,0.03654015615858945,0.2659288736653457
1.0032015777088654,0.41405085665469693,0.07956312667627324,0.26326150551395927,0.033238363857888815,0.26246451358752965
1.0032486597339958,0.4030953535584088,0.07552274680584435,0.251751202986526,0.0290056409835189,0.2510212741609554
1.0032957417591262,0.38301151602067063,0.06994994033048593,0.2324239377319079,0.024007871737518505,0.23178229023137667
1.0033428237842565,0.3514583105172215,0.06255186233504208,0.2047530276495091,0.01813759662814424,0.20423196893967668
1.003389905809387,0.3042863356687068,0.05305993547195379,0.16911475512504195,0.011461858695689105,0.16875382338898687
1.0034369878345173,0.2364892670841809,0.04212712589586787,0.12615890065588273,0.004589904166457936,0.12598606658772946
1.0034840698596477,0.14805992805189566,0.03027121361115837,0.07745804013496241,-0.0017155460869987562,0.07747556998445446
1.003531151884778,0.05937981673678241,0.021723869915257293,0.035632586371168055,-0.005965594754476272,0.03578598440167423
1.0035782339099084,0.016571701488668728,0.019831953561481017,0.012038086514572617,-0.006879063974357677,0.012226224774055878
1.0036253159350388,0.04141534161646615,0.02645000233128401,0.014399178728297872,-0.002282282793206357,0.014457455042096511
1.0036723979601692,0.0978579156313711,0.03604817750828059,0.03595348541122598,0.0055780902495525045,0.03578408087738244
1.0037194799852995,0.14599333246590304,0.04676073514222134,0.06503465797160808,0.015307122225460146,0.0645909081900931
1.00376656201043,0.17300879075255565,0.05405972233100727,0.0922030709843016,0.025920217983852314,0.09148111065087396
1.0038136440355603,0.18229222765708752,0.060748676947366444,0.11374971918924169,0.033447920726091075,0.11284947122755233
1.0038607260606907,0.18262972424027749,0.06534674261953528,0.12736778710133306,0.04097199057835142,0.1263033700376307
1.003907808085821,0.18292620727983336,0.0663288998248178,0.13485525602086357,0.04958197833311086,0.13361377640623193
1.0039548901109514,0.18798821740501145,0.06686291524309121,0.13913083302593265,0.05418966190505226,0.13780204482675595
1.0040019721360818,0.19658928748535154,0.06647513284814623,0.1397247738744464,0.05579078108556706,0.13836533355966443
1.0040490541612122,0.20361099360789395,0.06642327129800536,0.1356935801867525,0.05432516805535973,0.1343564431896631
1.0040961361863425,0.20356945018764083,0.06351791020125482,0.1287855413388881,0.052444890853017664,0.12747599036867915
1.004143218211473,0.19261735903368254,0.055832414288706965,0.11776025800915435,0.04910446212204663,0.11650662514075169
1.0041903002366033,0.1692114287165738,0.046253691161724085,0.09836742477706704,0.044293794225318976,0.09720124596341213
1.0042373822617336,0.13469585530973552,0.03563873535635455,0.07519967777083232,0.038052739074635585,0.07416721635680766
1.004284464286864,0.094068350002802,0.026218138798521022,0.051842634052145065,0.029222810859460463,0.05102911721274407
1.0043315463119944,0.0558705414627791,0.01887227903623954,0.03082107495389939,0.018281071501772005,0.030302917198709346
1.0043786283371248,0.029785725493520713,0.015450091199686837,0.019809015244991575,0.007453425479813789,0.01959322498392425
1.0044257103622551,0.022326134922130727,0.015486344207700835,0.01684685304795892,-0.0014614369122927663,0.01688116999994808
1.0044727923873855,0.03362727707623793,0.017869779668230588,0.01768087969631584,-0.00633345412430596,0.017851557557977384
1.004519874412516,0.057935866130881315,0.02235146132615468,0.0238553638180855,-0.006877540370161985,0.02403898684524166
1.0045669564376463,0.08691312585069338,0.02904435238811177,0.038233159934289905,-0.002692063345145991,0.038293541649391215
1.0046140384627766,0.11302745450084833,0.03665760558442363,0.05542672474865837,0.005879139601397697,0.05524215449412355
1.004661120487907,0.13143773576861661,0.042926166555509106,0.07126698378066398,0.015872050631137228,0.07080700722354237
1.0047082025130374,0.140315951549541,0.0471188159982314,0.0817840112464661,0.02586245254923398,0.08106214509454397
1.0047552845381678,0.14016084842095028,0.047663433213390796,0.0846685751900148,0.03455864745775598,0.08372791609107279
1.0048023665632981,0.13271042804166153,0.0453062506385337,0.08028160564993014,0.0400359623115672,0.07920311177922279
1.0048494485884285,0.1199532079956697,0.04186688506215911,0.06958311394397716,0.04550429687943175,0.06836141667076999
1.0048965306135589,0.10352759540252561,0.036636329451716035,0.05738407400153901,0.049280656245704574,0.056056354438232064
1.0049436126386893,0.08458770500586026,0.029234790827688883,0.04469505929439128,0.05035322417457156,0.0433266505342497
1.0049906946638196,0.06411017510052013,0.02300993030422884,0.03435472552873721,0.04929958698627528,0.03300333881334302
1.00503777668895,0.043500849939608656,0.017255994476268112,0.022887706523455283,0.04560881897900297,0.02162515323128534
1.0050848587140804,0.02497562650004661,0.012979339494808638,0.013888116903115118,0.039201437627147354,0.012795177785642509
1.0051319407392107,0.011013597455985432,0.011689125937202522,0.011624969459267675,0.03117459037698889,0.010752928226963289
1.0051790227643411,0.003334338693202587,0.011017755802549338,0.009001101837417943,0.022506116209166902,0.008369603628889185
1.0052261047894715,0.0027948227754708652,0.008299761006979507,0.005716764128480125,0.01551975805057657,0.005280632666511254
1.0052731868146019,0.010164673003053454,0.00564848094901248,0.005314070387151807,0.008391032515583815,0.005077230303652113
1.0053202688397322,0.026566180290056158,0.004435439088691574,0.008193549268036414,0.0005075000362187704,0.008176129810314589
1.0053673508648626,0.05291846997433676,0.005146547176194385,0.011498759854167706,-0.003488023199222113,0.011591966191620345
1.005414432889993,0.08828034555015178,0.009455443167114554,0.017065936640710815,-0.004574108374872369,0.017187443951942452
1.0054615149151234,0.12763762777320273,0.013560680096757224,0.025647230237824777,-0.003384595495352671,0.025732002103569185
1.0055085969402537,0.16155770115500132,0.01731305273178043,0.038076850744054896,0.0017787161696490147,0.0380123087074967
1.0055556789653841,0.18078890709766565,0.020489769985204572,0.05135766337998839,0.010570484375143784,0.05104561946008541
1.0056027609905145,0.18307418566708303,0.02224823606095182,0.06056084021799014,0.020983997493767677,0.059965993705911796
1.0056498430156449,0.1741533504439713,0.02301094868536502,0.06655908741414072,0.02877562681049796,0.06575979730902771
1.0056969250407752,0.16242605985016223,0.022659351659885564,0.07063087442771013,0.03518405598517855,0.06966836543716162
1.0057440070659056,0.15418810481596457,0.021653931812677038,0.07107575192890922,0.03780460407162946,0.07004723018452096
1.005791089091036,0.1523552110015489,0.019732303425793872,0.0660360559428213,0.03699924748664401,0.06502531110817152
1.0058381711161664,0.15691036178882456,0.018947238682338646,0.06130313889977103,0.03539500686526599,0.06033130497988628
1.0058852531412967,0.16538784679386007,0.020769227973607897,0.06307528196508604,0.03383966678085923,0.062144170876913
1.005932335166427,0.17322460684996496,0.02011896499645453,0.06323184659303546,0.030664797766454453,0.062382849129949
1.0059794171915575,0.17475929729964576,0.01812252192401769,0.05880087400333982,0.026005366764798834,0.05807305984066765
1.0060264992166879,0.16548577922015562,0.016381214775512104,0.05204155960234529,0.020790350249337734,0.051452518113944516
1.0060735812418182,0.1445721481217929,0.01438215526978813,0.04234591607178599,0.01428253845236135,0.04193477330563106
1.0061206632669486,0.11538472372115638,0.012835409921646368,0.03266210113426135,0.006390987392418706,0.03247131147934259
1.006167745292079,0.08342022676517998,0.010497467726569629,0.0259645785337829,-0.0009279580457570555,0.025980372915127038
1.0062148273172093,0.053714935068683495,0.009420410126851252,0.01794830890199036,-0.005950407928743902,0.018108122186913357
1.0062619093423397,0.029620632829972474,0.008257216534725123,0.006428025048282717,-0.008405213408720453,0.006661067129382776
1.00630899136747,0.012907514843990737,0.008533001278482801,-0.004503164505502606,-0.006853918147060863,-0.004309599360160099
1.0063560733926005,0.004292560353454192,0.009558581475814551,-0.010519166817943732,-0.0023760901698250373,-0.010448554146886255
1.0064031554177308,0.0038095921685766332,0.012703764297669623,-0.007972360122875525,0.00315127227262714,-0.00805750028820851
1.0064502374428612,0.010924293923755681,0.01922335945685258,0.0013341291502741227,0.012868090702397745,0.0009733869547833127
1.0064973194679916,0.02453035587728399,0.02423906747465638,0.011333716656649779,0.02276081407657615,0.010694867890940516
1.006544401493122,0.042966387475684646,0.02791829427030368,0.020787738978896356,0.031894698571537136,0.019897228792212465
1.0065914835182523,0.06411092062196938,0.029528578804065043,0.03329944681240632,0.036881303339940705,0.03227734686657681
1.0066385655433827,0.08556714248621351,0.03154482725082214,0.049462130528264495,0.03765507507062155,0.0484265074214282
1.006685647568513,0.10493697207975199,0.03371517454659905,0.06485229624100503,0.0355139672662396,0.06387890130336019
1.0067327295936435,0.12014720761669652,0.03478032085742681,0.07640706666955516,0.03199180972662082,0.07552770552496317
1.0067798116187738,0.12974860817624662,0.03425877886061168,0.08294186479002422,0.027465491568517547,0.0821791851748078
1.0068268936439042,0.1331160769266914,0.03520900479853373,0.08436945777741765,0.02207575757574784,0.08374530506821279
1.0068739756690346,0.13051634907150206,0.03306359245765956,0.08386978816652868,0.01686519517474504,0.08338163851298186
1.006921057694165,0.12301693370584733,0.02827506090909803,0.08185258015702256,0.01302132757019594,0.08146661259702952
1.0069681397192953,0.11219272060745543,0.022497896423404655,0.07585112215539112,0.008970460767765446,0.07557556519308506
1.0070152217444257,0.09964098937742749,0.017905874108803548,0.06985230351433948,0.0052788658749154255,0.0696792882865061
1.007062303769556,0.08648287672211809,0.014322493168337351,0.06302251331950957,0.0025284190250320256,0.06292772893929181
1.0071093857946865,0.07315337862299943,0.012822131489378635,0.053521194673379444,0.0004235811957994501,0.053488466617830174
1.0071564678198168,0.05967551136841471,0.011805408350533538,0.042771215350936226,-0.0015698562504776708,0.042798364255599054
1.0072035498449472,0.046352747241279996,0.008907344826484868,0.029687677967592516,-0.0035752340436063226,0.029776211104345803
1.0072506318700776,0.03458526276589038,0.0072059789221286565,0.01916866027493343,-0.004263615710549641,0.019280635955513766
1.007297713895208,0.02727830692374265,0.006497374206943562,0.01473006896934623,-0.004699644027545841,0.014856003756951312
1.0073447959203383,0.0280866607277734,0.008041598873394434,0.01711698325886342,-0.004106218301321179,0.017225340798176864
1.0073918779454687,0.03925806445151868,0.012915648574406465,0.028584290137595406,-0.0016370817591477196,0.028618912049545274
1.007438959970599,0.059562255279517966,0.01885443676868478,0.043832242766228824,0.0019386297291937142,0.04376104813838482
1.0074860419957294,0.08449757331606145,0.02385675444989749,0.058037587268334905,0.005797290659919873,0.057854373532264615
1.0075331240208598,0.10858230355013457,0.02690655727896828,0.06858033205585247,0.010557171478228685,0.06826383372853347
1.0075802060459902,0.12742598805780986,0.029738379738766915,0.07621925524513734,0.013834069890552685,0.07581276268907902
1.0076272880711206,0.13840784538629322,0.030056203653567676,0.07904744927672683,0.015981095197057142,0.07858332242163256
1.007674370096251,0.14057521646913557,0.02844556645936982,0.0769603579802706,0.018219012353019707,0.07643734473362447
1.0077214521213813,0.1345761316442056,0.026657568706810932,0.07084930100861353,0.018993268817917897,0.07030644653772196
