freq,gls,usurper,pdc_unbiased,shape_periodogram,shift_periodogram
1.0,0.02176245538732735,0.015520139491505465,-0.007335655112181927,-0.0035700618806483674,-0.007229417080201852
1.0000470820251304,0.05134779247241603,0.024819211618820284,0.016081221596065367,0.0009247387766761345,0.01604777887680711
1.0000941640502607,0.09689124580742478,0.03484261517268296,0.05094334186944231,0.012208376654297437,0.05057422443011357
1.0001412460753911,0.14848755125694818,0.04583223667108162,0.08456655871201842,0.02381723911217153,0.08387373209407924
1.0001883281005215,0.19664060203551523,0.05513540611840387,0.10917973127593883,0.035492423740713853,0.1081938749053059
1.0002354101256519,0.23592916525893703,0.06072813576505099,0.12678225514793529,0.04361559388401443,0.12561661122289747
1.0002824921507822,0.26363730657080775,0.06174599109361676,0.13936052532630389,0.04708804007958306,0.13813124825717113
1.0003295741759126,0.2780607972143743,0.06260740951320815,0.14663287491158739,0.04942863438635082,0.14536301091763557
1.000376656201043,0.27778293516045677,0.06347292158986817,0.14742341655727248,0.05083418281990419,0.14612534789730486
1.0004237382261734,0.2619162710265795,0.06144653439520313,0.139633635428265,0.05172109417235286,0.13830553625879194
1.0004708202513037,0.23107843684954268,0.05655060882692467,0.12167319492364326,0.05110420355872086,0.12033268208885503
1.0005179022764341,0.1884924826566669,0.050020626722432224,0.09811663264576473,0.04934854648605824,0.09678619696350599
1.0005649843015645,0.1401213853463462,0.04543434031296582,0.07552593926328457,0.047076045901478056,0.07422663210574745
1.0006120663266949,0.09311329616242185,0.042632668019451175,0.056936636782797936,0.04306436982315947,0.05572518784661316
1.0006591483518252,0.05338098213176131,0.04326738750190801,0.04656239048066332,0.036806326281895986,0.045512892971415836
1.0007062303769556,0.024158292773911582,0.04354949810847737,0.0379052596807291,0.028607812347130005,0.03707915994767239
1.000753312402086,0.006389706849983347,0.0424046089167158,0.024925530867037873,0.018833459515482043,0.024375378608307515
1.0008003944272164,4.4957735270936574e-05,0.04270106673260735,0.013623927240606612,0.009775829528271293,0.013336286149774326
1.0008474764523467,0.004476680458159687,0.04005721088446881,0.005279248516488982,0.006270363196629619,0.005095846381054321
1.000894558477477,0.016631009383087918,0.04056593085613411,0.00604487589630294,0.006701449902500745,0.005848723272768
1.0009416405026075,0.030279800796216314,0.04604101102032608,0.01614856324889533,0.010282200572377663,0.01584546333209921
1.0009887225277379,0.04019506929021177,0.054356371297436416,0.031662352407458065,0.018551478424396896,0.031118869097518924
1.0010358045528682,0.045271217739530065,0.0615880629254394,0.049643587368788454,0.028885564217492422,0.048811030713556705
1.0010828865779986,0.04665854735345898,0.06250519694433093,0.06394396252727896,0.039751080348036164,0.06282433784981678
1.001129968603129,0.04557434040645729,0.061311804151095356,0.06951556918541625,0.04850700394414458,0.06817392773885315
1.0011770506282593,0.04281463251624272,0.05535580878982149,0.06676401531502141,0.053539430752331786,0.06529151791727932
1.0012241326533897,0.03911406922799136,0.04691073288572432,0.05756222886158259,0.056332476750934175,0.05600594622328207
1.00127121467852,0.035734840091298535,0.03866626172689939,0.04469056838221148,0.05783154937786245,0.043076548452960155
1.0013182967036505,0.034632288517627896,0.032348676166293444,0.03354469161607427,0.05939817220115121,0.0318722003005968
1.0013653787287808,0.03686446430802818,0.034283740286298936,0.03235087082016887,0.06063970666477933,0.030642953669995813
1.0014124607539112,0.040499198873267514,0.04154147163894221,0.04235422606047071,0.062203593979905304,0.04062114914440991
1.0014595427790416,0.04245011553894062,0.048343569609868395,0.05148956578485458,0.06212268985629577,0.04977465694540958
1.001506624804172,0.04142424671447975,0.052061871128494794,0.057489670337512934,0.05779412131739364,0.055895814723232774
1.0015537068293023,0.03772147907862947,0.05228205782958805,0.05838903434484734,0.05096598422921018,0.0569722030983694
1.0016007888544327,0.032149333674356434,0.051252991737147084,0.05286952532393206,0.04100526727061762,0.05171007755938078
1.001647870879563,0.025799799790141527,0.04882501307190162,0.040386054375886556,0.02842686579079667,0.03956518900823917
1.0016949529046935,0.020580986012262138,0.04275940278996672,0.02276083148008517,0.015571353991553025,0.022304132579347016
1.0017420349298238,0.01993155776046648,0.03844642515661383,0.008396000375120035,0.006028018491725948,0.008218362351961172
1.0017891169549542,0.027489951613850306,0.03802331763530677,0.00883020356959996,0.004153994356654066,0.008706491537898627
1.0018361989800846,0.042074300128446054,0.03843204627972138,0.022145335055818467,0.008545051310541112,0.021889985781278418
1.001883281005215,0.05845891480384451,0.042280344147853574,0.04104344236602053,0.017307233368148885,0.040533195156566296
1.0019303630303453,0.07582159493280267,0.04875393576419002,0.05832937685591873,0.026567189854039424,0.0575610162957928
1.0019774450554757,0.09824195100672209,0.05499993758646848,0.07041397317164165,0.03603004471818053,0.06939535962927547
1.002024527080606,0.1303669711588208,0.05437042406352047,0.07896421651578898,0.04459908824312292,0.07773057786374231
1.0020716091057364,0.17464242099810953,0.04940296015618702,0.08832693698111686,0.050787450247788773,0.08695003866659366
1.0021186911308668,0.22917237164395338,0.05186733999394242,0.11355266104308831,0.05464996844552818,0.1121211181909007
1.0021657731559972,0.2864808872447173,0.05830407500196613,0.14880372324738836,0.05705629676486824,0.14738190317109265
1.0022128551811276,0.335488571803669,0.06440323305636642,0.17945522269565434,0.05834057642009752,0.1780694889684836
1.002259937206258,0.3667004160945303,0.068417789720535,0.20044309409803335,0.058110081485425895,0.1991049697314101
1.0023070192313883,0.37630521047742305,0.069840400731228,0.20989430295355302,0.05622737135189674,0.20860573047500403
1.0023541012565187,0.3658732131217113,0.06836476990820425,0.20800353236518512,0.05267952613168829,0.2067690318406088
1.002401183281649,0.3393357840705059,0.06452769609139983,0.19716291122807472,0.04696942518065842,0.1960114808148971
1.0024482653067794,0.30043566038503033,0.059058938869324056,0.1783931936762516,0.03882990391601012,0.17738062238816538
1.0024953473319098,0.25183659939415354,0.051945814421102986,0.15384153094853617,0.027638569722137036,0.1530647272399122
1.0025424293570402,0.1956066522565673,0.042345017975730356,0.12081929242955049,0.015812775407253222,0.1203370585152834
1.0025895113821706,0.13475970805500284,0.029355756365533944,0.07564140824241966,0.004668413958699229,0.07547695147813964
1.002636593407301,0.07582916802294695,0.017167967435247733,0.025728531183742454,-0.0022551418407547852,0.025782987396156268
1.0026836754324313,0.03145358980808763,0.018155223823298754,-0.0040036080406334615,-0.0022091580959730387,-0.0039380692698133424
1.0027307574575617,0.01779891286180085,0.030040121519562164,-0.006351274616742859,0.008537646487505234,-0.0065957031722006
1.002777839482692,0.04358985242398123,0.03218785824930412,0.006591376950054447,0.02619672652225762,0.005833209998822349
1.0028249215078224,0.1037077589167159,0.03514041409608988,0.04281328660270074,0.040093839425343274,0.04167268668868673
1.0028720035329528,0.18101238562213362,0.04389344276747439,0.0979436666785688,0.04911859615252895,0.096618502144077
1.0029190855580832,0.25636899888384335,0.058750867288782975,0.15380629462607742,0.051994721374879815,0.1524940975375608
1.0029661675832136,0.31832235074100634,0.073535757976971,0.19704252226634572,0.04720954668111404,0.19588650439264577
1.003013249608344,0.36361141655314383,0.07976847441146473,0.228525784613192,0.04432131847655627,0.22746416772973577
1.0030603316334743,0.39341420767750745,0.08321698193458714,0.24979870354304085,0.04243012650125395,0.2487965862612148
1.0031074136586047,0.4102870696014962,0.08359715026609074,0.26258314989231946,0.0397399045400011,0.2616406576492967
1.003154495683735,0.41662904201390033,0.08256028785807262,0.266777273312063,0.03686830943692891,0.2658869264216052
1.0032015777088654,0.41405085665469693,0.07994775683682305,0.26326150551395927,0.03327695382695501,0.26243010619253027
1.0032486597339958,0.4030953535584088,0.07582193359670827,0.251751202986526,0.028802457238994716,0.25099500359498217
1.0032957417591262,0.38301151602067063,0.07016559588435878,0.2324239377319079,0.02360696945100557,0.23176492045029143
1.0033428237842565,0.3514583105172215,0.06263049613231515,0.2047530276495091,0.01748392680443001,0.20422674713616415
1.003389905809387,0.3042863356687068,0.05292938782660514,0.16911475512504195,0.010555237759246255,0.16876297248079827
1.0034369878345173,0.2364892670841809,0.04171984857189894,0.12615890065588273,0.0034748465877432184,0.1260096539754098
1.0034840698596477,0.14805992805189566,0.029511792160877924,0.07745804013496241,-0.002888616813035975,0.07750894163418348
1.003531151884778,0.05937981673678241,0.02078513509163243,0.035632586371168055,-0.006989258172549432,0.03582028306366376
1.0035782339099084,0.016571701488668728,0.018683397519003674,0.012038086514572617,-0.007484702019380674,0.012249763349638367
1.0036253159350388,0.04141534161646615,0.024999414864193607,0.014399178728297872,-0.0023611302102570855,0.014461448781942964
1.0036723979601692,0.0978579156313711,0.034875451756595094,0.03595348541122598,0.005796449955168595,0.03577179625359125
1.0037194799852995,0.14599333246590304,0.04605336079643597,0.06503465797160808,0.01567549335417658,0.06456508786724417
1.00376656201043,0.17300879075255565,0.05341522145466597,0.0922030709843016,0.026004050455388845,0.09145311300582029
1.0038136440355603,0.18229222765708752,0.059825336661077345,0.11374971918924169,0.03284944382284165,0.1128312895795236
1.0038607260606907,0.18262972424027749,0.0640153132103684,0.12736778710133306,0.039741430759274804,0.12629207022159317
1.003907808085821,0.18292620727983336,0.06455680511791843,0.13485525602086357,0.047613981760255816,0.1336090006184201
1.0039548901109514,0.18798821740501145,0.06477079778608943,0.13913083302593265,0.05174064090100477,0.1378015738930902
1.0040019721360818,0.19658928748535154,0.06439736420153296,0.1397247738744464,0.05318415421858635,0.13836610463443494
1.0040490541612122,0.20361099360789395,0.0646252246457786,0.1356935801867525,0.05194930884463353,0.1343547862702768
1.0040961361863425,0.20356945018764083,0.062046424427555064,0.1287855413388881,0.05041143909285658,0.12747011541706613
1.004143218211473,0.19261735903368254,0.054741263502247825,0.11776025800915435,0.04727981296500841,0.11650116171617549
1.0041903002366033,0.1692114287165738,0.0456457610558465,0.09836742477706704,0.042875167603320406,0.09719324003401754
1.0042373822617336,0.13469585530973552,0.03562758756518745,0.07519967777083232,0.03698882535547909,0.0741583066789216
1.004284464286864,0.094068350002802,0.026652593663478778,0.051842634052145065,0.028387559171648136,0.051023975518197845
1.0043315463119944,0.0558705414627791,0.019537807231524526,0.03082107495389939,0.01791932855103568,0.03029566319927878
1.0043786283371248,0.029785725493520713,0.016223495846916944,0.019809015244991575,0.007785546756764448,0.019576347548352857
1.0044257103622551,0.022326134922130727,0.016563808357875805,0.01684685304795892,-0.0001819594165631238,0.01684507058469538
1.0044727923873855,0.03362727707623793,0.019457751391111555,0.01768087969631584,-0.00389138240840626,0.017786087302442282
1.004519874412516,0.057935866130881315,0.024363908570406646,0.0238553638180855,-0.003453633559160304,0.02394531170438986
1.0045669564376463,0.08691312585069338,0.031250692210172834,0.038233159934289905,0.001137709993894429,0.03818439861616448
1.0046140384627766,0.11302745450084833,0.03910611221967534,0.05542672474865837,0.010033800988315501,0.055117596729875984
1.004661120487907,0.13143773576861661,0.0455786107056978,0.07126698378066398,0.02024839729122665,0.07067070366688732
1.0047082025130374,0.140315951549541,0.04976283810383575,0.0817840112464661,0.030371431239893127,0.08091766073711099
1.0047552845381678,0.14016084842095028,0.050222151597124134,0.0846685751900148,0.03898785066686594,0.08358116339219866
1.0048023665632981,0.13271042804166153,0.04786339042466431,0.08028160564993014,0.044485253714636214,0.07905198027774588
1.0048494485884285,0.1199532079956697,0.04437740798326171,0.06958311394397716,0.0498824594977373,0.06820660800121277
1.0048965306135589,0.10352759540252561,0.03925226650971202,0.05738407400153901,0.053272848721697824,0.05590635421850031
1.0049436126386893,0.08458770500586026,0.032175103879985255,0.04469505929439128,0.054314156661820726,0.04317410781455477
1.0049906946638196,0.06411017510052013,0.02631822417385769,0.03435472552873721,0.05302039144229829,0.03285609404370381
1.00503777668895,0.043500849939608656,0.02048149346620538,0.022887706523455283,0.04886835969974424,0.021491861691251033
1.0050848587140804,0.02497562650004661,0.01577703862463542,0.013888116903115118,0.04220742099898893,0.012673532949358059
1.0051319407392107,0.011013597455985432,0.01388600150040078,0.011624969459267675,0.03386992442767743,0.010647078705866515
1.0051790227643411,0.003334338693202587,0.012473493445419452,0.009001101837417943,0.02455792087845673,0.008289846135403227
1.0052261047894715,0.0027948227754708652,0.009068808397990692,0.005716764128480125,0.016882105071787598,0.005227008575869313
1.0052731868146019,0.010164673003053454,0.0061122979160428545,0.005314070387151807,0.009649086184542893,0.005033098691472209
1.0053202688397322,0.026566180290056158,0.0051484429965166474,0.008193549268036414,0.002026087675308011,0.008131563629073886
1.0053673508648626,0.05291846997433676,0.0064857956565492,0.011498759854167706,-0.001354457956437585,0.011533118665294844
1.005414432889993,0.08828034555015178,0.010979874404568898,0.017065936640710815,-0.002186994459921975,0.017122051797106234
1.0054615149151234,0.12763762777320273,0.015061584382919008,0.025647230237824777,-0.001042710035266035,0.02566664741835381
1.0055085969402537,0.16155770115500132,0.018843513803917567,0.038076850744054896,0.0039408072562442265,0.03794754958006159
1.0055556789653841,0.18078890709766565,0.022208446067223213,0.05135766337998839,0.01258367413128392,0.05097785365348021
1.0056027609905145,0.18307418566708303,0.023978201696733637,0.06056084021799014,0.022856008911281065,0.059893929841441
1.0056498430156449,0.1741533504439713,0.02481509201839286,0.06655908741414072,0.03051102532207356,0.06568540440938973
1.0056969250407752,0.16242605985016223,0.02462502207990175,0.07063087442771013,0.036700862014633094,0.06959478157401945
1.0057440070659056,0.15418810481596457,0.023588546161028134,0.07107575192890922,0.039054618332478204,0.06997848487435648
1.005791089091036,0.1523552110015489,0.02150874017486049,0.0660360559428213,0.038225077597351005,0.06495768994993194
1.0058381711161664,0.15691036178882456,0.020268699570586676,0.06130313889977103,0.03672747619668696,0.060262042821233444
1.0058852531412967,0.16538784679386007,0.021656989874726747,0.06307528196508604,0.0350403087711455,0.062079768875334534
1.005932335166427,0.17322460684996496,0.020285795119612992,0.06323184659303546,0.03168646709184774,0.062325907665935466
1.0059794171915575,0.17475929729964576,0.01777541268186833,0.05880087400333982,0.026909460392019822,0.05802322576531399
1.0060264992166879,0.16548577922015562,0.01567962084692825,0.05204155960234529,0.021748041014429193,0.05140567933574831
1.0060735812418182,0.1445721481217929,0.01342516782773765,0.04234591607178599,0.015265620786039288,0.04189289643360216
1.0061206632669486,0.11538472372115638,0.011821773779511366,0.03266210113426135,0.007567914718091375,0.03243091471778937
1.006167745292079,0.08342022676517998,0.009933757582752821,0.0259645785337829,0.0010123797721542608,0.025924500677430434
1.0062148273172093,0.053714935068683495,0.009681786852962561,0.01794830890199036,-0.003087918769600304,0.0180301343472519
1.0062619093423397,0.029620632829972474,0.009343820791843628,0.006428025048282717,-0.004689065527410585,0.00656098163298884
1.00630899136747,0.012907514843990737,0.010101355470342346,-0.004503164505502606,-0.0025403846498182913,-0.004427845099363237
1.0063560733926005,0.004292560353454192,0.011358887965820474,-0.010519166817943732,0.0019687600931924667,-0.010571705297806223
1.0064031554177308,0.0038095921685766332,0.01444899727656811,-0.007972360122875525,0.006782105894221802,-0.008165294752127265
1.0064502374428612,0.010924293923755681,0.020553656077291694,0.0013341291502741227,0.015338064710731321,0.0008901893045580551
1.0064973194679916,0.02453035587728399,0.025014390733230193,0.011333716656649779,0.02401469650829358,0.010637806492347173
1.006544401493122,0.042966387475684646,0.02806008422280689,0.020787738978896356,0.03209181819476862,0.019861943499085072
1.0065914835182523,0.06411092062196938,0.028985297182415774,0.03329944681240632,0.03626644901285382,0.032259812810372115
1.0066385655433827,0.08556714248621351,0.03054483010368011,0.049462130528264495,0.036436427605979815,0.048423830038020206
1.006685647568513,0.10493697207975199,0.03214404823202027,0.06485229624100503,0.03366412614008648,0.06389403014784922
1.0067327295936435,0.12014720761669652,0.032674623992863916,0.07640706666955516,0.029500626824687414,0.07556239103306726
1.0067798116187738,0.12974860817624662,0.031748040483702826,0.08294186479002422,0.02449067233547435,0.08223102227426579
1.0068268936439042,0.1331160769266914,0.032335844064752255,0.08436945777741765,0.018789619590567023,0.08381158836863106
1.0068739756690346,0.13051634907150206,0.029861441847650817,0.08386978816652868,0.013288592609399288,0.08346208318462935
1.006921057694165,0.12301693370584733,0.02476317522668096,0.08185258015702256,0.009297240721333557,0.08155595195278818
1.0069681397192953,0.11219272060745543,0.018829364792825688,0.07585112215539112,0.005381655001902697,0.07566641141210659
1.0070152217444257,0.09964098937742749,0.014369689448529573,0.06985230351433948,0.0022163049359527447,0.06975979600209338
1.007062303769556,0.08648287672211809,0.011175942003714218,0.06302251331950957,0.0002563161373573313,0.0629889030073024
1.0071093857946865,0.07315337862299943,0.010322940848869139,0.053521194673379444,-0.0008745162083872868,0.05352407919401204
1.0071564678198168,0.05967551136841471,0.010118216927593406,0.042771215350936226,-0.0019151363120669031,0.0428086663088924
1.0072035498449472,0.046352747241279996,0.008079514391235327,0.029687677967592516,-0.0027628037217236746,0.02975516830113457
1.0072506318700776,0.03458526276589038,0.007155117684147414,0.01916866027493343,-0.0023390718364363445,0.01922829631366736
1.007297713895208,0.02727830692374265,0.007046656340198284,0.01473006896934623,-0.0020340631104735856,0.014782736272660737
1.0073447959203383,0.0280866607277734,0.009032003094274784,0.01711698325886342,-0.0009102242223363823,0.017136142614819574
1.0073918779454687,0.03925806445151868,0.014401530425321343,0.028584290137595406,0.0020419612447583387,0.028513438631255047
1.007438959970599,0.059562255279517966,0.020610793194295596,0.043832242766228824,0.005547195691980833,0.04365468929203393
1.0074860419957294,0.08449757331606145,0.02578856466190234,0.058037587268334905,0.009322691883721496,0.05774769987922609
1.0075331240208598,0.10858230355013457,0.0291048283079597,0.06858033205585247,0.013812505533274158,0.06816168385390022
1.0075802060459902,0.12742598805780986,0.03200006460170847,0.07621925524513734,0.0169195289144419,0.07571336071465642
1.0076272880711206,0.13840784538629322,0.032297483165411034,0.07904744927672683,0.01874303387697783,0.07849140260607501
1.007674370096251,0.14057521646913557,0.030512080707101513,0.0769603579802706,0.020402582666790618,0.07635943844023257
1.0077214521213813,0.1345761316442056,0.028331912940226713,0.07084930100861353,0.020379432450960553,0.07024948140173555
