freq,gls,usurper,pdc_unbiased,shape_periodogram,shift_periodogram
1.0,0.02176245538732735,0.014191028404722906,-0.007335655112181927,-0.006509207206672342,-0.007287799728330827
1.0000470820251304,0.05134779247241603,0.01798181159921914,0.016081221596065367,-0.008345743839179545,0.01614263261100914
1.0000941640502607,0.09689124580742478,0.0192440425088719,0.05094334186944231,-0.004578695227814278,0.05097600738419666
1.0001412460753911,0.14848755125694818,0.018206517624296207,0.08456655871201842,0.0012199235439544934,0.08455549035712397
1.0001883281005215,0.19664060203551523,0.018830636996313606,0.10917973127593883,0.009686023110934026,0.10911199360246658
1.0002354101256519,0.23592916525893703,0.02086736461604844,0.12678225514793529,0.01634476525135685,0.12667835430412647
1.0002824921507822,0.26363730657080775,0.02189557801104922,0.13936052532630389,0.019414237797406014,0.13924408937599048
1.0003295741759126,0.2780607972143743,0.02325438409103189,0.14663287491158739,0.021199482837381586,0.14651048478656556
1.000376656201043,0.27778293516045677,0.02413493170750288,0.14742341655727248,0.022556696258692954,0.1472958578014522
1.0004237382261734,0.2619162710265795,0.02312876375325187,0.139633635428265,0.023453742913361202,0.13950028837435377
1.0004708202513037,0.23107843684954268,0.02076933407820099,0.12167319492364326,0.02266198696959966,0.1215379188976963
1.0005179022764341,0.1884924826566669,0.017312424305525004,0.09811663264576473,0.020663250869371364,0.09798512454309861
1.0005649843015645,0.1401213853463462,0.015777404059859203,0.07552593926328457,0.01815123405039194,0.0754040659606643
1.0006120663266949,0.09311329616242185,0.014722472338601423,0.056936636782797936,0.01517527015419317,0.05683069374721709
1.0006591483518252,0.05338098213176131,0.015502791331198116,0.04656239048066332,0.012507932443962564,0.04647318110533501
1.0007062303769556,0.024158292773911582,0.0166269664499449,0.0379052596807291,0.009466034759945702,0.037836544636337316
1.000753312402086,0.006389706849983347,0.018546065911636628,0.024925530867037873,0.004710781204077399,0.024890562258922624
1.0008003944272164,4.4957735270936574e-05,0.02083836032512534,0.013623927240606612,0.0012703863073116651,0.013614241226636913
1.0008474764523467,0.004476680458159687,0.018520183452556627,0.005279248516488982,0.00030419353610800724,0.005276871856304806
1.000894558477477,0.016631009383087918,0.020773754971539354,0.00604487589630294,0.0012276722744637085,0.006035699544466493
1.0009416405026075,0.030279800796216314,0.026677665154747454,0.01614856324889533,0.0036628534851271388,0.01612133949135316
1.0009887225277379,0.04019506929021177,0.034687137948741904,0.031662352407458065,0.010918621945436508,0.031583293439018376
1.0010358045528682,0.045271217739530065,0.038943051063154197,0.049643587368788454,0.019617274442581743,0.04950818028296047
1.0010828865779986,0.04665854735345898,0.04051814486037128,0.06394396252727896,0.029089164665892144,0.06375673528567645
1.001129968603129,0.04557434040645729,0.04239796658602333,0.06951556918541625,0.036201910189386705,0.06929489178097317
1.0011770506282593,0.04281463251624272,0.04173586760025936,0.06676401531502141,0.039661295131268634,0.06652492484553722
1.0012241326533897,0.03911406922799136,0.03896925125609324,0.05756222886158259,0.039800674195500374,0.057315020625078504
1.00127121467852,0.035734840091298535,0.0360993964190374,0.04469056838221148,0.03801963656265197,0.04444297853537467
1.0013182967036505,0.034632288517627896,0.03264782208745427,0.03354469161607427,0.03639608607992452,0.033298912736746844
1.0013653787287808,0.03686446430802818,0.02952823656924301,0.03235087082016887,0.03493344371635873,0.03211336290691465
1.0014124607539112,0.040499198873267514,0.028651409228526246,0.04235422606047071,0.0354949663953837,0.04211953581349001
1.0014595427790416,0.04245011553894062,0.02860114037982225,0.05148956578485458,0.0369827739283019,0.05125255377747407
1.001506624804172,0.04142424671447975,0.027735286454940083,0.057489670337512934,0.03520338276333222,0.05726617964580851
1.0015537068293023,0.03772147907862947,0.028132494630295175,0.05838903434484734,0.03102359628217829,0.058188643552321125
1.0016007888544327,0.032149333674356434,0.02770547217197089,0.05286952532393206,0.02509087449699999,0.052701104041288145
1.001647870879563,0.025799799790141527,0.02604944477996621,0.040386054375886556,0.01627450513357511,0.04027103262100968
1.0016949529046935,0.020580986012262138,0.022042504071800695,0.02276083148008517,0.0075955613219142164,0.022705119670502573
1.0017420349298238,0.01993155776046648,0.0211911826958407,0.008396000375120035,0.0015862799882801308,0.008384133053385832
1.0017891169549542,0.027489951613850306,0.020208753816632775,0.00883020356959996,0.0009359080342774122,0.00882309496216298
1.0018361989800846,0.042074300128446054,0.017839701138461804,0.022145335055818467,0.004313502713552135,0.02211328037431981
1.001883281005215,0.05845891480384451,0.01888412015774592,0.04104344236602053,0.010605936836465133,0.040966923862032364
1.0019303630303453,0.07582159493280267,0.02314525072838347,0.05832937685591873,0.016582346877515183,0.05821459390643314
1.0019774450554757,0.09824195100672209,0.02678581804749473,0.07041397317164165,0.022123477229855772,0.07026788469774363
1.002024527080606,0.1303669711588208,0.024682344448157093,0.07896421651578898,0.027848627039068964,0.07878980157185027
1.0020716091057364,0.17464242099810953,0.01944412546530348,0.08832693698111686,0.03208541405151809,0.08813664969768609
1.0021186911308668,0.22917237164395338,0.018640660862063438,0.11355266104308831,0.036250411081339556,0.11336202024245036
1.0021657731559972,0.2864808872447173,0.020638496771179914,0.14880372324738836,0.04004320343017178,0.14863192225768188
1.0022128551811276,0.335488571803669,0.022904735997196623,0.17945522269565434,0.04386550698343735,0.17931077460741363
1.002259937206258,0.3667004160945303,0.02432958970424524,0.20044309409803335,0.046428926470187815,0.20032453127914446
1.0023070192313883,0.37630521047742305,0.024831771603445015,0.20989430295355302,0.04756571785698543,0.2097893005102225
1.0023541012565187,0.3658732131217113,0.024436612570393743,0.20800353236518512,0.04745665171860541,0.20789602440037722
1.002401183281649,0.3393357840705059,0.024035669392013737,0.19716291122807472,0.0463053839652634,0.19704041927697227
1.0024482653067794,0.30043566038503033,0.024906353728844872,0.1783931936762516,0.041666391875580265,0.17824680952999944
1.0024953473319098,0.25183659939415354,0.026657173946034635,0.15384153094853617,0.03200632943054296,0.15368752998779348
1.0025424293570402,0.1956066522565673,0.02583849159366832,0.12081929242955049,0.019742028098868353,0.12069739849115488
1.0025895113821706,0.13475970805500284,0.023854113853906258,0.07564140824241966,0.006249721301400132,0.07559533059498394
1.002636593407301,0.07582916802294695,0.02410917473411229,0.025728531183742454,-0.003369524497057572,0.025752710996705758
1.0026836754324313,0.03145358980808763,0.02492256208610264,-0.0040036080406334615,-0.0034501564920744895,-0.003978179955329388
1.0027307574575617,0.01779891286180085,0.027188507542014035,-0.006351274616742859,0.006590737818791255,-0.00639965389757437
1.002777839482692,0.04358985242398123,0.023307809168618906,0.006591376950054447,0.02029008447338597,0.006443487034691457
1.0028249215078224,0.1037077589167159,0.0236169670827174,0.04281328660270074,0.03305170367575012,0.04259323292648526
1.0028720035329528,0.18101238562213362,0.02654320023587377,0.0979436666785688,0.044961018227099435,0.0977133688020638
1.0029190855580832,0.25636899888384335,0.032793776516813526,0.15380629462607742,0.049754460359276005,0.15363541342107045
1.0029661675832136,0.31832235074100634,0.041713384223960454,0.19704252226634572,0.04575366108809413,0.19691890153560682
1.003013249608344,0.36361141655314383,0.04492116743492424,0.228525784613192,0.04387424144056865,0.2284310310967122
1.0030603316334743,0.39341420767750745,0.04535172117918614,0.24979870354304085,0.042289968506472465,0.2497198043343736
1.0031074136586047,0.4102870696014962,0.043617940019022264,0.26258314989231946,0.03961772795786625,0.2625069770199309
1.003154495683735,0.41662904201390033,0.04169680299362344,0.266777273312063,0.036561038333750066,0.26669578080146283
1.0032015777088654,0.41405085665469693,0.03942910532506113,0.26326150551395927,0.03277850349597812,0.26317031084113773
1.0032486597339958,0.4030953535584088,0.03668158600832045,0.251751202986526,0.028385926301451977,0.2516508000741103
1.0032957417591262,0.38301151602067063,0.03331990181090105,0.2324239377319079,0.02300615716675304,0.23232067591240005
1.0033428237842565,0.3514583105172215,0.029398217111548972,0.2047530276495091,0.016895351824522165,0.2046593307175302
1.003389905809387,0.3042863356687068,0.02461615267783795,0.16911475512504195,0.010143957906007675,0.1690474280916792
1.0034369878345173,0.2364892670841809,0.0195514582218806,0.12615890065588273,0.003302068788014331,0.12613254776991195
1.0034840698596477,0.14805992805189566,0.014303192785686049,0.07745804013496241,-0.00315988267091384,0.07747935065693544
1.003531151884778,0.05937981673678241,0.011572088022717815,0.035632586371168055,-0.006949606276244775,0.035683440264971604
1.0035782339099084,0.016571701488668728,0.012297971559023064,0.012038086514572617,-0.007572366797710726,0.01209372180416602
1.0036253159350388,0.04141534161646615,0.01839814753548529,0.014399178728297872,-0.00018809371944320333,0.014400171836460855
1.0036723979601692,0.0978579156313711,0.02870137844075412,0.03595348541122598,0.010681702649232397,0.03587624626346178
1.0037194799852995,0.14599333246590304,0.040548984366087865,0.06503465797160808,0.02057296064702277,0.0648964174402603
1.00376656201043,0.17300879075255565,0.048061368075911944,0.0922030709843016,0.02971939178127852,0.09202536678386235
1.0038136440355603,0.18229222765708752,0.053977927589263244,0.11374971918924169,0.03521815259565616,0.11356251681795783
1.0038607260606907,0.18262972424027749,0.05518158221636647,0.12736778710133306,0.03964942718672214,0.12717858088804432
1.003907808085821,0.18292620727983336,0.05401594196262166,0.13485525602086357,0.04509179244362814,0.13466391211770004
1.0039548901109514,0.18798821740501145,0.05441454681391228,0.13913083302593265,0.046813118660442334,0.13894257336032598
1.0040019721360818,0.19658928748535154,0.056051206472834,0.1397247738744464,0.045865335795779255,0.13953794283526988
1.0040490541612122,0.20361099360789395,0.055572764413044144,0.1356935801867525,0.04237303392591864,0.13550673032441699
1.0040961361863425,0.20356945018764083,0.051371907147687294,0.1287855413388881,0.03822009921439104,0.1286007161135222
1.004143218211473,0.19261735903368254,0.04517775682014976,0.11776025800915435,0.034417159753500605,0.11757822740448465
1.0041903002366033,0.1692114287165738,0.03790010139028191,0.09836742477706704,0.028744853091825725,0.09819687736086391
1.0042373822617336,0.13469585530973552,0.030089391894070013,0.07519967777083232,0.021690772983629,0.07505722922347177
1.004284464286864,0.094068350002802,0.022569064128406743,0.051842634052145065,0.013614034763030533,0.051746417202771844
1.0043315463119944,0.0558705414627791,0.016754550055058073,0.03082107495389939,0.004515699010499477,0.030787433295521954
1.0043786283371248,0.029785725493520713,0.01420346274648229,0.019809015244991575,-0.0031296251483389523,0.01983155429289848
1.0044257103622551,0.022326134922130727,0.014445927227330763,0.01684685304795892,-0.008489878000326159,0.016909346625223087
1.0044727923873855,0.03362727707623793,0.01569786060298473,0.01768087969631584,-0.010447412140218423,0.017758080679376214
1.004519874412516,0.057935866130881315,0.01835087019250299,0.0238553638180855,-0.009532133476175503,0.023925768638094647
1.0045669564376463,0.08691312585069338,0.02268442201332167,0.038233159934289905,-0.005171605286020631,0.03827054741711299
1.0046140384627766,0.11302745450084833,0.027425482646233817,0.05542672474865837,0.0025247352516194876,0.055406948942370506
1.004661120487907,0.13143773576861661,0.03144193519260023,0.07126698378066398,0.011792453205732986,0.07118402791219167
1.0047082025130374,0.140315951549541,0.03381761187759011,0.0817840112464661,0.022037282244497663,0.08164124939979382
1.0047552845381678,0.14016084842095028,0.03260257785404768,0.0846685751900148,0.03160303231813394,0.08447853699530847
1.0048023665632981,0.13271042804166153,0.028749162759015196,0.08028160564993014,0.03830505371076934,0.08005915642827634
1.0048494485884285,0.1199532079956697,0.024571080104308165,0.06958311394397716,0.04461219289275088,0.06932458662337668
1.0048965306135589,0.10352759540252561,0.0214189624235838,0.05738407400153901,0.048423284252333235,0.057095325367903946
1.0049436126386893,0.08458770500586026,0.017922244604823064,0.04469505929439128,0.048100887429852274,0.04439284795047598
1.0049906946638196,0.06411017510052013,0.01579255054346864,0.03435472552873721,0.045148518455784645,0.034057415167068165
1.00503777668895,0.043500849939608656,0.014944058944504129,0.022887706523455283,0.03962392984920062,0.022613993986042077
1.0050848587140804,0.02497562650004661,0.013531746873121758,0.013888116903115118,0.03113600126909255,0.013665711292240267
1.0051319407392107,0.011013597455985432,0.01182431630724953,0.011624969459267675,0.022194073174788862,0.011464477544298737
1.0051790227643411,0.003334338693202587,0.011975483422519946,0.009001101837417943,0.012560436527673071,0.008909305714151654
1.0052261047894715,0.0027948227754708652,0.010433439603610923,0.005716764128480125,0.0041357130825786384,0.005686279651503005
1.0052731868146019,0.010164673003053454,0.010603154965704475,0.005314070387151807,-0.0013850395535289456,0.00532410598526289
1.0053202688397322,0.026566180290056158,0.01365495664997331,0.008193549268036414,-0.00878077551625519,0.008258142308549397
1.0053673508648626,0.05291846997433676,0.01678871038043684,0.011498759854167706,-0.013259907105298258,0.011596854929480607
1.005414432889993,0.08828034555015178,0.019891465030714723,0.017065936640710815,-0.014260715413224259,0.01717193310056258
1.0054615149151234,0.12763762777320273,0.02259333636856341,0.025647230237824777,-0.012266301280044543,0.02573849109161307
1.0055085969402537,0.16155770115500132,0.02413952537294778,0.038076850744054896,-0.007469518505374035,0.03813163764158044
1.0055556789653841,0.18078890709766565,0.025643900494277706,0.05135766337998839,-0.0006034247355348167,0.051360705815697946
1.0056027609905145,0.18307418566708303,0.025203211070952063,0.06056084021799014,0.007457096149699104,0.060506410457328616
1.0056498430156449,0.1741533504439713,0.02461225583409839,0.06655908741414072,0.015161400407740042,0.06645426866577615
1.0056969250407752,0.16242605985016223,0.0224320157765199,0.07063087442771013,0.022920996771890172,0.07048028394682
1.0057440070659056,0.15418810481596457,0.01939310297572817,0.07107575192890922,0.028515661271575822,0.07089463738568332
1.005791089091036,0.1523552110015489,0.015413906988218977,0.0660360559428213,0.0314757825397853,0.06583705090153719
1.0058381711161664,0.15691036178882456,0.012851826642710363,0.06130313889977103,0.03379201102566763,0.06108941106159628
1.0058852531412967,0.16538784679386007,0.011477978502604505,0.06307528196508604,0.035591164842289615,0.06285335617415992
1.005932335166427,0.17322460684996496,0.009057582157197841,0.06323184659303546,0.036868564675330666,0.06300359673023634
1.0059794171915575,0.17475929729964576,0.006744518249431736,0.05880087400333982,0.03565794413712077,0.05857582956258235
1.0060264992166879,0.16548577922015562,0.005046696298625805,0.05204155960234529,0.03340527953586813,0.051824606760391634
1.0060735812418182,0.1445721481217929,0.005421780199227447,0.04234591607178599,0.02805634890534203,0.04215579455802562
1.0061206632669486,0.11538472372115638,0.0060840791964113326,0.03266210113426135,0.019483683463605024,0.03252449189824451
1.006167745292079,0.08342022676517998,0.006618608424293182,0.0259645785337829,0.010180578963762725,0.025890509627440897
1.0062148273172093,0.053714935068683495,0.008484457867134209,0.01794830890199036,0.003038745233345962,0.017925596118956933
1.0062619093423397,0.029620632829972474,0.010057862174078018,0.006428025048282717,-0.002663421345932464,0.006447438376863739
1.00630899136747,0.012907514843990737,0.01241875589368985,-0.004503164505502606,-0.005383442570990963,-0.004463562893391701
1.0063560733926005,0.004292560353454192,0.015469769080870301,-0.010519166817943732,-0.0058157010737973115,-0.010476345947330636
1.0064031554177308,0.0038095921685766332,0.0201055086897504,-0.007972360122875525,-0.0057608364080387634,-0.007929962359573647
1.0064502374428612,0.010924293923755681,0.02758067629284131,0.0013341291502741227,-0.0024849634152974307,0.001352351459653185
1.0064973194679916,0.02453035587728399,0.03359532882708577,0.011333716656649779,0.003081635178521255,0.011310831708022058
1.006544401493122,0.042966387475684646,0.03822026406808749,0.020787738978896356,0.009023894068385576,0.0207217763042912
1.0065914835182523,0.06411092062196938,0.039938566318311206,0.03329944681240632,0.013002340814725191,0.03320599834740736
1.0066385655433827,0.08556714248621351,0.04219881804731564,0.049462130528264495,0.015978582689000296,0.04935013732247285
1.006685647568513,0.10493697207975199,0.0425947876491862,0.06485229624100503,0.018980613014893098,0.06472361276310841
1.0067327295936435,0.12014720761669652,0.042289381117228304,0.07640706666955516,0.021547646254077082,0.07626571668811824
1.0067798116187738,0.12974860817624662,0.03908003499721807,0.08294186479002422,0.02284142442726733,0.08279503059139973
1.0068268936439042,0.1331160769266914,0.03724991164736779,0.08436945777741765,0.023616594563128472,0.08421888172603338
1.0068739756690346,0.13051634907150206,0.03285863888063855,0.08386978816652868,0.02320549028344949,0.08372125557036354
1.006921057694165,0.12301693370584733,0.02740084063484149,0.08185258015702256,0.02226744137302625,0.08170857533206753
1.0069681397192953,0.11219272060745543,0.021573259291745864,0.07585112215539112,0.01966564358028121,0.07572042837344423
1.0070152217444257,0.09964098937742749,0.01712336087260298,0.06985230351433948,0.016457217613795934,0.06973981673740282
1.007062303769556,0.08648287672211809,0.014014004561598093,0.06302251331950957,0.014418036868071188,0.06292205070286966
1.0071093857946865,0.07315337862299943,0.013293106869937683,0.053521194673379444,0.012433486463092447,0.05343293014990854
1.0071564678198168,0.05967551136841471,0.011868146186060762,0.042771215350936226,0.008253407606554795,0.04271105324481788
1.0072035498449472,0.046352747241279996,0.009202273441738726,0.029687677967592516,0.004842636365359033,0.029651698703027616
1.0072506318700776,0.03458526276589038,0.00820131164458953,0.01916866027493343,0.003748543052435756,0.019140756603497427
1.007297713895208,0.02727830692374265,0.008249375976465639,0.01473006896934623,0.0021279965995253175,0.014714078057851509
1.0073447959203383,0.0280866607277734,0.009202181059522058,0.01711698325886342,-3.8562918244261716e-05,0.017116804724053292
1.0073918779454687,0.03925806445151868,0.012372903029135946,0.028584290137595406,0.00035160000399685887,0.028580941657687153
1.007438959970599,0.059562255279517966,0.016034627754632106,0.043832242766228824,0.003317428869806028,0.04380700379112617
1.0074860419957294,0.08449757331606145,0.01845780820394634,0.058037587268334905,0.008355366575249188,0.05797697580428785
1.0075331240208598,0.10858230355013457,0.019668066811266382,0.06858033205585247,0.01355644987626905,0.06848587120244282
1.0075802060459902,0.12742598805780986,0.02065280400502338,0.07621925524513734,0.01716303735034292,0.0761033735224662
1.0076272880711206,0.13840784538629322,0.02017524840998663,0.07904744927672683,0.019421868470636282,0.07891878541503645
1.007674370096251,0.14057521646913557,0.01870637227567986,0.0769603579802706,0.02043325193394393,0.07682546806001468
1.0077214521213813,0.1345761316442056,0.017100136586161007,0.07084930100861353,0.020016229827650067,0.07071556274285283
