freq,gls,usurper,pdc_unbiased,shape_periodogram,shift_periodogram
1.0,0.02176245538732735,0.009244364357247339,-0.007335655112181927,-0.0026426461157582665,-0.007252841428277794
1.0000470820251304,0.05134779247241603,0.01757184506917898,0.016081221596065367,-7.022589491361691e-05,0.016076053148199414
1.0000941640502607,0.09689124580742478,0.026820934175311128,0.05094334186944231,0.007523236388689014,0.05069624598918222
1.0001412460753911,0.14848755125694818,0.03843416692406974,0.08456655871201842,0.01623509837469013,0.08405617936438887
1.0001883281005215,0.19664060203551523,0.048576601324906404,0.10917973127593883,0.02483831237842282,0.10842971565892537
1.0002354101256519,0.23592916525893703,0.05473016385172994,0.12678225514793529,0.030920702012090774,0.12587668590917403
1.0002824921507822,0.26363730657080775,0.0563558978169563,0.13936052532630389,0.03399140335403178,0.13838361231025315
1.0003295741759126,0.2780607972143743,0.05670724093350581,0.14663287491158739,0.03639127078015158,0.145602043985696
1.000376656201043,0.27778293516045677,0.05694578739312827,0.14742341655727248,0.03799788128153023,0.14635485516729443
1.0004237382261734,0.2619162710265795,0.05463978198460638,0.139633635428265,0.03918588501643221,0.1385308056833971
1.0004708202513037,0.23107843684954268,0.0495675091892323,0.12167319492364326,0.038917859061587595,0.12056343425955894
1.0005179022764341,0.1884924826566669,0.04286753927900167,0.09811663264576473,0.03798411033026162,0.09701521175277242
1.0005649843015645,0.1401213853463462,0.03794117298271375,0.07552593926328457,0.03609461916596291,0.07446315266160966
1.0006120663266949,0.09311329616242185,0.03529576577207959,0.056936636782797936,0.03241037768388473,0.055969597278376866
1.0006591483518252,0.05338098213176131,0.03680424803846681,0.04656239048066332,0.025601181520156696,0.045788386991068124
1.0007062303769556,0.024158292773911582,0.03783607974626635,0.0379052596807291,0.016751869356636095,0.037390325219793685
1.000753312402086,0.006389706849983347,0.03756109759201902,0.024925530867037873,0.006295036093925744,0.024725481992317454
1.0008003944272164,4.4957735270936574e-05,0.03925578894080373,0.013623927240606612,-0.00415081735650952,0.013742749500766158
1.0008474764523467,0.004476680458159687,0.0382611351254221,0.005279248516488982,-0.007735737556422475,0.005509798809493321
1.000894558477477,0.016631009383087918,0.03776275322406933,0.00604487589630294,-0.006144410564199144,0.006227145159045184
1.0009416405026075,0.030279800796216314,0.041984656113585636,0.01614856324889533,-0.0009138543674167947,0.016168747839175324
1.0009887225277379,0.04019506929021177,0.04850483596654279,0.031662352407458065,0.007561816449658777,0.03142171177345088
1.0010358045528682,0.045271217739530065,0.05485462575699351,0.049643587368788454,0.018851457239239595,0.04906464420363526
1.0010828865779986,0.04665854735345898,0.05501770674808108,0.06394396252727896,0.0301875934274903,0.0630408064638043
1.001129968603129,0.04557434040645729,0.05238085546085172,0.06951556918541625,0.04005014226473192,0.06834218273084303
1.0011770506282593,0.04281463251624272,0.04573784537813894,0.06676401531502141,0.046750246716623055,0.06540749296575932
1.0012241326533897,0.03911406922799136,0.03769193712189906,0.05756222886158259,0.05111016847613743,0.05607871600378305
1.00127121467852,0.035734840091298535,0.029473627840685142,0.04469056838221148,0.053778910693395666,0.04311898860611737
1.0013182967036505,0.034632288517627896,0.022278664164896076,0.03354469161607427,0.05529055863003058,0.031917137421790795
1.0013653787287808,0.03686446430802818,0.024169397198528425,0.03235087082016887,0.0551833524371584,0.030724885450829895
1.0014124607539112,0.040499198873267514,0.03252664388760357,0.04235422606047071,0.05469144576996844,0.04075443541163601
1.0014595427790416,0.04245011553894062,0.041273513240454154,0.05148956578485458,0.05226744884476772,0.04996764620254081
1.001506624804172,0.04142424671447975,0.04670361939500094,0.057489670337512934,0.04628184927588173,0.056137686414395684
1.0015537068293023,0.03772147907862947,0.047303408500288226,0.05838903434484734,0.037948714741342086,0.05726754847045606
1.0016007888544327,0.032149333674356434,0.04617700557941855,0.05286952532393206,0.027148037903391237,0.05205120139797509
1.001647870879563,0.025799799790141527,0.04366603265342298,0.040386054375886556,0.014590586006869752,0.039934034855172815
1.0016949529046935,0.020580986012262138,0.03825934346714088,0.02276083148008517,0.001570165428749199,0.02270334360187974
1.0017420349298238,0.01993155776046648,0.033520778179511095,0.008396000375120035,-0.00873983860320031,0.008655502301570457
1.0017891169549542,0.027489951613850306,0.033109235122484905,0.00883020356959996,-0.01005825272877698,0.00912930633950615
1.0018361989800846,0.042074300128446054,0.0338822566834579,0.022145335055818467,-0.006061910694088659,0.02231800258655628
1.001883281005215,0.05845891480384451,0.03817765615514746,0.04104344236602053,0.002574140473831317,0.040947754691623484
1.0019303630303453,0.07582159493280267,0.04314581242823395,0.05832937685591873,0.012199815279928916,0.05794208599853058
1.0019774450554757,0.09824195100672209,0.0472418667508819,0.07041397317164165,0.02428822713579611,0.06967717661788499
1.002024527080606,0.1303669711588208,0.045735915775668864,0.07896421651578898,0.03438278301461327,0.07794935770025233
1.0020716091057364,0.17464242099810953,0.041006687544280634,0.08832693698111686,0.042183477423634555,0.0871094022873674
1.0021186911308668,0.22917237164395338,0.04393709159326927,0.11355266104308831,0.046394113752254176,0.11225171103184531
1.0021657731559972,0.2864808872447173,0.05107732679305484,0.14880372324738836,0.04961762142537953,0.14747121247212125
1.0022128551811276,0.335488571803669,0.05807628811075311,0.17945522269565434,0.051899291463246414,0.17812139955184983
1.002259937206258,0.3667004160945303,0.0626756745460843,0.20044309409803335,0.052658008259649065,0.19913045714154784
1.0023070192313883,0.37630521047742305,0.06450371117267302,0.20989430295355302,0.051546128697479286,0.20861816548759687
1.0023541012565187,0.3658732131217113,0.06317225685460531,0.20800353236518512,0.04867053651630966,0.20677671239863163
1.002401183281649,0.3393357840705059,0.05875968584195923,0.19716291122807472,0.043476945848760204,0.19602201690366905
1.0024482653067794,0.30043566038503033,0.05242731926617446,0.1783931936762516,0.03544228752745772,0.17740656393984208
1.0024953473319098,0.25183659939415354,0.04392292997675547,0.15384153094853617,0.02519380605934072,0.15308942664210837
1.0025424293570402,0.1956066522565673,0.03329838518328461,0.12081929242955049,0.014112281622718485,0.12036173993601566
1.0025895113821706,0.13475970805500284,0.019016005570655938,0.07564140824241966,0.0031942831485809826,0.07551242951209698
1.002636593407301,0.07582916802294695,0.0054866172383953825,0.025728531183742454,-0.005272801074657271,0.025875759028156416
1.0026836754324313,0.03145358980808763,0.003947699162891468,-0.0040036080406334615,-0.007635309818418686,-0.0037721458178031127
1.0027307574575617,0.01779891286180085,0.015285597136569462,-0.006351274616742859,0.0020366214953952176,-0.006409694628875531
1.002777839482692,0.04358985242398123,0.02083057344542088,0.006591376950054447,0.0184734405163543,0.006033545909359482
1.0028249215078224,0.1037077589167159,0.025434832873609446,0.04281328660270074,0.030307169520372067,0.04190358628083454
1.0028720035329528,0.18101238562213362,0.03611182241075899,0.0979436666785688,0.03497647566625476,0.09692089394667995
1.0029190855580832,0.25636899888384335,0.05394880967867813,0.15380629462607742,0.03921692341597533,0.15271418616053922
1.0029661675832136,0.31832235074100634,0.0684758149037561,0.19704252226634572,0.040640702000209285,0.1959595226013183
1.003013249608344,0.36361141655314383,0.07634556394389881,0.228525784613192,0.04192138911791172,0.22745274755045286
1.0030603316334743,0.39341420767750745,0.08149425700306358,0.24979870354304085,0.04248549449792874,0.24874199986243523
1.0031074136586047,0.4102870696014962,0.0833545698572018,0.26258314989231946,0.04203061969111769,0.2615508401384084
1.003154495683735,0.41662904201390033,0.08367213691368316,0.266777273312063,0.04086158851441134,0.26577001194408145
1.0032015777088654,0.41405085665469693,0.08213837819442729,0.26326150551395927,0.03870046474707156,0.2622873246273774
1.0032486597339958,0.4030953535584088,0.07873288471696441,0.251751202986526,0.03551387724308007,0.25082350517886715
1.0032957417591262,0.38301151602067063,0.07355942983714359,0.2324239377319079,0.03125517819925573,0.2315657270904802
1.0033428237842565,0.3514583105172215,0.06603905969487389,0.2047530276495091,0.02559029363197322,0.20400585011767117
1.003389905809387,0.3042863356687068,0.05612252006796309,0.16911475512504195,0.01884414079762434,0.1685264209462598
1.0034369878345173,0.2364892670841809,0.044193233273372316,0.12615890065588273,0.011102654598726558,0.12578411757746508
1.0034840698596477,0.14805992805189566,0.0307415561910284,0.07745804013496241,0.0035073479066059783,0.07731904626678268
1.003531151884778,0.05937981673678241,0.02061894372302239,0.035632586371168055,-0.002526387287969113,0.03569246339843133
1.0035782339099084,0.016571701488668728,0.016751693534411062,0.012038086514572617,-0.00585833363467827,0.01220909708259757
1.0036253159350388,0.04141534161646615,0.022037263531837395,0.014399178728297872,-0.004594878690352147,0.0145310396276502
1.0036723979601692,0.0978579156313711,0.030814449402569364,0.03595348541122598,0.0012220538005664684,0.035900547416232824
1.0037194799852995,0.14599333246590304,0.04066660156204695,0.06503465797160808,0.009234810716297075,0.0647319336497044
1.00376656201043,0.17300879075255565,0.04812434033149393,0.0922030709843016,0.017734173042320285,0.0916490445693659
1.0038136440355603,0.18229222765708752,0.054779980264154884,0.11374971918924169,0.023245238366015532,0.11304296119745065
1.0038607260606907,0.18262972424027749,0.060347172971081824,0.12736778710133306,0.029865698863833896,0.12648944626014638
1.003907808085821,0.18292620727983336,0.06268589421606804,0.13485525602086357,0.03837970735971535,0.1337682279586669
1.0039548901109514,0.18798821740501145,0.06401535395356069,0.13913083302593265,0.04536894172299522,0.137882109299093
1.0040019721360818,0.19658928748535154,0.06198018309540306,0.1397247738744464,0.04964386915154891,0.13837924061343743
1.0040490541612122,0.20361099360789395,0.061761299255782984,0.1356935801867525,0.051131661373511404,0.13430891170117693
1.0040961361863425,0.20356945018764083,0.05883682840003804,0.1287855413388881,0.05210203506877035,0.12736886053534416
1.004143218211473,0.19261735903368254,0.0511295299902428,0.11776025800915435,0.05108689826053494,0.11635165467733627
1.0041903002366033,0.1692114287165738,0.041649039980838666,0.09836742477706704,0.04759633327847883,0.09702037132857609
1.0042373822617336,0.13469585530973552,0.03146115233921804,0.07519967777083232,0.041750742771061576,0.07398405157856201
1.004284464286864,0.094068350002802,0.02253076539088957,0.051842634052145065,0.03254111227568795,0.05087072033187584
1.0043315463119944,0.0558705414627791,0.015248871427353832,0.03082107495389939,0.020994819956995592,0.03018287461117701
1.0043786283371248,0.029785725493520713,0.0113858408374189,0.019809015244991575,0.009180574895870262,0.01952476551476855
1.0044257103622551,0.022326134922130727,0.010851811689141486,0.01684685304795892,-0.0005852840282005664,0.016856833612490813
1.0044727923873855,0.03362727707623793,0.012862681517122825,0.01768087969631584,-0.005768277328869757,0.017846670549324376
1.004519874412516,0.057935866130881315,0.016559858821936627,0.0238553638180855,-0.006192002386936071,0.02403119850424475
1.0045669564376463,0.08691312585069338,0.022286660606644883,0.038233159934289905,-0.002338937661495363,0.03828620456102873
1.0046140384627766,0.11302745450084833,0.029396484496684295,0.05542672474865837,0.00603593035370689,0.055221900884494614
1.004661120487907,0.13143773576861661,0.0352632123291639,0.07126698378066398,0.014708887404552186,0.07080321305706502
1.0047082025130374,0.140315951549541,0.038920927528645295,0.0817840112464661,0.022454316336225126,0.08109853770867603
1.0047552845381678,0.14016084842095028,0.03909518097841008,0.0846685751900148,0.02797329850401282,0.08383023757919984
1.0048023665632981,0.13271042804166153,0.03714618066920294,0.08028160564993014,0.031165026667742905,0.07935489749197545
1.0048494485884285,0.1199532079956697,0.03445203891404043,0.06958311394397716,0.03484608997898192,0.0685520771671737
1.0048965306135589,0.10352759540252561,0.030014851459116643,0.05738407400153901,0.037293831222232995,0.05628036798027669
1.0049436126386893,0.08458770500586026,0.02246148987477837,0.04469505929439128,0.037209701751294524,0.04358852787093881
1.0049906946638196,0.06411017510052013,0.01607564858447816,0.03435472552873721,0.03430757092503231,0.03332815971306499
1.00503777668895,0.043500849939608656,0.010525115925226277,0.022887706523455283,0.029871218897704745,0.021988937976579602
1.0050848587140804,0.02497562650004661,0.006177688168367061,0.013888116903115118,0.02455248869829656,0.013147151906152295
1.0051319407392107,0.011013597455985432,0.0058843325999134105,0.011624969459267675,0.017294135297820746,0.011101045396712247
1.0051790227643411,0.003334338693202587,0.00498003986799914,0.009001101837417943,0.009505665400680777,0.008711405333013306
1.0052261047894715,0.0027948227754708652,0.002122017176253669,0.005716764128480125,0.0039967775453663154,0.005593953314784812
1.0052731868146019,0.010164673003053454,-0.0015070289130380118,0.005314070387151807,-0.0006222823056007019,0.005330389998240512
1.0053202688397322,0.026566180290056158,-0.0034685704563032524,0.008193549268036414,-0.0036603231287374183,0.008300030872313438
1.0053673508648626,0.05291846997433676,-0.00394215053745868,0.011498759854167706,-0.0033819918568585012,0.011595371000690484
1.005414432889993,0.08828034555015178,-0.001043949203359039,0.017065936640710815,-0.0007687413567181091,0.017081338279600802
1.0054615149151234,0.12763762777320273,0.0017512868408463545,0.025647230237824777,0.0033092762806824425,0.025536276507897367
1.0055085969402537,0.16155770115500132,0.004641723040120662,0.038076850744054896,0.01054276033331749,0.03774515349479114
1.0055556789653841,0.18078890709766565,0.007583562377514687,0.05135766337998839,0.020248087307847867,0.05073790762821428
1.0056027609905145,0.18307418566708303,0.009569846776944481,0.06056084021799014,0.030563540389544324,0.059646526950609596
1.0056498430156449,0.1741533504439713,0.010752465728739736,0.06655908741414072,0.036735158382963214,0.06547484602930372
1.0056969250407752,0.16242605985016223,0.011184593983135293,0.07063087442771013,0.04024265248800127,0.06945293142919015
1.0057440070659056,0.15418810481596457,0.010856955080744858,0.07107575192890922,0.03956492454235696,0.06991645592266409
1.005791089091036,0.1523552110015489,0.009910047974912324,0.0660360559428213,0.0361576158781999,0.06496750371413158
1.0058381711161664,0.15691036178882456,0.010167210769448749,0.06130313889977103,0.03202434141709232,0.060347971914199675
1.0058852531412967,0.16538784679386007,0.013614404926389923,0.06307528196508604,0.02832209700329807,0.06222442576241317
1.005932335166427,0.17322460684996496,0.013741421579850248,0.06323184659303546,0.022604534244079672,0.0625430483028598
1.0059794171915575,0.17475929729964576,0.011971280382584855,0.05880087400333982,0.01579518741925451,0.05830871288472707
1.0060264992166879,0.16548577922015562,0.01044096040737376,0.05204155960234529,0.008907318276515842,0.05175314223206882
1.0060735812418182,0.1445721481217929,0.007723069620233143,0.04234591607178599,0.002645259799700478,0.0422475318901193
1.0061206632669486,0.11538472372115638,0.005494621829335318,0.03266210113426135,-0.0032431883101005084,0.03274493566414197
1.006167745292079,0.08342022676517998,0.002007692366179306,0.0259645785337829,-0.007741107199258729,0.02618632231387684
1.0062148273172093,0.053714935068683495,0.0007761799644732433,0.01794830890199036,-0.010019856939730473,0.01824247145671569
1.0062619093423397,0.029620632829972474,-0.0001795203646680069,0.006428025048282717,-0.010090951771416388,0.006729097220539588
1.00630899136747,0.012907514843990737,0.0004343009218593473,-0.004503164505502606,-0.006124206750167764,-0.00431691983780785
1.0063560733926005,0.004292560353454192,0.0009556777458196912,-0.010519166817943732,-0.0009032371870918245,-0.010487231718840225
1.0064031554177308,0.0038095921685766332,0.0027649906856158078,-0.007972360122875525,0.004958308503562057,-0.008118042223047068
1.0064502374428612,0.010924293923755681,0.007233068808340951,0.0013341291502741227,0.013787703148179318,0.0009187089484322109
1.0064973194679916,0.02453035587728399,0.01113307746415428,0.011333716656649779,0.022582301970891113,0.010651869602599498
1.006544401493122,0.042966387475684646,0.014094344262618538,0.020787738978896356,0.030701693630454947,0.01986437582011879
1.0065914835182523,0.06411092062196938,0.01555974438060841,0.03329944681240632,0.03483018388912106,0.032257500695879876
1.0066385655433827,0.08556714248621351,0.017210075156495266,0.049462130528264495,0.035284597862496735,0.04841187250625301
1.006685647568513,0.10493697207975199,0.01950213634048276,0.06485229624100503,0.03267355285017202,0.0638798921174223
1.0067327295936435,0.12014720761669652,0.02074986040790045,0.07640706666955516,0.027634151474686182,0.07557697426546045
1.0067798116187738,0.12974860817624662,0.020660722986415723,0.08294186479002422,0.022483525642251454,0.08225553871267074
1.0068268936439042,0.1331160769266914,0.02232116321967537,0.08436945777741765,0.016283685634804722,0.08385773503462969
1.0068739756690346,0.13051634907150206,0.02169663423352959,0.08386978816652868,0.011353449551466612,0.08349934574947859
1.006921057694165,0.12301693370584733,0.017969635428114326,0.08185258015702256,0.006910318235062873,0.08161182647423294
1.0069681397192953,0.11219272060745543,0.01234366136360016,0.07585112215539112,0.0019850309144444746,0.07575789654505483
1.0070152217444257,0.09964098937742749,0.007275468084974213,0.06985230351433948,-0.001888705910899393,0.06987736743672412
1.007062303769556,0.08648287672211809,0.0035666564722341373,0.06302251331950957,-0.005197234776065775,0.0631503992701159
1.0071093857946865,0.07315337862299943,0.001889319568076392,0.053521194673379444,-0.007416878938465049,0.05372072864859444
1.0071564678198168,0.05967551136841471,0.0009029345249813397,0.042771215350936226,-0.008135278391214636,0.042997435708207535
1.0072035498449472,0.046352747241279996,-0.0009495364374496845,0.029687677967592516,-0.00822476088900061,0.029922428799670393
1.0072506318700776,0.03458526276589038,-0.0018098784314984724,0.01916866027493343,-0.007928684972490557,0.019399051556972483
1.007297713895208,0.02727830692374265,-0.002031611764593165,0.01473006896934623,-0.007773787465601228,0.014957705487530646
1.0073447959203383,0.0280866607277734,-0.0002722255570097127,0.01711698325886342,-0.006267156897986342,0.017298082900688048
1.0073918779454687,0.03925806445151868,0.005113644168601501,0.028584290137595406,-0.003919404443201375,0.02868937475601402
1.007438959970599,0.059562255279517966,0.011609307139372606,0.043832242766228824,-0.001750987795965477,0.04386503687201713
1.0074860419957294,0.08449757331606145,0.017678978304098283,0.058037587268334905,-0.0003347964252806522,0.058021419090286054
1.0075331240208598,0.10858230355013457,0.022155949043399157,0.06858033205585247,0.0018717147340646318,0.06849361096312549
1.0075802060459902,0.12742598805780986,0.025785972480122172,0.07621925524513734,0.0039634202850269825,0.07606729841998051
1.0076272880711206,0.13840784538629322,0.02708753659552526,0.07904744927672683,0.005183520053515521,0.07885839825316132
1.007674370096251,0.14057521646913557,0.0254694046892078,0.0769603579802706,0.007276360673918226,0.07671070212696111
1.0077214521213813,0.1345761316442056,0.023490769959591765,0.07084930100861353,0.008155259180084362,0.07057613798944724
