freq,gls,usurper,pdc_unbiased,shape_periodogram,shift_periodogram
1.0,0.02176245538732735,0.04849040958953557,-0.007335655112181927,0.03279820275256023,-0.012804208774741192
1.0000470820251304,0.05134779247241603,0.0948421293680483,0.016081221596065367,0.07429534379657181,0.0032435683259454387
1.0000941640502607,0.09689124580742478,0.14427142480152935,0.05094334186944231,0.12354500367284227,0.02950456506046173
1.0001412460753911,0.14848755125694818,0.193412174693103,0.08456655871201842,0.17046803558607876,0.055420314156881464
1.0001883281005215,0.19664060203551523,0.2329676088051576,0.10917973127593883,0.2094142907882588,0.07412711118085728
1.0002354101256519,0.23592916525893703,0.25928999326616775,0.12678225514793529,0.23682508748666267,0.08791440250378535
1.0002824921507822,0.26363730657080775,0.2763194553613977,0.13936052532630389,0.2536661259309539,0.0983722758287843
1.0003295741759126,0.2780607972143743,0.2851632232055164,0.14663287491158739,0.26239646554948504,0.1046376076184303
1.000376656201043,0.27778293516045677,0.28691316611900386,0.14742341655727248,0.2642664751951099,0.10518952666707224
1.0004237382261734,0.2619162710265795,0.2797377770382273,0.139633635428265,0.2581886733935237,0.09799240518993602
1.0004708202513037,0.23107843684954268,0.26135171349189457,0.12167319492364326,0.24309950320138607,0.08171163842370513
1.0005179022764341,0.1884924826566669,0.23695778505136966,0.09811663264576473,0.22347387866000412,0.06064009040060642
1.0005649843015645,0.1401213853463462,0.21979651963724076,0.07552593926328457,0.2107759993292464,0.03971482842079411
1.0006120663266949,0.09311329616242185,0.21271476179918375,0.056936636782797936,0.2068705615190514,0.021535977969160836
1.0006591483518252,0.05338098213176131,0.21657930388468402,0.04656239048066332,0.21042354235423616,0.010439962819164874
1.0007062303769556,0.024158292773911582,0.2225984299533547,0.0379052596807291,0.21556965021919924,0.0007973447308581298
1.000753312402086,0.006389706849983347,0.221168100398793,0.024925530867037873,0.21510713907929122,-0.012238963529381986
1.0008003944272164,4.4957735270936574e-05,0.219232321481053,0.013623927240606612,0.21131825946285185,-0.022966616161545203
1.0008474764523467,0.004476680458159687,0.21883122920427295,0.005279248516488982,0.21340951206334646,-0.03174943064549932
1.000894558477477,0.016631009383087918,0.23003585706709048,0.00604487589630294,0.22643504461256236,-0.03333867957351151
1.0009416405026075,0.030279800796216314,0.25798594441330336,0.01614856324889533,0.2526636093352666,-0.027879490279877666
1.0009887225277379,0.04019506929021177,0.29741781939161827,0.031662352407458065,0.28890069770655696,-0.01862746722604309
1.0010358045528682,0.045271217739530065,0.33877086469121337,0.049643587368788454,0.3275125052878558,-0.0070142645030312955
1.0010828865779986,0.04665854735345898,0.3673881638801219,0.06394396252727896,0.35993580083058,0.002174323636798013
1.001129968603129,0.04557434040645729,0.37940780931903734,0.06951556918541625,0.37769272957696615,0.0049043306518282695
1.0011770506282593,0.04281463251624272,0.37269897198102997,0.06676401531502141,0.37855727344101664,0.0017975041199106956
1.0012241326533897,0.03911406922799136,0.35256042386127584,0.05756222886158259,0.3656223014681053,-0.005652292365259638
1.00127121467852,0.035734840091298535,0.32502781211055654,0.04469056838221148,0.34395034226360766,-0.015244551228591816
1.0013182967036505,0.034632288517627896,0.30417356622697883,0.03354469161607427,0.32792348189702936,-0.02392049000259195
1.0013653787287808,0.03686446430802818,0.3058750206712397,0.03235087082016887,0.32827166205701064,-0.025232490177463623
1.0014124607539112,0.040499198873267514,0.3261325298314467,0.04235422606047071,0.3439686358065305,-0.01770598578108915
1.0014595427790416,0.04245011553894062,0.35163675420555773,0.05148956578485458,0.3658722924177476,-0.012156833612447467
1.001506624804172,0.04142424671447975,0.36961376199702334,0.057489670337512934,0.3799346839527074,-0.008392116623449514
1.0015537068293023,0.03772147907862947,0.37153146527124764,0.05838903434484734,0.3792013932672378,-0.007292244066926136
1.0016007888544327,0.032149333674356434,0.3564984365237865,0.05286952532393206,0.3604538658869021,-0.009679511153095594
1.001647870879563,0.025799799790141527,0.3240824312734999,0.040386054375886556,0.32507656989636935,-0.016245247106249604
1.0016949529046935,0.020580986012262138,0.2808556157311491,0.02276083148008517,0.28008060687851594,-0.026159129213558445
1.0017420349298238,0.01993155776046648,0.2435009669327982,0.008396000375120035,0.2421678112455461,-0.03383328735397143
1.0017891169549542,0.027489951613850306,0.22709155310550433,0.00883020356959996,0.22547982837998745,-0.03035149256209303
1.0018361989800846,0.042074300128446054,0.2288743791975046,0.022145335055818467,0.22881230078551887,-0.01748378572426946
1.001883281005215,0.05845891480384451,0.24388010500325386,0.04104344236602053,0.24484840041930547,-0.0011273023983888616
1.0019303630303453,0.07582159493280267,0.2614761643214898,0.05832937685591873,0.259820642760305,0.013941090489263704
1.0019774450554757,0.09824195100672209,0.2688147082527858,0.07041397317164165,0.2621657626693692,0.02594833600546609
1.002024527080606,0.1303669711588208,0.2559734263219896,0.07896421651578898,0.24718931976929465,0.03721931004024079
1.0020716091057364,0.17464242099810953,0.23577893380923742,0.08832693698111686,0.2275497650569484,0.049999281317420194
1.0021186911308668,0.22917237164395338,0.2380624934944814,0.11355266104308831,0.22455213925151674,0.07623401752707723
1.0021657731559972,0.2864808872447173,0.2594145620958437,0.14880372324738836,0.23792400280765458,0.11040596730297576
1.0022128551811276,0.335488571803669,0.2829024854760101,0.17945522269565434,0.2547764533196246,0.13977996875276508
1.002259937206258,0.3667004160945303,0.2976486532878231,0.20044309409803335,0.26477249067399744,0.16036239775476632
1.0023070192313883,0.37630521047742305,0.3007142906587998,0.20989430295355302,0.26484080101332563,0.17023701360074614
1.0023541012565187,0.3658732131217113,0.292600843664981,0.20800353236518512,0.25552792365727056,0.16940092528116074
1.002401183281649,0.3393357840705059,0.2749191577460151,0.19716291122807472,0.23864981721110673,0.16026091064636355
1.0024482653067794,0.30043566038503033,0.250194775721585,0.1783931936762516,0.21562826853961872,0.14396253810720497
1.0024953473319098,0.25183659939415354,0.21947853175282808,0.15384153094853617,0.18634057035217405,0.12302361757764822
1.0025424293570402,0.1956066522565673,0.1788706894326761,0.12081929242955049,0.15011388516288865,0.0951041399087569
1.0025895113821706,0.13475970805500284,0.12389104865586531,0.07564140824241966,0.10401635883836617,0.057312555558925796
1.002636593407301,0.07582916802294695,0.06657551408091464,0.025728531183742454,0.058721848845395795,0.015417298448628491
1.0026836754324313,0.03145358980808763,0.035657572514381376,-0.0040036080406334615,0.03170325409776722,-0.009332909772027505
1.0027307574575617,0.01779891286180085,0.03794384690877347,-0.006351274616742859,0.03130689517660408,-0.011579895015842154
1.002777839482692,0.04358985242398123,0.05456129060285487,0.006591376950054447,0.051291338701385226,-0.0022162283191169523
1.0028249215078224,0.1037077589167159,0.09134015147327006,0.04281328660270074,0.08785574031425392,0.027408388033377258
1.0028720035329528,0.18101238562213362,0.15120334385657644,0.0979436666785688,0.14176475174505937,0.07346142177682305
1.0029190855580832,0.25636899888384335,0.21396077634640745,0.15380629462607742,0.1932941970969659,0.12197738861415168
1.0029661675832136,0.31832235074100634,0.265768585133648,0.19704252226634572,0.2274088265386605,0.16158922543282103
1.003013249608344,0.36361141655314383,0.2973707606995668,0.228525784613192,0.24898768152358125,0.1915831147864496
1.0030603316334743,0.39341420767750745,0.31732033551226113,0.24979870354304085,0.2621752548134323,0.21235949780792587
1.0031074136586047,0.4102870696014962,0.3276236110465692,0.26258314989231946,0.2682339185580223,0.22516971269252373
1.003154495683735,0.41662904201390033,0.330423881207017,0.266777273312063,0.268545821710886,0.22955673824986242
1.0032015777088654,0.41405085665469693,0.3264973716642722,0.26326150551395927,0.26313082035727436,0.22640188800753683
1.0032486597339958,0.4030953535584088,0.31565476656877384,0.251751202986526,0.2517880169388378,0.21552303110639826
1.0032957417591262,0.38301151602067063,0.2975934879049144,0.2324239377319079,0.2344206417285832,0.19734465497702516
1.0033428237842565,0.3514583105172215,0.27161709385218136,0.2047530276495091,0.2107538265614768,0.17168854100082218
1.003389905809387,0.3042863356687068,0.23752955516719398,0.16911475512504195,0.18131758676056783,0.13926799950228697
1.0034369878345173,0.2364892670841809,0.19596582933540047,0.12615890065588273,0.14686608716441824,0.10097271243019595
1.0034840698596477,0.14805992805189566,0.14989352414011442,0.07745804013496241,0.11089670627457784,0.057993900719246726
1.003531151884778,0.05937981673678241,0.11632014537971067,0.035632586371168055,0.08751182636681773,0.020352105899929862
1.0035782339099084,0.016571701488668728,0.1129262755837454,0.012038086514572617,0.09207563296694074,-0.003786091830641929
1.0036253159350388,0.04141534161646615,0.15032778413408704,0.014399178728297872,0.13342329446077797,-0.008539371620884065
1.0036723979601692,0.0978579156313711,0.21314737789509886,0.03595348541122598,0.19790913599621582,0.0018872535186398784
1.0037194799852995,0.14599333246590304,0.28503379387214495,0.06503465797160808,0.272701750974369,0.01862509520340227
1.00376656201043,0.17300879075255565,0.3479462736482758,0.0922030709843016,0.3390370034028456,0.03578315930051621
1.0038136440355603,0.18229222765708752,0.39404789764862297,0.11374971918924169,0.3877382010618955,0.050915670364803475
1.0038607260606907,0.18262972424027749,0.42268813931405524,0.12736778710133306,0.42063649177252094,0.060651267136080655
1.003907808085821,0.18292620727983336,0.43708221586400936,0.13485525602086357,0.43931785761704784,0.06611925798064652
1.0039548901109514,0.18798821740501145,0.44238985256896357,0.13913083302593265,0.4447132989740975,0.07010510038153038
1.0040019721360818,0.19658928748535154,0.43828007021346066,0.1397247738744464,0.4398045458696257,0.07150437565028624
1.0040490541612122,0.20361099360789395,0.42749913846533766,0.1356935801867525,0.424550064916162,0.06928731726289032
1.0040961361863425,0.20356945018764083,0.4075281287010792,0.1287855413388881,0.39946723046834226,0.06547469388976783
1.004143218211473,0.19261735903368254,0.37471393830357713,0.11776025800915435,0.36437902901123187,0.05895002044048261
1.0041903002366033,0.1692114287165738,0.32869242709343993,0.09836742477706704,0.31853127569733847,0.04565884921163045
1.0042373822617336,0.13469585530973552,0.2755728546554686,0.07519967777083232,0.2670721521845851,0.030048438126378817
1.004284464286864,0.094068350002802,0.22535678502366668,0.051842634052145065,0.21696920742630377,0.014665697421255744
1.0043315463119944,0.0558705414627791,0.1816822615713151,0.03082107495389939,0.1722630079855332,0.001155470024085233
1.0043786283371248,0.029785725493520713,0.15336916551811022,0.019809015244991575,0.14130734676765974,-0.0045136250869467955
1.0044257103622551,0.022326134922130727,0.14041509416404413,0.01684685304795892,0.12494826179943255,-0.004647650458663493
1.0044727923873855,0.03362727707623793,0.1407818599366599,0.01768087969631584,0.1235095107495209,-0.003572025606223695
1.004519874412516,0.057935866130881315,0.15231276075974337,0.0238553638180855,0.1344529803595989,0.0006922095079352011
1.0045669564376463,0.08691312585069338,0.17597659553300946,0.038233159934289905,0.15793225621633036,0.01102682945216278
1.0046140384627766,0.11302745450084833,0.20648544539669095,0.05542672474865837,0.18977373814849652,0.022893061617215923
1.004661120487907,0.13143773576861661,0.235666207762221,0.07126698378066398,0.2224166931762423,0.03346540729494479
1.0047082025130374,0.140315951549541,0.25837649056376305,0.0817840112464661,0.24939715182122002,0.03974589112354115
1.0047552845381678,0.14016084842095028,0.2696053893397992,0.0846685751900148,0.26646154254930027,0.039907569184614314
1.0048023665632981,0.13271042804166153,0.26789175131651155,0.08028160564993014,0.27071057389290526,0.03468102560616735
1.0048494485884285,0.1199532079956697,0.25554835587891894,0.06958311394397716,0.26519301965449776,0.024583335063939685
1.0048965306135589,0.10352759540252561,0.2336730885171304,0.05738407400153901,0.24828586298803296,0.01495250880578894
1.0049436126386893,0.08458770500586026,0.2052799857069149,0.04469505929439128,0.223458830641042,0.006306794039054263
1.0049906946638196,0.06411017510052013,0.17635454230088435,0.03435472552873721,0.19673895274628642,0.00047952318005712604
1.00503777668895,0.043500849939608656,0.1490803716724385,0.022887706523455283,0.16965349864411386,-0.006337149499378867
1.0050848587140804,0.02497562650004661,0.12265585546889705,0.013888116903115118,0.14158383340250522,-0.010457539129964395
1.0051319407392107,0.011013597455985432,0.10364882921382719,0.011624969459267675,0.11865846376908139,-0.008752429290534236
1.0051790227643411,0.003334338693202587,0.08690567304813662,0.009001101837417943,0.0986556024828716,-0.00791906549458117
1.0052261047894715,0.0027948227754708652,0.06819422557085716,0.005716764128480125,0.07733320680737743,-0.007519418864861908
1.0052731868146019,0.010164673003053454,0.05147871243437291,0.005314070387151807,0.056225973292885686,-0.00431681810607005
1.0053202688397322,0.026566180290056158,0.04023388617492639,0.008193549268036414,0.04049931421195133,0.0011991582105043816
1.0053673508648626,0.05291846997433676,0.034051685722778724,0.011498759854167706,0.030891229579232054,0.00609008785599448
1.005414432889993,0.08828034555015178,0.033141584567426045,0.017065936640710815,0.02532879484880842,0.012522852024691751
1.0054615149151234,0.12763762777320273,0.03648124860765232,0.025647230237824777,0.024281098735395044,0.02116176454122348
1.0055085969402537,0.16155770115500132,0.04530262545618735,0.038076850744054896,0.030721599507514876,0.032333086430509674
1.0055556789653841,0.18078890709766565,0.05574196547686067,0.05135766337998839,0.041819839252673595,0.04357462124034439
1.0056027609905145,0.18307418566708303,0.06374863149971537,0.06056084021799014,0.05347723096197807,0.050718214666446305
1.0056498430156449,0.1741533504439713,0.06843135116335311,0.06655908741414072,0.0605629067380101,0.05547139325753467
1.0056969250407752,0.16242605985016223,0.07138310814035363,0.07063087442771013,0.06574269989974162,0.058642588362991695
1.0057440070659056,0.15418810481596457,0.07358514535732572,0.07107575192890922,0.06984762337264926,0.05840435398405612
1.005791089091036,0.1523552110015489,0.07329068189042308,0.0660360559428213,0.0714082275179458,0.05315523057663512
1.0058381711161664,0.15691036178882456,0.07306774330226831,0.06130313889977103,0.07251236192717546,0.04828527985130179
1.0058852531412967,0.16538784679386007,0.07796578585756692,0.06307528196508604,0.0759973993262191,0.0494618526477594
1.005932335166427,0.17322460684996496,0.08129911503913777,0.06323184659303546,0.07953391658429726,0.04903044461367019
1.0059794171915575,0.17475929729964576,0.07999046820219845,0.05880087400333982,0.07899512597983978,0.04472942832176551
1.0060264992166879,0.16548577922015562,0.07494720464261355,0.05204155960234529,0.07410390446740579,0.038850373597273224
1.0060735812418182,0.1445721481217929,0.06673347554413703,0.04234591607178599,0.06581430305178203,0.030645473210326506
1.0061206632669486,0.11538472372115638,0.06014214092916991,0.03266210113426135,0.05693354067337931,0.022568714420688158
1.006167745292079,0.08342022676517998,0.05322239580561121,0.0259645785337829,0.04826593112676857,0.01741842217880482
1.0062148273172093,0.053714935068683495,0.048992980307498456,0.01794830890199036,0.04259630330855405,0.01046672940953474
1.0062619093423397,0.029620632829972474,0.044169324358297055,0.006428025048282717,0.038379107241963605,-0.0001819810839088659
1.00630899136747,0.012907514843990737,0.0396986270092929,-0.004503164505502606,0.03687041978599704,-0.010704976073972158
1.0063560733926005,0.004292560353454192,0.040188476416185066,-0.010519166817943732,0.040844727942156094,-0.01731416406507992
1.0064031554177308,0.0038095921685766332,0.046858767681106174,-0.007972360122875525,0.05016420766378479,-0.01639302018687551
1.0064502374428612,0.010924293923755681,0.06556649440593296,0.0013341291502741227,0.07159542585076091,-0.010869192130667815
1.0064973194679916,0.02453035587728399,0.087966365638202,0.011333716656649779,0.0966270849422853,-0.005261691789040116
1.006544401493122,0.042966387475684646,0.10930928896381316,0.020787738978896356,0.12121410282919341,-9.217635629650653e-05
1.0065914835182523,0.06411092062196938,0.1295314572015466,0.03329944681240632,0.1409167711272707,0.008996263529118323
1.0066385655433827,0.08556714248621351,0.14968954300182566,0.049462130528264495,0.15750831395048737,0.022332430028194107
1.006685647568513,0.10493697207975199,0.16720234310989734,0.06485229624100503,0.17052524478403266,0.03558974856443319
1.0067327295936435,0.12014720761669652,0.17810318953473256,0.07640706666955516,0.1770627988480386,0.04613411478600189
1.0067798116187738,0.12974860817624662,0.18183420162812894,0.08294186479002422,0.1753053603199593,0.05300105725044387
1.0068268936439042,0.1331160769266914,0.17833549771095256,0.08436945777741765,0.1657648419052116,0.05598323954667022
1.0068739756690346,0.13051634907150206,0.16828435244068699,0.08386978816652868,0.150928720676117,0.057883869828575185
1.006921057694165,0.12301693370584733,0.151006994012881,0.08185258015702256,0.13226006673093627,0.058894084701182424
1.0069681397192953,0.11219272060745543,0.12908025535468126,0.07585112215539112,0.11051872201874065,0.05645610845679135
1.0070152217444257,0.09964098937742749,0.10580389043339775,0.06985230351433948,0.08677228482212777,0.054397675820828155
1.007062303769556,0.08648287672211809,0.0847211612283589,0.06302251331950957,0.06546237051068589,0.05115855209994904
1.0071093857946865,0.07315337862299943,0.06722964811022292,0.053521194673379444,0.047528183752254385,0.04475531074161739
1.0071564678198168,0.05967551136841471,0.05421077610994509,0.042771215350936226,0.03425010148611054,0.03637044834297981
1.0072035498449472,0.046352747241279996,0.04194156341890492,0.029687677967592516,0.02404513685650465,0.02518598298584406
1.0072506318700776,0.03458526276589038,0.0346828472952864,0.01916866027493343,0.019504032693565473,0.015583128035209243
1.007297713895208,0.02727830692374265,0.03340498030938169,0.01473006896934623,0.02021736871195667,0.011086483086915483
1.0073447959203383,0.0280866607277734,0.04085094971455419,0.01711698325886342,0.027706050755777152,0.012170263265305601
1.0073918779454687,0.03925806445151868,0.06069303920048592,0.028584290137595406,0.045256032249402715,0.02051309448443939
1.007438959970599,0.059562255279517966,0.08634787084749278,0.043832242766228824,0.06723673705844214,0.03187667175809561
1.0074860419957294,0.08449757331606145,0.11108163885594988,0.058037587268334905,0.08897341743547361,0.04231400199720074
1.0075331240208598,0.10858230355013457,0.1306512507538603,0.06858033205585247,0.10835922785237713,0.049576128605710916
1.0075802060459902,0.12742598805780986,0.14271054460938387,0.07621925524513734,0.12050364879249363,0.05518898151801853
1.0076272880711206,0.13840784538629322,0.14488857382484743,0.07904744927672683,0.12412598656082505,0.05741778781913753
1.007674370096251,0.14057521646913557,0.13930988065722016,0.0769603579802706,0.12268435615761339,0.05557142076052294
1.0077214521213813,0.1345761316442056,0.1279768352266128,0.07084930100861353,0.11494591100802407,0.05075025230575017
1.0077685341465117,0.12269802495893224,0.11088120814203721,0.062425783036096825,0.10101584104525943,0.04467141539593032
1.007815616171642,0.10844877640211482,0.09280935790521572,0.054884533548136764,0.08470933987446326,0.03989752949791596
