freq,gls,usurper,pdc_unbiased,shape_periodogram,shift_periodogram
1.0,0.02176245538732735,0.03754081657601959,-0.007335655112181927,0.025498926440537247,-0.010198075526969596
1.0000470820251304,0.05134779247241603,0.06661616752824855,0.016081221596065367,0.04738675892422325,0.010586893607468032
1.0000941640502607,0.09689124580742478,0.10000207813602223,0.05094334186944231,0.07818527712591854,0.04185412784095493
1.0001412460753911,0.14848755125694818,0.13502133997315005,0.08456655871201842,0.11303754966130485,0.07170480492321493
1.0001883281005215,0.19664060203551523,0.16666439922465634,0.10917973127593883,0.1482144299606822,0.09284844563632086
1.0002354101256519,0.23592916525893703,0.1901027429257154,0.12678225514793529,0.17532601586660126,0.10803748569382611
1.0002824921507822,0.26363730657080775,0.2051659914462785,0.13936052532630389,0.19328236259727258,0.1191868563686147
1.0003295741759126,0.2780607972143743,0.21446217158266545,0.14663287491158739,0.2044741337288321,0.12562749322466968
1.000376656201043,0.27778293516045677,0.21779062261938567,0.14742341655727248,0.20983852957524068,0.1259707842548012
1.0004237382261734,0.2619162710265795,0.21336254990943707,0.139633635428265,0.20910499959431697,0.11805116385932576
1.0004708202513037,0.23107843684954268,0.20086685611210425,0.12167319492364326,0.20083105900175993,0.10043296868250835
1.0005179022764341,0.1884924826566669,0.18399187389645796,0.09811663264576473,0.18876572303155695,0.07759171319894975
1.0005649843015645,0.1401213853463462,0.1717634484152714,0.07552593926328457,0.1799564781178698,0.055552919892771266
1.0006120663266949,0.09311329616242185,0.16514599552449463,0.056936636782797936,0.17449935617590126,0.03730843590528066
1.0006591483518252,0.05338098213176131,0.16466234230985785,0.04656239048066332,0.1707824989801431,0.027227170516098003
1.0007062303769556,0.024158292773911582,0.16379315479402698,0.0379052596807291,0.16534421584489584,0.019092706309583013
1.000753312402086,0.006389706849983347,0.15896910804011635,0.024925530867037873,0.1548269376084974,0.007204697127030237
1.0008003944272164,4.4957735270936574e-05,0.15461546256611425,0.013623927240606612,0.1437488829422069,-0.002883202105445792
1.0008474764523467,0.004476680458159687,0.15175504221895741,0.005279248516488982,0.14089182495862893,-0.01092732059503148
1.000894558477477,0.016631009383087918,0.1595278161773912,0.00604487589630294,0.1484925771575628,-0.011046701664415539
1.0009416405026075,0.030279800796216314,0.17928359106251066,0.01614856324889533,0.1674645942813867,-0.0030918697932850784
1.0009887225277379,0.04019506929021177,0.20680466325525815,0.031662352407458065,0.19558027384334392,0.009352684281919179
1.0010358045528682,0.045271217739530065,0.23325166218709265,0.049643587368788454,0.2270910720723235,0.024111959425902496
1.0010828865779986,0.04665854735345898,0.2531784391271558,0.06394396252727896,0.253987409116221,0.03585210899200884
1.001129968603129,0.04557434040645729,0.26278473362659555,0.06951556918541625,0.2696627997250399,0.039932587751208254
1.0011770506282593,0.04281463251624272,0.2593230468614264,0.06676401531502141,0.27133086990232963,0.03690112186690368
1.0012241326533897,0.03911406922799136,0.24488735227010158,0.05756222886158259,0.26124180451794543,0.028473859607672493
1.00127121467852,0.035734840091298535,0.22455039211458125,0.04469056838221148,0.24489943752045226,0.017037618009638888
1.0013182967036505,0.034632288517627896,0.20868536697907933,0.03354469161607427,0.23236592546683577,0.007044013157430167
1.0013653787287808,0.03686446430802818,0.2070145142726888,0.03235087082016887,0.23040461451894803,0.006049687145826821
1.0014124607539112,0.040499198873267514,0.2184418754113003,0.04235422606047071,0.23953817325397803,0.015246906325635261
1.0014595427790416,0.04245011553894062,0.23484971447923825,0.05148956578485458,0.2542140115773637,0.022986671214771763
1.001506624804172,0.04142424671447975,0.24637689553099001,0.057489670337512934,0.2629716291557907,0.028208541608882306
1.0015537068293023,0.03772147907862947,0.24851731905479002,0.05838903434484734,0.2602149111481413,0.029440747269801292
1.0016007888544327,0.032149333674356434,0.23863596263858236,0.05286952532393206,0.24447103613081356,0.02549024588619331
1.001647870879563,0.025799799790141527,0.21620441411896069,0.040386054375886556,0.21593621026936827,0.01590872689271957
1.0016949529046935,0.020580986012262138,0.1853775452189044,0.02276083148008517,0.18113969035045135,0.001998579312489195
1.0017420349298238,0.01993155776046648,0.1614831076337881,0.008396000375120035,0.1532406031611829,-0.009239004197176074
1.0017891169549542,0.027489951613850306,0.153552435225847,0.00883020356959996,0.14494075000681228,-0.007835036285971219
1.0018361989800846,0.042074300128446054,0.15754517661992376,0.022145335055818467,0.15248716996116485,0.00467503138962624
1.001883281005215,0.05845891480384451,0.17261507088746147,0.04104344236602053,0.17127504817818706,0.021596322065658733
1.0019303630303453,0.07582159493280267,0.18900823594930133,0.05832937685591873,0.19152175177984598,0.03686926967274704
1.0019774450554757,0.09824195100672209,0.19681963709393172,0.07041397317164165,0.2065954990040369,0.047546847398014055
1.002024527080606,0.1303669711588208,0.18999322658381315,0.07896421651578898,0.20789742699558372,0.05613120488428025
1.0020716091057364,0.17464242099810953,0.17865977803638058,0.08832693698111686,0.20343402336600222,0.06614161800391821
1.0021186911308668,0.22917237164395338,0.18129916761641862,0.11355266104308831,0.205981161719937,0.09164781608927502
1.0021657731559972,0.2864808872447173,0.19503222763917444,0.14880372324738836,0.21642519524334186,0.1268198119134556
1.0022128551811276,0.335488571803669,0.20930863472125227,0.17945522269565434,0.2277229000997309,0.15746330810515374
1.002259937206258,0.3667004160945303,0.2173411276273078,0.20044309409803335,0.23343447959794777,0.178739435547663
1.0023070192313883,0.37630521047742305,0.21748392136192704,0.20989430295355302,0.23145732253799906,0.1886538449449625
1.0023541012565187,0.3658732131217113,0.2103182563291163,0.20800353236518512,0.22234037029661197,0.18731559973281822
1.002401183281649,0.3393357840705059,0.1982284557015981,0.19716291122807472,0.20764541169053746,0.17719934087745678
1.0024482653067794,0.30043566038503033,0.1819345344931935,0.1783931936762516,0.18604788006590908,0.1596559128059293
1.0024953473319098,0.25183659939415354,0.15985971709945115,0.15384153094853617,0.15602093690178356,0.13727603547366254
1.0025424293570402,0.1956066522565673,0.12840812433638982,0.12081929242955049,0.11810167051090119,0.10758106175077496
1.0025895113821706,0.13475970805500284,0.08857753922290477,0.07564140824241966,0.07133001889455462,0.06725042574452143
1.002636593407301,0.07582916802294695,0.05144769068533856,0.025728531183742454,0.029558083763816044,0.02220336573193009
1.0026836754324313,0.03145358980808763,0.032980965447481934,-0.0040036080406334615,0.012792276768469635,-0.005436415486296567
1.0027307574575617,0.01779891286180085,0.038722864996835256,-0.006351274616742859,0.026911148101377513,-0.009381259837373016
1.002777839482692,0.04358985242398123,0.0566559218719502,0.006591376950054447,0.05980610340593297,-0.00027077512713290203
1.0028249215078224,0.1037077589167159,0.09155924632140842,0.04281328660270074,0.10045530265168774,0.03126259500529692
1.0028720035329528,0.18101238562213362,0.13856685999569784,0.0979436666785688,0.14172084450769543,0.0821700645487595
1.0029190855580832,0.25636899888384335,0.18121335681260556,0.15380629462607742,0.17504211608395104,0.1355356144459623
1.0029661675832136,0.31832235074100634,0.2115776945622382,0.19704252226634572,0.1957365537946235,0.17796646190345292
1.003013249608344,0.36361141655314383,0.22966324541088598,0.228525784613192,0.20770633320991963,0.2094455047410321
1.0030603316334743,0.39341420767750745,0.23947267384969181,0.24979870354304085,0.21306575160997762,0.2310305445148658
1.0031074136586047,0.4102870696014962,0.24297300399477145,0.26258314989231946,0.21416339689451386,0.24416149970852646
1.003154495683735,0.41662904201390033,0.24191010448280745,0.266777273312063,0.21136417154937556,0.24864329713803254
1.0032015777088654,0.41405085665469693,0.2366340261265002,0.26326150551395927,0.20474230737305932,0.2453873694813515
1.0032486597339958,0.4030953535584088,0.2269747115333725,0.251751202986526,0.19400718590635044,0.23419116937460696
1.0032957417591262,0.38301151602067063,0.21259547877979412,0.2324239377319079,0.17900622980728315,0.21538607259961542
1.0033428237842565,0.3514583105172215,0.19294634857885953,0.2047530276495091,0.1594652096147288,0.18864827062472916
1.003389905809387,0.3042863356687068,0.16767035950621634,0.16911475512504195,0.1358398121100122,0.15454991708098198
1.0034369878345173,0.2364892670841809,0.13761028030539493,0.12615890065588273,0.10876467338556049,0.11387917304379895
1.0034840698596477,0.14805992805189566,0.10544058045302275,0.07745804013496241,0.08069908304024427,0.06804822862468317
1.003531151884778,0.05937981673678241,0.08333842812984608,0.035632586371168055,0.06156805391476701,0.028445473889275298
1.0035782339099084,0.016571701488668728,0.08307431388784599,0.012038086514572617,0.061659095738429655,0.004939694102260036
1.0036253159350388,0.04141534161646615,0.1107301245608112,0.014399178728297872,0.08799248087970095,0.004290855692069426
1.0036723979601692,0.0978579156313711,0.15641075995707554,0.03595348541122598,0.13290300913383046,0.02076892657543508
1.0037194799852995,0.14599333246590304,0.20939445812629723,0.06503465797160808,0.1833034317938673,0.04455963759870997
1.00376656201043,0.17300879075255565,0.25229313211922527,0.0922030709843016,0.22714611751293892,0.06771377782106053
1.0038136440355603,0.18229222765708752,0.28095176804415123,0.11374971918924169,0.25614445709548794,0.08712696434539188
1.0038607260606907,0.18262972424027749,0.2956728987464288,0.12736778710133306,0.2741514825159641,0.09965744679361631
1.003907808085821,0.18292620727983336,0.301469904305128,0.13485525602086357,0.28446594877946657,0.106595722944756
1.0039548901109514,0.18798821740501145,0.3025044913644865,0.13913083302593265,0.2879193666620113,0.11078801603676457
1.0040019721360818,0.19658928748535154,0.2972824851590096,0.1397247738744464,0.2850937172808706,0.11164374780163587
1.0040490541612122,0.20361099360789395,0.28664510338090216,0.1356935801867525,0.27750736819574007,0.10805978784782841
1.0040961361863425,0.20356945018764083,0.26954428875563907,0.1287855413388881,0.2642481678639004,0.10200161945357139
1.004143218211473,0.19261735903368254,0.24660728346947364,0.11776025800915435,0.2457668435782599,0.09223705568244486
1.0041903002366033,0.1692114287165738,0.21594038588227124,0.09836742477706704,0.21904144908796508,0.07484018301195469
1.0042373822617336,0.13469585530973552,0.1809572297412919,0.07519967777083232,0.18652306530374257,0.054532073107624916
1.004284464286864,0.094068350002802,0.14683340554033394,0.051842634052145065,0.15323170539025957,0.03449014771945062
1.0043315463119944,0.0558705414627791,0.11654063810336715,0.03082107495389939,0.12111847462382273,0.01694760227454451
1.0043786283371248,0.029785725493520713,0.09715774705753316,0.019809015244991575,0.0964215825810506,0.008730488173208737
1.0044257103622551,0.022326134922130727,0.08877162314878047,0.01684685304795892,0.08155125982616242,0.007465916706544443
1.0044727923873855,0.03362727707623793,0.09010901420449775,0.01768087969631584,0.0779779636755649,0.00870379986204478
1.004519874412516,0.057935866130881315,0.09961215935838474,0.0238553638180855,0.08435341649254063,0.01413792640454024
1.0045669564376463,0.08691312585069338,0.11755428226950039,0.038233159934289905,0.101930782978492,0.026518778297734018
1.0046140384627766,0.11302745450084833,0.1408212014029452,0.05542672474865837,0.12890564524898876,0.04075925686076939
1.004661120487907,0.13143773576861661,0.1638818614740515,0.07126698378066398,0.15840298415568846,0.05352221846314577
1.0047082025130374,0.140315951549541,0.18335635046150237,0.0817840112464661,0.18505556540957774,0.06137067003326662
1.0047552845381678,0.14016084842095028,0.19309508740050751,0.0846685751900148,0.20411402701336365,0.062340926308865785
1.0048023665632981,0.13271042804166153,0.19310287706629645,0.08028160564993014,0.21367930412697458,0.05687714287358091
1.0048494485884285,0.1199532079956697,0.18558058780832962,0.06958311394397716,0.21575300074730766,0.045728361464321174
1.0048965306135589,0.10352759540252561,0.17444055185612184,0.05738407400153901,0.2093680686048021,0.033966371492714274
1.0049436126386893,0.08458770500586026,0.15892067050610867,0.04469505929439128,0.19566295485712312,0.022570006931132622
1.0049906946638196,0.06411017510052013,0.1432537627805687,0.03435472552873721,0.1781394104433323,0.014063767131854053
1.00503777668895,0.043500849939608656,0.12544808935056306,0.022887706523455283,0.15767941284453466,0.004826831096835834
1.0050848587140804,0.02497562650004661,0.10545926954135798,0.013888116903115118,0.13388567834278986,-0.001479487842079005
1.0051319407392107,0.011013597455985432,0.0887472273589639,0.011624969459267675,0.11138104520663901,-0.0011564252123621077
1.0051790227643411,0.003334338693202587,0.07317683545493489,0.009001101837417943,0.08791736585853552,-0.0010853833125666276
1.0052261047894715,0.0027948227754708652,0.054118472063193056,0.005716764128480125,0.061660590869032694,-0.001353263573069311
1.0052731868146019,0.010164673003053454,0.03758488072301258,0.005314070387151807,0.03825933572967982,0.0009180033977185295
1.0053202688397322,0.026566180290056158,0.026374388713257844,0.008193549268036414,0.02089419274134165,0.005759290559455979
1.0053673508648626,0.05291846997433676,0.020496991223347027,0.011498759854167706,0.011260518492537397,0.01014077839328207
1.005414432889993,0.08828034555015178,0.018488111965300726,0.017065936640710815,0.007340139389438848,0.01611856837610305
1.0054615149151234,0.12763762777320273,0.020472343087639625,0.025647230237824777,0.009132791733592294,0.024440803921155267
1.0055085969402537,0.16155770115500132,0.027621867335108966,0.038076850744054896,0.01982403974219812,0.03558020730672073
1.0055556789653841,0.18078890709766565,0.03772163568965481,0.05135766337998839,0.03595722670342483,0.04696900912266658
1.0056027609905145,0.18307418566708303,0.045868065565502415,0.06056084021799014,0.05325906440299707,0.05420144275965181
1.0056498430156449,0.1741533504439713,0.05311912770587345,0.06655908741414072,0.06804667207859076,0.05854896255458674
1.0056969250407752,0.16242605985016223,0.0589349697387239,0.07063087442771013,0.08088338894757689,0.06120994687147276
1.0057440070659056,0.15418810481596457,0.06155876481237712,0.07107575192890922,0.08980321233174558,0.06068593294411372
1.005791089091036,0.1523552110015489,0.06071227047297066,0.0660360559428213,0.09384750122935806,0.05520857049639069
1.0058381711161664,0.15691036178882456,0.0610432497734963,0.06130313889977103,0.09525878656468399,0.050322448427584716
1.0058852531412967,0.16538784679386007,0.064668815438106,0.06307528196508604,0.09565081396234137,0.05205163680584948
1.005932335166427,0.17322460684996496,0.06653729329198949,0.06323184659303546,0.09359969048306263,0.0524319279739593
1.0059794171915575,0.17475929729964576,0.06401057997689544,0.05880087400333982,0.08734662472042662,0.04868830581491626
1.0060264992166879,0.16548577922015562,0.05893712833823038,0.05204155960234529,0.07866609812573323,0.0428967264559744
1.0060735812418182,0.1445721481217929,0.0523262982588771,0.04234591607178599,0.06745091565318463,0.03447514703430959
1.0061206632669486,0.11538472372115638,0.046817041720855636,0.03266210113426135,0.05667895630529728,0.02603718907271021
1.006167745292079,0.08342022676517998,0.04383878504331915,0.0259645785337829,0.04808161974700497,0.020341230438998666
1.0062148273172093,0.053714935068683495,0.04435145429114929,0.01794830890199036,0.04279656751312813,0.012965454962445446
1.0062619093423397,0.029620632829972474,0.04519105359601569,0.006428025048282717,0.0398765659523499,0.0018411514591116418
1.00630899136747,0.012907514843990737,0.04477853962150047,-0.004503164505502606,0.03773696681541877,-0.008782363539542275
1.0063560733926005,0.004292560353454192,0.046712056334972614,-0.010519166817943732,0.038656835377915554,-0.01486810116474524
1.0064031554177308,0.0038095921685766332,0.05128610013703945,-0.007972360122875525,0.04179895948020082,-0.01269642961910734
1.0064502374428612,0.010924293923755681,0.06363674358605637,0.0013341291502741227,0.053507974407740855,-0.004782107984550459
1.0064973194679916,0.02453035587728399,0.0777136134089822,0.011333716656649779,0.06908630068700174,0.0033917026545117264
1.006544401493122,0.042966387475684646,0.090502075012291,0.020787738978896356,0.0847885745587427,0.01102847284436562
1.0065914835182523,0.06411092062196938,0.10130255418906518,0.03329944681240632,0.09785513610132472,0.02204411226632648
1.0066385655433827,0.08556714248621351,0.11347349395126338,0.049462130528264495,0.10981997839189842,0.036876720229509725
1.006685647568513,0.10493697207975199,0.122500564124032,0.06485229624100503,0.11905793022550896,0.05128854145927055
1.0067327295936435,0.12014720761669652,0.1267746446396937,0.07640706666955516,0.12388873818009513,0.06236587791608081
1.0067798116187738,0.12974860817624662,0.12533042566533692,0.08294186479002422,0.12276530832857493,0.06904710302552022
1.0068268936439042,0.1331160769266914,0.1205239661470158,0.08436945777741765,0.11603551367704891,0.07119037167682268
1.0068739756690346,0.13051634907150206,0.11189582594416439,0.08386978816652868,0.10635751528324874,0.07171375729345736
1.006921057694165,0.12301693370584733,0.0988530640434377,0.08185258015702256,0.09248830294261774,0.07117238482533227
1.0069681397192953,0.11219272060745543,0.08273749764277218,0.07585112215539112,0.07622208799380716,0.06692844267401932
1.0070152217444257,0.09964098937742749,0.06614460228421035,0.06985230351433948,0.059643203615102794,0.06275447271513354
1.007062303769556,0.08648287672211809,0.05265737666638665,0.06302251331950957,0.04613951064032935,0.05744190600124754
1.0071093857946865,0.07315337862299943,0.04239130177496846,0.053521194673379444,0.03557455292077496,0.049164080296323937
1.0071564678198168,0.05967551136841471,0.03480549246087663,0.042771215350936226,0.02786126689533538,0.03933941243127718
1.0072035498449472,0.046352747241279996,0.029111379375796727,0.029687677967592516,0.023344521939692206,0.026843092317869948
1.0072506318700776,0.03458526276589038,0.027064126748754323,0.01916866027493343,0.02261190144384062,0.016471028715533364
1.007297713895208,0.02727830692374265,0.029381543441709984,0.01473006896934623,0.024491255550453814,0.011845939285962505
1.0073447959203383,0.0280866607277734,0.037867953985960316,0.01711698325886342,0.03181753256251832,0.013385738889557759
1.0073918779454687,0.03925806445151868,0.055801443602367204,0.028584290137595406,0.04749782302109708,0.023013892775455937
1.007438959970599,0.059562255279517966,0.07831484206192765,0.043832242766228824,0.06668498835880264,0.03604202276284781
1.0074860419957294,0.08449757331606145,0.09984850193070667,0.058037587268334905,0.0871935130235543,0.04794266993558245
1.0075331240208598,0.10858230355013457,0.11724725411167806,0.06858033205585247,0.10528586836608335,0.05651382284706213
1.0075802060459902,0.12742598805780986,0.12762413304851747,0.07621925524513734,0.11680918002473359,0.06293174734913096
1.0076272880711206,0.13840784538629322,0.13021245939853,0.07904744927672683,0.12116589544108944,0.06530616691007823
1.007674370096251,0.14057521646913557,0.12465827211410747,0.0769603579802706,0.1194638630860565,0.06339233171164203
1.0077214521213813,0.1345761316442056,0.11321041451797963,0.07084930100861353,0.11168583247591392,0.05809649203540438
1.0077685341465117,0.12269802495893224,0.09704915673539366,0.062425783036096825,0.09776367043665771,0.051171640481306936
1.007815616171642,0.10844877640211482,0.08067442583844923,0.054884533548136764,0.08024072696037501,0.0455599505362642
