freq,gls,usurper,pdc_unbiased,shape_periodogram,shift_periodogram
1.0,0.02176245538732735,0.024676408890499192,-0.007335655112181927,0.0014656885738253717,-0.0074139668071644274
1.0000470820251304,0.05134779247241603,0.04569113417680317,0.016081221596065367,0.016627048118880654,0.014994637578372962
1.0000941640502607,0.09689124580742478,0.06737870631097868,0.05094334186944231,0.038163544922088996,0.04845977102807432
1.0001412460753911,0.14848755125694818,0.09052942087028791,0.08456655871201842,0.05836935483075724,0.08086268841176973
1.0001883281005215,0.19664060203551523,0.10889322756290754,0.10917973127593883,0.07559244616055243,0.10453577039428812
1.0002354101256519,0.23592916525893703,0.12051834220792272,0.12678225514793529,0.08824845499113637,0.12151805883815861
1.0002824921507822,0.26363730657080775,0.12769602666631957,0.13936052532630389,0.09527943176086731,0.13379535027110423
1.0003295741759126,0.2780607972143743,0.1310578075103189,0.14663287491158739,0.09946119291263406,0.14090128621266804
1.000376656201043,0.27778293516045677,0.13115620154174745,0.14742341655727248,0.10133440977719421,0.1416064885230496
1.0004237382261734,0.2619162710265795,0.12655919690162665,0.139633635428265,0.0999931396782927,0.13383801598533354
1.0004708202513037,0.23107843684954268,0.1157119657144954,0.12167319492364326,0.09515672164023271,0.11603065203964776
1.0005179022764341,0.1884924826566669,0.10129487248507806,0.09811663264576473,0.08793430818876528,0.09276458400385587
1.0005649843015645,0.1401213853463462,0.08992398588042334,0.07552593926328457,0.08195166805531774,0.07044377819468255
1.0006120663266949,0.09311329616242185,0.08274031519921692,0.056936636782797936,0.07633521366588593,0.05214457761351857
1.0006591483518252,0.05338098213176131,0.08204295008955731,0.04656239048066332,0.07109690793181975,0.04207024828246872
1.0007062303769556,0.024158292773911582,0.08213472811879623,0.0379052596807291,0.06550952813888453,0.033746429022666995
1.000753312402086,0.006389706849983347,0.0777927077979927,0.024925530867037873,0.05790378060420431,0.021234303902219007
1.0008003944272164,4.4957735270936574e-05,0.07560187467239068,0.013623927240606612,0.05039139890836957,0.010408250707747773
1.0008474764523467,0.004476680458159687,0.07248700474705372,0.005279248516488982,0.04829737788885925,0.002202214407138599
1.000894558477477,0.016631009383087918,0.07419499181696347,0.00604487589630294,0.05129921588571348,0.0027766634544697764
1.0009416405026075,0.030279800796216314,0.0856270560424473,0.01614856324889533,0.0597597637667994,0.012341780875783557
1.0009887225277379,0.04019506929021177,0.10311500756757157,0.031662352407458065,0.07333028777482188,0.027017422803624225
1.0010358045528682,0.045271217739530065,0.12219819705256128,0.049643587368788454,0.08845222701061962,0.04411391421022025
1.0010828865779986,0.04665854735345898,0.13159442332533278,0.06394396252727896,0.10256508114690599,0.057636707744361255
1.001129968603129,0.04557434040645729,0.13364409913704528,0.06951556918541625,0.11243104676333593,0.06267371914495211
1.0011770506282593,0.04281463251624272,0.12684279621916067,0.06676401531502141,0.11638253082423261,0.059682405050434456
1.0012241326533897,0.03911406922799136,0.11530209155465021,0.05756222886158259,0.11591123593697912,0.050452024316341174
1.00127121467852,0.035734840091298535,0.10176779025234807,0.04469056838221148,0.11188017216069329,0.03774578594551323
1.0013182967036505,0.034632288517627896,0.09168278557626672,0.03354469161607427,0.10900387700962946,0.026718944122757136
1.0013653787287808,0.03686446430802818,0.09464251137557565,0.03235087082016887,0.11006620316830817,0.02545482121980471
1.0014124607539112,0.040499198873267514,0.10686002206912282,0.04235422606047071,0.1149079475703558,0.03521645158452607
1.0014595427790416,0.04245011553894062,0.11961582037172619,0.05148956578485458,0.12025813397330513,0.044089459249098045
1.001506624804172,0.04142424671447975,0.12849203002186588,0.057489670337512934,0.12188004865212405,0.05003453755330808
1.0015537068293023,0.03772147907862947,0.12977651185621242,0.05838903434484734,0.1184486764295978,0.051137404928849044
1.0016007888544327,0.032149333674356434,0.12465530188328433,0.05286952532393206,0.10814118509132961,0.04618667012970977
1.001647870879563,0.025799799790141527,0.11206472246497425,0.040386054375886556,0.09232930818292605,0.03459752809718696
1.0016949529046935,0.020580986012262138,0.09441177066734655,0.02276083148008517,0.07306194388106535,0.018123546792850033
1.0017420349298238,0.01993155776046648,0.07875072796620612,0.008396000375120035,0.057730386288166236,0.004718732125635745
1.0017891169549542,0.027489951613850306,0.0731366791690219,0.00883020356959996,0.053259430653959286,0.0054360256332470665
1.0018361989800846,0.042074300128446054,0.07477888430016559,0.022145335055818467,0.05808159589030549,0.018443274209810515
1.001883281005215,0.05845891480384451,0.0825671611112395,0.04104344236602053,0.06851947706708444,0.03670261725285203
1.0019303630303453,0.07582159493280267,0.09309132554757532,0.05832937685591873,0.07864858646796236,0.05340248465748486
1.0019774450554757,0.09824195100672209,0.10182205983699245,0.07041397317164165,0.08463902251984542,0.06516376711977577
1.002024527080606,0.1303669711588208,0.10073073012505898,0.07896421651578898,0.08625797441584854,0.07364501697765075
1.0020716091057364,0.17464242099810953,0.09448139196924871,0.08832693698111686,0.085610020547536,0.0830722218482818
1.0021186911308668,0.22917237164395338,0.10127596299836639,0.11355266104308831,0.08800275424902108,0.10825146572781005
1.0021657731559972,0.2864808872447173,0.11750085294849828,0.14880372324738836,0.09388130350832408,0.1433530335787474
1.0022128551811276,0.335488571803669,0.13316191648125342,0.17945522269565434,0.09995757053758454,0.17389036551236425
1.002259937206258,0.3667004160945303,0.14383878476515263,0.20044309409803335,0.10317038954215645,0.19487693760066038
1.0023070192313883,0.37630521047742305,0.1480067336538512,0.20989430295355302,0.10226587504712319,0.20442873747301374
1.0023541012565187,0.3658732131217113,0.14565933119708183,0.20800353236518512,0.09736757472935605,0.20272292015171864
1.002401183281649,0.3393357840705059,0.1369063650647518,0.19716291122807472,0.0889408109252999,0.1921783280061305
1.0024482653067794,0.30043566038503033,0.12355866539450619,0.1783931936762516,0.07719920318599037,0.17386724600594883
1.0024953473319098,0.25183659939415354,0.10737174137765411,0.15384153094853617,0.06241118146818702,0.1499939402746287
1.0025424293570402,0.1956066522565673,0.08629317386920705,0.12081929242955049,0.046572239331239294,0.11780813281965063
1.0025895113821706,0.13475970805500284,0.05717054103649176,0.07564140824241966,0.028610923372418127,0.07371652839757563
1.002636593407301,0.07582916802294695,0.02801978470642632,0.025728531183742454,0.01367072360089036,0.02481102576657689
1.0026836754324313,0.03145358980808763,0.017579622985379996,-0.0040036080406334615,0.007476913543005651,-0.004470741380207992
1.0027307574575617,0.01779891286180085,0.026373899432353447,-0.006351274616742859,0.015488646081296588,-0.007323457699223217
1.002777839482692,0.04358985242398123,0.03639562648762068,0.006591376950054447,0.03320055250708302,0.0044709269824741065
1.0028249215078224,0.1037077589167159,0.05589159925803033,0.04281328660270074,0.05463524086156766,0.039322581489599065
1.0028720035329528,0.18101238562213362,0.08681174116729538,0.0979436666785688,0.07923447321028622,0.09307124610650733
1.0029190855580832,0.25636899888384335,0.12188245479635598,0.15380629462607742,0.0974813230014519,0.14820823306121472
1.0029661675832136,0.31832235074100634,0.15278723519721174,0.19704252226634572,0.10508769610096268,0.19137476726965053
1.003013249608344,0.36361141655314383,0.1696280365941533,0.228525784613192,0.10987191258973834,0.2229121891268204
1.0030603316334743,0.39341420767750745,0.18041920898884306,0.24979870354304085,0.11306615507463208,0.24425686271001773
1.0031074136586047,0.4102870696014962,0.18505429442775723,0.26258314989231946,0.11338928584168217,0.2571454209312215
1.003154495683735,0.41662904201390033,0.1850909799563931,0.266777273312063,0.11159451581090994,0.26143095895883434
1.0032015777088654,0.41405085665469693,0.18115874280354005,0.26326150551395927,0.10735691771911139,0.25801546583066787
1.0032486597339958,0.4030953535584088,0.17318523330843535,0.251751202986526,0.10060962384770161,0.24663970145000583
1.0032957417591262,0.38301151602067063,0.16094369755474044,0.2324239377319079,0.09137427768994805,0.22752798764594878
1.0033428237842565,0.3514583105172215,0.14385141614077437,0.2047530276495091,0.07932426671476844,0.20022704643174216
1.003389905809387,0.3042863356687068,0.12165366384057233,0.16911475512504195,0.06466806333283656,0.16518014367083442
1.0034369878345173,0.2364892670841809,0.0950208395898398,0.12615890065588273,0.04782477275646952,0.12307801693547783
1.0034840698596477,0.14805992805189566,0.06534777444636211,0.07745804013496241,0.030676434763474553,0.07540543866780808
1.003531151884778,0.05937981673678241,0.042800457230958336,0.035632586371168055,0.01887911335857912,0.03436933085899696
1.0035782339099084,0.016571701488668728,0.03593015726848338,0.012038086514572617,0.017780233713656002,0.010885879425427746
1.0036253159350388,0.04141534161646615,0.04926847906098756,0.014399178728297872,0.030157791856730454,0.012459925834117305
1.0036723979601692,0.0978579156313711,0.0725598287514105,0.03595348541122598,0.04974304649300392,0.03276615313902297
1.0037194799852995,0.14599333246590304,0.09987941419367301,0.06503465797160808,0.07445958344861119,0.06036705324638791
1.00376656201043,0.17300879075255565,0.12467769415340883,0.0922030709843016,0.09766415390351288,0.08629538422957399
1.0038136440355603,0.18229222765708752,0.14326151246968108,0.11374971918924169,0.1151151735063555,0.107043720872331
1.0038607260606907,0.18262972424027749,0.15655993487514558,0.12736778710133306,0.12960907625119455,0.12006351420262255
1.003907808085821,0.18292620727983336,0.16395735534326192,0.13485525602086357,0.1400967422403005,0.1271449862526823
1.0039548901109514,0.18798821740501145,0.16809883704313427,0.13913083302593265,0.14425377756248975,0.13128580992648148
1.0040019721360818,0.19658928748535154,0.1670726095457691,0.1397247738744464,0.14463586815985438,0.1318701687969517
1.0040490541612122,0.20361099360789395,0.16539681611592646,0.1356935801867525,0.14062974970662917,0.1279688018857298
1.0040961361863425,0.20356945018764083,0.15982172154720584,0.1287855413388881,0.1331828108749136,0.12132752184128684
1.004143218211473,0.19261735903368254,0.14506749495373136,0.11776025800915435,0.1211474616890499,0.11078242742546468
1.0041903002366033,0.1692114287165738,0.12360976605115478,0.09836742477706704,0.10553636051678915,0.09206453077486802
1.0042373822617336,0.13469585530973552,0.09868566145035232,0.07519967777083232,0.08759898453391168,0.06979277098192749
1.004284464286864,0.094068350002802,0.07576914937602827,0.051842634052145065,0.06833278727912087,0.047522850905737414
1.0043315463119944,0.0558705414627791,0.056507521022660025,0.03082107495389939,0.04980814556858423,0.027632158649980473
1.0043786283371248,0.029785725493520713,0.04498369379428942,0.019809015244991575,0.03569626632338525,0.01751305917824443
1.0044257103622551,0.022326134922130727,0.04084626826638887,0.01684685304795892,0.02683314859485404,0.015113826387147608
1.0044727923873855,0.03362727707623793,0.042899911561972606,0.01768087969631584,0.024662217431016,0.016083584943888115
1.004519874412516,0.057935866130881315,0.04976937720976025,0.0238553638180855,0.0278830958547323,0.02204534448554441
1.0045669564376463,0.08691312585069338,0.061279143523637426,0.038233159934289905,0.03685041099502988,0.03584350592120264
1.0046140384627766,0.11302745450084833,0.07540300691281387,0.05542672474865837,0.05034025106549462,0.05219607820602447
1.004661120487907,0.13143773576861661,0.08730639416725047,0.07126698378066398,0.06422011208950007,0.06721020300713745
1.0047082025130374,0.140315951549541,0.09626304915918432,0.0817840112464661,0.07637684467433854,0.07703586605555206
1.0047552845381678,0.14016084842095028,0.09934655678077381,0.0846685751900148,0.08493380513240803,0.07944104784728809
1.0048023665632981,0.13271042804166153,0.09682193593989293,0.08028160564993014,0.0877460844681555,0.07488189042454894
1.0048494485884285,0.1199532079956697,0.09004129227428687,0.06958311394397716,0.08807751192808089,0.06413189143833527
1.0048965306135589,0.10352759540252561,0.07885275464126726,0.05738407400153901,0.08369667829730554,0.05215638115626823
1.0049436126386893,0.08458770500586026,0.06511026179285886,0.04469505929439128,0.07595063635506724,0.03990669783531355
1.0049906946638196,0.06411017510052013,0.05193616760963043,0.03435472552873721,0.067580401423538,0.030066394256931726
1.00503777668895,0.043500849939608656,0.04081473252063037,0.022887706523455283,0.05817461961991108,0.019179754832399476
1.0050848587140804,0.02497562650004661,0.03087050790331173,0.013888116903115118,0.047847405213960616,0.010832748739653434
1.0051319407392107,0.011013597455985432,0.02545752376979454,0.011624969459267675,0.038716639284550915,0.00914853092647161
1.0051790227643411,0.003334338693202587,0.020229571002814913,0.009001101837417943,0.030525045519046043,0.007046703803282454
1.0052261047894715,0.0027948227754708652,0.015039172669293688,0.005716764128480125,0.023418558179801097,0.0042183172148194965
1.0052731868146019,0.010164673003053454,0.011552028863020222,0.005314070387151807,0.015370638652809026,0.0043271663528777465
1.0053202688397322,0.026566180290056158,0.010905302374762286,0.008193549268036414,0.009778168231152783,0.007556067697004735
1.0053673508648626,0.05291846997433676,0.01249030756005228,0.011498759854167706,0.0080043861344765,0.01096734203044041
1.005414432889993,0.08828034555015178,0.01762020774237103,0.017065936640710815,0.008115931324527634,0.01651650082756301
1.0054615149151234,0.12763762777320273,0.023651067646575537,0.025647230237824777,0.009425893051583126,0.02499815915163701
1.0055085969402537,0.16155770115500132,0.030559918517549394,0.038076850744054896,0.014966584316165522,0.037055128359905896
1.0055556789653841,0.18078890709766565,0.03708563000190152,0.05135766337998839,0.02361084143360534,0.04977339901925841
1.0056027609905145,0.18307418566708303,0.04146303864262659,0.06056084021799014,0.0336645615363151,0.05834398095864972
1.0056498430156449,0.1741533504439713,0.043727062004632666,0.06655908741414072,0.039933745340204614,0.06395457757956773
1.0056969250407752,0.16242605985016223,0.04544815234226581,0.07063087442771013,0.04455375525143709,0.06774493307228763
1.0057440070659056,0.15418810481596457,0.04672017203436354,0.07107575192890922,0.047028123424738506,0.06804101726739688
1.005791089091036,0.1523552110015489,0.04644495291657938,0.0660360559428213,0.047161992010889116,0.06299477925076655
1.0058381711161664,0.15691036178882456,0.04565829504697686,0.06130313889977103,0.046454618649852265,0.058306315602566924
1.0058852531412967,0.16538784679386007,0.04828729354021167,0.06307528196508604,0.04630725138532523,0.06008667223646568
1.005932335166427,0.17322460684996496,0.047848645566275626,0.06323184659303546,0.04535523787995769,0.060300777922006304
1.0059794171915575,0.17475929729964576,0.0445613427777166,0.05880087400333982,0.04225819526304309,0.05606035769311175
1.0060264992166879,0.16548577922015562,0.03995586635014697,0.05204155960234529,0.03712649719369428,0.04962074795320611
1.0060735812418182,0.1445721481217929,0.03359702834452538,0.04234591607178599,0.029890071296664197,0.040384034522032264
1.0061206632669486,0.11538472372115638,0.02867143402964988,0.03266210113426135,0.02169938854826735,0.031226750249005463
1.006167745292079,0.08342022676517998,0.02327704024572879,0.0259645785337829,0.014174969435985861,0.025014795487240248
1.0062148273172093,0.053714935068683495,0.01963872587223695,0.01794830890199036,0.008987044687767272,0.01734194237146142
1.0062619093423397,0.029620632829972474,0.016020784103150686,0.006428025048282717,0.005723104196416575,0.006051486859101307
1.00630899136747,0.012907514843990737,0.013350219610930636,-0.004503164505502606,0.006276944907614022,-0.004893008670090333
1.0063560733926005,0.004292560353454192,0.012992427883181319,-0.010519166817943732,0.010014273206408726,-0.011134702808897896
1.0064031554177308,0.0038095921685766332,0.01627693822614274,-0.007972360122875525,0.016927329257175185,-0.009033055205794647
1.0064502374428612,0.010924293923755681,0.025410772153998566,0.0013341291502741227,0.02960261382604404,-0.0005498718863799915
1.0064973194679916,0.02453035587728399,0.03582457875767001,0.011333716656649779,0.04331736237964776,0.008566711696945324
1.006544401493122,0.042966387475684646,0.045868066438031305,0.020787738978896356,0.05709876695932568,0.017147392246588206
1.0065914835182523,0.06411092062196938,0.05577377323309561,0.03329944681240632,0.06663576077460116,0.029068642231660495
1.0066385655433827,0.08556714248621351,0.0657176297373413,0.049462130528264495,0.07209983332939553,0.044912800011549146
1.006685647568513,0.10493697207975199,0.07436781056321205,0.06485229624100503,0.07465457358666823,0.06017291173746711
1.0067327295936435,0.12014720761669652,0.07958135706839085,0.07640706666955516,0.07366459461960861,0.07180504215771552
1.0067798116187738,0.12974860817624662,0.08194991844787487,0.08294186479002422,0.06901183078634422,0.0786190767238775
1.0068268936439042,0.1331160769266914,0.08176672761645162,0.08436945777741765,0.06179913800279886,0.0804658081301905
1.0068739756690346,0.13051634907150206,0.07742667180487892,0.08386978816652868,0.052716124054585874,0.08049666575195118
1.006921057694165,0.12301693370584733,0.06817659167213123,0.08185258015702256,0.04388936706605643,0.07900195457290736
1.0069681397192953,0.11219272060745543,0.056671368143594136,0.07585112215539112,0.034948672725139365,0.07354113100332989
1.0070152217444257,0.09964098937742749,0.045801344347527466,0.06985230351433948,0.025776480347517356,0.06810805913457316
1.007062303769556,0.08648287672211809,0.03601342523323039,0.06302251331950957,0.017755605698518147,0.0617836642303548
1.0071093857946865,0.07315337862299943,0.028425597035676795,0.053521194673379444,0.010991787161632778,0.05272100311371051
1.0071564678198168,0.05967551136841471,0.023395467317662507,0.042771215350936226,0.006092167530497097,0.04229964586615838
1.0072035498449472,0.046352747241279996,0.017284016994056774,0.029687677967592516,0.002387108863783185,0.029476329630473946
1.0072506318700776,0.03458526276589038,0.013253601665177969,0.01916866027493343,0.001398148560077129,0.019041158820290924
1.007297713895208,0.02727830692374265,0.0114936104711815,0.01473006896934623,0.0014824677569988977,0.014606151228463187
1.0073447959203383,0.0280866607277734,0.014026283738683814,0.01711698325886342,0.0032878212915238934,0.016873661275407306
1.0073918779454687,0.03925806445151868,0.023164427551242605,0.028584290137595406,0.008751929373517913,0.027972174076179312
1.007438959970599,0.059562255279517966,0.035467526927039424,0.043832242766228824,0.015845603236984893,0.042745117998277335
1.0074860419957294,0.08449757331606145,0.04737520890216833,0.058037587268334905,0.023059822231159474,0.05647753313694623
1.0075331240208598,0.10858230355013457,0.05665487692915902,0.06858033205585247,0.03069054271745314,0.06653669619903128
1.0075802060459902,0.12742598805780986,0.0625574240680524,0.07621925524513734,0.03593547105471791,0.07384927814654822
1.0076272880711206,0.13840784538629322,0.06423231372627829,0.07904744927672683,0.03868277400618447,0.07650978047601624
1.007674370096251,0.14057521646913557,0.06159988038950564,0.0769603579802706,0.040767590762123655,0.07429877236732213
1.0077214521213813,0.1345761316442056,0.055960072274195395,0.07084930100861353,0.03979726125210089,0.06825005658167338
1.0077685341465117,0.12269802495893224,0.04725564787797928,0.062425783036096825,0.035406041395822076,0.060100444393808315
