freq,gls,usurper,pdc_unbiased,shape_periodogram,shift_periodogram
1.0,0.02176245538732735,0.044787325828216346,-0.007335655112181927,0.02492498023680941,-0.010574294268893409
1.0000470820251304,0.05134779247241603,0.08445402015823197,0.016081221596065367,0.059288629997376406,0.008105214226860745
1.0000941640502607,0.09689124580742478,0.12591714936757198,0.05094334186944231,0.10155364902780478,0.03728055335878532
1.0001412460753911,0.14848755125694818,0.16731938479332858,0.08456655871201842,0.1414504782470906,0.06591422571612399
1.0001883281005215,0.19664060203551523,0.20057976100200273,0.10917973127593883,0.17486568330804222,0.08672838814038757
1.0002354101256519,0.23592916525893703,0.22242748907294763,0.12678225514793529,0.1987104809878369,0.1018862174890191
1.0002824921507822,0.26363730657080775,0.23606000394063367,0.13936052532630389,0.21339935454583653,0.11313007513538174
1.0003295741759126,0.2780607972143743,0.24347800464911334,0.14663287491158739,0.22153873258041257,0.11972489184983859
1.000376656201043,0.27778293516045677,0.2456452103260753,0.14742341655727248,0.22405030715520843,0.12027343121595027
1.0004237382261734,0.2619162710265795,0.2403564691098508,0.139633635428265,0.22031879415521965,0.11266507469436082
1.0004708202513037,0.23107843684954268,0.22569602395274796,0.12167319492364326,0.20934435137582683,0.09547219060914224
1.0005179022764341,0.1884924826566669,0.20598010658822002,0.09811663264576473,0.19458245945866748,0.07316498486458199
1.0005649843015645,0.1401213853463462,0.1922661067037574,0.07552593926328457,0.18497314088559882,0.051403044160971675
1.0006120663266949,0.09311329616242185,0.1869072338198601,0.056936636782797936,0.18171213136744638,0.032998002885715146
1.0006591483518252,0.05338098213176131,0.19086006167246305,0.04656239048066332,0.18355381668144394,0.022270938715262104
1.0007062303769556,0.024158292773911582,0.196202649107517,0.0379052596807291,0.18585702900438691,0.013218181697679575
1.000753312402086,0.006389706849983347,0.19480568062969614,0.024925530867037873,0.18314138668726385,0.0004717903502149466
1.0008003944272164,4.4957735270936574e-05,0.19345912112752703,0.013623927240606612,0.17798523149645587,-0.010224704790407498
1.0008474764523467,0.004476680458159687,0.19274044627135073,0.005279248516488982,0.17904928605340956,-0.018775402364391954
1.000894558477477,0.016631009383087918,0.202291376278125,0.00604487589630294,0.1900591976218451,-0.019526420506704428
1.0009416405026075,0.030279800796216314,0.22669938974067214,0.01614856324889533,0.2126252416944007,-0.012428710112589664
1.0009887225277379,0.04019506929021177,0.2613624789395552,0.031662352407458065,0.24451644162177508,-0.001007946846951129
1.0010358045528682,0.045271217739530065,0.29730410596411005,0.049643587368788454,0.2789340507939847,0.012841969685312957
1.0010828865779986,0.04665854735345898,0.3211201892565036,0.06394396252727896,0.30836917330108515,0.023834538884250123
1.001129968603129,0.04557434040645729,0.3309543305854033,0.06951556918541625,0.32547425451585593,0.02745956467712142
1.0011770506282593,0.04281463251624272,0.3246143791619848,0.06676401531502141,0.3281455457993535,0.02420782021582656
1.0012241326533897,0.03911406922799136,0.306904153760117,0.05756222886158259,0.31902612053453183,0.015727579098875583
1.00127121467852,0.035734840091298535,0.28306795541144636,0.04469056838221148,0.30235067580181674,0.004518247806753084
1.0013182967036505,0.034632288517627896,0.26478985033180574,0.03354469161607427,0.2898838493214683,-0.005345187959518751
1.0013653787287808,0.03686446430802818,0.2666601912046208,0.03235087082016887,0.2902568285115235,-0.006635918282675888
1.0014124607539112,0.040499198873267514,0.284545638280144,0.04235422606047071,0.3028136490249196,0.0020178892161718657
1.0014595427790416,0.04245011553894062,0.3063011021272755,0.05148956578485458,0.3198080996513521,0.009242928702370373
1.001506624804172,0.04142424671447975,0.3210507468254374,0.057489670337512934,0.329596100069972,0.014229488178833103
1.0015537068293023,0.03772147907862947,0.32185117737857116,0.05838903434484734,0.32686677907651407,0.015545193914386857
1.0016007888544327,0.032149333674356434,0.30872023132356147,0.05286952532393206,0.30868385963671713,0.012199157662294454
1.001647870879563,0.025799799790141527,0.281290440242229,0.040386054375886556,0.27649982715766647,0.0035915266010720583
1.0016949529046935,0.020580986012262138,0.24432704864309004,0.02276083148008517,0.23644639004085627,-0.008996575335812898
1.0017420349298238,0.01993155776046648,0.21241940815000854,0.008396000375120035,0.20287652619172586,-0.01893107097247653
1.0017891169549542,0.027489951613850306,0.1984884336236113,0.00883020356959996,0.1884236229482299,-0.016489722885877772
1.0018361989800846,0.042074300128446054,0.19949566861531015,0.022145335055818467,0.191889717994268,-0.0035179280284730902
1.001883281005215,0.05845891480384451,0.21195886556215687,0.04104344236602053,0.20660063002397627,0.013653496432435071
1.0019303630303453,0.07582159493280267,0.22758573894870973,0.05832937685591873,0.22080728737676195,0.029390116694710644
1.0019774450554757,0.09824195100672209,0.23493094259176428,0.07041397317164165,0.2250339649862746,0.04119314760767433
1.002024527080606,0.1303669711588208,0.22426631941588523,0.07896421651578898,0.2150071934537159,0.05117609061659698
1.0020716091057364,0.17464242099810953,0.20601694122807138,0.08832693698111686,0.20003156283620133,0.06255029463935678
1.0021186911308668,0.22917237164395338,0.20691163207974503,0.11355266104308831,0.1970803884417671,0.08858455526421938
1.0021657731559972,0.2864808872447173,0.2238883636276179,0.14880372324738836,0.2066580104156579,0.12352403890269069
1.0022128551811276,0.335488571803669,0.24249558836591675,0.17945522269565434,0.2186720382236073,0.15377118519805877
1.002259937206258,0.3667004160945303,0.25382008345552887,0.20044309409803335,0.2250933306005634,0.17481143305792515
1.0023070192313883,0.37630521047742305,0.2554963105253322,0.20989430295355302,0.22352778096089457,0.1847101410419442
1.0023541012565187,0.3658732131217113,0.24788000031299956,0.20800353236518512,0.2144617069995934,0.1835572097002033
1.002401183281649,0.3393357840705059,0.2323071864634553,0.19716291122807472,0.19917073340173597,0.17381692102792826
1.0024482653067794,0.30043566038503033,0.21082829409702292,0.1783931936762516,0.17850298464538816,0.15665829298182551
1.0024953473319098,0.25183659939415354,0.18424695832642518,0.15384153094853617,0.15227411100806934,0.13451071054276256
1.0025424293570402,0.1956066522565673,0.14959727574689313,0.12081929242955049,0.12077870497574804,0.10483758013949146
1.0025895113821706,0.13475970805500284,0.10321462941261536,0.07564140824241966,0.08196358936660939,0.06442102982223032
1.002636593407301,0.07582916802294695,0.05550243894201603,0.025728531183742454,0.045240184152084174,0.019536414717302913
1.0026836754324313,0.03145358980808763,0.03221313538113209,-0.0040036080406334615,0.024830613486322317,-0.007258279822329258
1.0027307574575617,0.01779891286180085,0.03804851880065568,-0.006351274616742859,0.028105948260421145,-0.010020469248766003
1.002777839482692,0.04358985242398123,0.05248748748698721,0.006591376950054447,0.04863348926554378,9.398543004054564e-05
1.0028249215078224,0.1037077589167159,0.08202308837423265,0.04281328660270074,0.08078390405415817,0.03186659541879376
1.0028720035329528,0.18101238562213362,0.13054890499923294,0.0979436666785688,0.12480820029152682,0.08139190341727588
1.0029190855580832,0.25636899888384335,0.18271503508381828,0.15380629462607742,0.1654282543560538,0.1330396202653057
1.0029661675832136,0.31832235074100634,0.22661876488901825,0.19704252226634572,0.19007949962648582,0.17455485443297208
1.003013249608344,0.36361141655314383,0.252323041153525,0.228525784613192,0.20522457612102538,0.2054850934165377
1.0030603316334743,0.39341420767750745,0.2684450717915187,0.24979870354304085,0.21444737454509788,0.2266673623987001
1.0031074136586047,0.4102870696014962,0.27645296605158964,0.26258314989231946,0.21813735731016837,0.2396066860108779
1.003154495683735,0.41662904201390033,0.2784191858891038,0.266777273312063,0.21759645925404497,0.243984957643835
1.0032015777088654,0.41405085665469693,0.2749342898031086,0.26326150551395927,0.21266051971488956,0.24070733128226846
1.0032486597339958,0.4030953535584088,0.2658601940607211,0.251751202986526,0.20312626007714507,0.2295611089978
1.0032957417591262,0.38301151602067063,0.2509696017660139,0.2324239377319079,0.18896700485813145,0.21087819657987605
1.0033428237842565,0.3514583105172215,0.22963040388472958,0.2047530276495091,0.16989860386180367,0.18435840424631114
1.003389905809387,0.3042863356687068,0.20162121241693146,0.16911475512504195,0.14640094753690197,0.15059437421239666
1.0034369878345173,0.2364892670841809,0.1675937312097095,0.12615890065588273,0.11911660452072548,0.11039480255942412
1.0034840698596477,0.14805992805189566,0.13001052913665073,0.07745804013496241,0.09103264063239958,0.06508617440424555
1.003531151884778,0.05937981673678241,0.10323586476988685,0.035632586371168055,0.07356754362168268,0.025661237886867277
1.0035782339099084,0.016571701488668728,0.10187171345786675,0.012038086514572617,0.07900785232646536,0.0014760617500513273
1.0036253159350388,0.04141534161646615,0.13462542486560664,0.014399178728297872,0.11448389164171788,-0.0008909067555500221
1.0036723979601692,0.0978579156313711,0.18784704625318152,0.03595348541122598,0.16838337739760606,0.013556499751824623
1.0037194799852995,0.14599333246590304,0.24783008216499006,0.06503465797160808,0.23025409676877637,0.0350309372112516
1.00376656201043,0.17300879075255565,0.29960322948455975,0.0922030709843016,0.2851521098965048,0.05627574699725586
1.0038136440355603,0.18229222765708752,0.3376436112147563,0.11374971918924169,0.3253038147452445,0.07425532585084275
1.0038607260606907,0.18262972424027749,0.3612637802060428,0.12736778710133306,0.3533279323417691,0.08573182765035944
1.003907808085821,0.18292620727983336,0.37273393068302685,0.13485525602086357,0.3702299361953322,0.09205434307153189
1.0039548901109514,0.18798821740501145,0.37701602593397826,0.13913083302593265,0.37557636145161816,0.09615426280022799
1.0040019721360818,0.19658928748535154,0.37367224775977875,0.1397247738744464,0.3719892108103478,0.097154514574018
1.0040490541612122,0.20361099360789395,0.36525256959644337,0.1356935801867525,0.3596309188954475,0.09403630800145704
1.0040961361863425,0.20356945018764083,0.34895205912390165,0.1287855413388881,0.33939272212259847,0.08871979713107458
1.004143218211473,0.19261735903368254,0.32129643214867454,0.11776025800915435,0.31068177621498844,0.08012286466953915
1.0041903002366033,0.1692114287165738,0.28265891518791536,0.09836742477706704,0.2732105677749687,0.0641124494569367
1.0042373822617336,0.13469585530973552,0.23804214217094777,0.07519967777083232,0.23096331574280998,0.0453477716991607
1.004284464286864,0.094068350002802,0.1959395134074962,0.051842634052145065,0.18908787931179705,0.026893642338960994
1.0043315463119944,0.0558705414627791,0.15932161001557338,0.03082107495389939,0.1509075049450428,0.010704387031807601
1.0043786283371248,0.029785725493520713,0.1355460678663976,0.019809015244991575,0.12347346201764119,0.003314554170325507
1.0044257103622551,0.022326134922130727,0.12473677992776777,0.01684685304795892,0.10801415944395522,0.0024127356846653653
1.0044727923873855,0.03362727707623793,0.12512464449788863,0.01768087969631584,0.10530154389975101,0.003604877997428409
1.004519874412516,0.057935866130881315,0.13491949090186897,0.0238553638180855,0.11341136004959756,0.008690885436594714
1.0045669564376463,0.08691312585069338,0.15489432669729808,0.038233159934289905,0.13260000583466514,0.020543657677596437
1.0046140384627766,0.11302745450084833,0.1806677323516171,0.05542672474865837,0.15962096823161964,0.034307636323526784
1.004661120487907,0.13143773576861661,0.20482614068811372,0.07126698378066398,0.18748604478127,0.04677341963892802
1.0047082025130374,0.140315951549541,0.22342626738356564,0.0817840112464661,0.21088150502607633,0.05456076424541622
1.0047552845381678,0.14016084842095028,0.2322066326505765,0.0846685751900148,0.22625905635525978,0.05562481199451994
1.0048023665632981,0.13271042804166153,0.22995428208260907,0.08028160564993014,0.23088182126478868,0.050564257076769634
1.0048494485884285,0.1199532079956697,0.2189942927732003,0.06958311394397716,0.2278246503798657,0.03999205379195707
1.0048965306135589,0.10352759540252561,0.20004727596402863,0.05738407400153901,0.21514674746750456,0.02915555889466974
1.0049436126386893,0.08458770500586026,0.17553696172705954,0.04469505929439128,0.1955677167307536,0.01881048409184601
1.0049906946638196,0.06411017510052013,0.15075048805665278,0.03435472552873721,0.17382305221272476,0.011226469548114033
1.00503777668895,0.043500849939608656,0.12744984789208166,0.022887706523455283,0.15104558146621155,0.0027232667525761162
1.0050848587140804,0.02497562650004661,0.10497072428103743,0.013888116903115118,0.12688214086878308,-0.00305812972233571
1.0051319407392107,0.011013597455985432,0.08878673814698382,0.011624969459267675,0.10622302742023049,-0.002556157378217672
1.0051790227643411,0.003334338693202587,0.07420073004865511,0.009001101837417943,0.08746879535413256,-0.0026698426973858947
1.0052261047894715,0.0027948227754708652,0.05786185868929815,0.005716764128480125,0.06794065774450134,-0.003337260236168604
1.0052731868146019,0.010164673003053454,0.043197006770633144,0.005314070387151807,0.048592548739282954,-0.001168211350546887
1.0053202688397322,0.026566180290056158,0.033298369953325795,0.008193549268036414,0.03362296967903025,0.0036716785201494576
1.0053673508648626,0.05291846997433676,0.027988911664923347,0.011498759854167706,0.02432699389464809,0.00817925223111633
1.005414432889993,0.08828034555015178,0.02786938340613529,0.017065936640710815,0.01885486578961543,0.014422606307423716
1.0054615149151234,0.12763762777320273,0.031096265391030133,0.025647230237824777,0.017469752382958968,0.02311393370463669
1.0055085969402537,0.16155770115500132,0.03868160229188984,0.038076850744054896,0.02308954920298175,0.03470000731269507
1.0055556789653841,0.18078890709766565,0.04744318391631583,0.05135766337998839,0.033440139973197135,0.04652050606386207
1.0056027609905145,0.18307418566708303,0.05385280577022993,0.06056084021799014,0.04476342585396593,0.05418548376784729
1.0056498430156449,0.1741533504439713,0.05743210727869733,0.06655908741414072,0.05188039294892456,0.05922586891260789
1.0056969250407752,0.16242605985016223,0.059573349474325625,0.07063087442771013,0.05729692052003357,0.0625776250662963
1.0057440070659056,0.15418810481596457,0.06102259651993484,0.07107575192890922,0.061322488090665934,0.06250418810127766
1.005791089091036,0.1523552110015489,0.06035419771053908,0.0660360559428213,0.06274047987082229,0.05730900808979782
1.0058381711161664,0.15691036178882456,0.05989138050608517,0.06130313889977103,0.06351319731952995,0.05250165393103223
1.0058852531412967,0.16538784679386007,0.06392039727737038,0.06307528196508604,0.06589321070105454,0.053958372452047085
1.005932335166427,0.17322460684996496,0.06593222913229989,0.06323184659303546,0.06782184333420334,0.05386629281089941
1.0059794171915575,0.17475929729964576,0.06413598474119285,0.05880087400333982,0.0662628217215869,0.049658156140998944
1.0060264992166879,0.16548577922015562,0.059621682512276855,0.05204155960234529,0.061270397770555284,0.04358096281767822
1.0060735812418182,0.1445721481217929,0.0527583790058317,0.04234591607178599,0.05342633793755962,0.03496508171027257
1.0061206632669486,0.11538472372115638,0.047512692994549285,0.03266210113426135,0.04490730758423469,0.026463006712490716
1.006167745292079,0.08342022676517998,0.041942766505118974,0.0259645785337829,0.03691011423225119,0.02086701128976217
1.0062148273172093,0.053714935068683495,0.0390028616888018,0.01794830890199036,0.0318394822907559,0.013582876185070227
1.0062619093423397,0.029620632829972474,0.035829934195563275,0.006428025048282717,0.028744698831904038,0.0025664962306546127
1.00630899136747,0.012907514843990737,0.0332664765087013,-0.004503164505502606,0.028766307050081534,-0.008275674759155286
1.0063560733926005,0.004292560353454192,0.034819426011094314,-0.010519166817943732,0.03387067016253126,-0.014918869872230135
1.0064031554177308,0.0038095921685766332,0.0416507027779367,-0.007972360122875525,0.04340664268737358,-0.013661531362862125
1.0064502374428612,0.010924293923755681,0.058721303483109034,0.0013341291502741227,0.06333181337891099,-0.007077473895195498
1.0064973194679916,0.02453035587728399,0.07835866552047764,0.011333716656649779,0.08610368377296701,-0.00016704795051603912
1.006544401493122,0.042966387475684646,0.09659751338767075,0.020787738978896356,0.10823872347197523,0.00631413198890592
1.0065914835182523,0.06411092062196938,0.11324797733907416,0.03329944681240632,0.1251090926758184,0.016586800210838644
1.0066385655433827,0.08556714248621351,0.1295139488704338,0.049462130528264495,0.1380228789293832,0.03109365028936545
1.006685647568513,0.10493697207975199,0.14336166959977747,0.06485229624100503,0.14704937807713447,0.04539305288047721
1.0067327295936435,0.12014720761669652,0.15161816558435667,0.07640706666955516,0.1505533727689047,0.056576555954329935
1.0067798116187738,0.12974860817624662,0.1540107672164708,0.08294186479002422,0.14720738233998187,0.0635690460058981
1.0068268936439042,0.1331160769266914,0.15097736476645857,0.08436945777741765,0.13765521923960514,0.06618476420764398
1.0068739756690346,0.13051634907150206,0.14211649673780957,0.08386978816652868,0.12390162260670391,0.06738621105383011
1.006921057694165,0.12301693370584733,0.12685177449226007,0.08185258015702256,0.10766571211480654,0.06738797521897597
1.0069681397192953,0.11219272060745543,0.10774299979055849,0.07585112215539112,0.08925252273413016,0.0637075449749281
1.0070152217444257,0.09964098937742749,0.08805664024460894,0.06985230351433948,0.06963273608420362,0.06022358375513551
1.007062303769556,0.08648287672211809,0.07059833953922662,0.06302251331950957,0.05228434743429971,0.05565883227832449
1.0071093857946865,0.07315337862299943,0.0566684725966182,0.053521194673379444,0.03788425172777879,0.048088651819111615
1.0071564678198168,0.05967551136841471,0.046637982260026065,0.042771215350936226,0.02735211774774019,0.03879701631732355
1.0072035498449472,0.046352747241279996,0.03682145597494027,0.029687677967592516,0.019355637438545424,0.0268716815183695
1.0072506318700776,0.03458526276589038,0.031127022404341703,0.01916866027493343,0.016145663025411094,0.01686530687042383
1.007297713895208,0.02727830692374265,0.03028030159578132,0.01473006896934623,0.01711089068757333,0.01233715139202026
1.0073447959203383,0.0280866607277734,0.036658616134966106,0.01711698325886342,0.023296054763703077,0.013886529579484958
1.0073918779454687,0.03925806445151868,0.053503113802543835,0.028584290137595406,0.03758275275787196,0.023377945843745574
1.007438959970599,0.059562255279517966,0.07515358123579234,0.043832242766228824,0.05532687848833124,0.036193951195942736
1.0074860419957294,0.08449757331606145,0.09591636124476358,0.058037587268334905,0.07312057536148579,0.048014961492279934
1.0075331240208598,0.10858230355013457,0.11208110606855086,0.06858033205585247,0.08936151686225263,0.05644050585223761
1.0075802060459902,0.12742598805780986,0.12202478559094257,0.07621925524513734,0.09955958544141214,0.06277421447405818
1.0076272880711206,0.13840784538629322,0.12349329829258195,0.07904744927672683,0.10283252740113065,0.06518858572589593
1.007674370096251,0.14057521646913557,0.1182540793439307,0.0769603579802706,0.10203954911146584,0.06320241981485471
1.0077214521213813,0.1345761316442056,0.10858362084554578,0.07084930100861353,0.09591897302722685,0.05787179372571298
1.0077685341465117,0.12269802495893224,0.09405651095624686,0.062425783036096825,0.08465139886106322,0.05090513370111333
1.007815616171642,0.10844877640211482,0.07861204586832361,0.054884533548136764,0.0711615499531433,0.04512932490010796
