freq,gls,usurper,pdc_unbiased,shape_periodogram,shift_periodogram
1.0,0.02176245538732735,0.013424065733078451,-0.007335655112181927,0.00980242142113962,-0.007490706028015588
1.0000470820251304,0.05134779247241603,0.017243627759397046,0.016081221596065367,0.010273802255504332,0.01591698539304947
1.0000941640502607,0.09689124580742478,0.022739405387366886,0.05094334186944231,0.01313805160112081,0.05073352639581504
1.0001412460753911,0.14848755125694818,0.026722871738892675,0.08456655871201842,0.020064916300201376,0.08425765503428471
1.0001883281005215,0.19664060203551523,0.030540890228337277,0.10917973127593883,0.031125273703987294,0.10873280080789163
1.0002354101256519,0.23592916525893703,0.034805817479108846,0.12678225514793529,0.04125794652729687,0.1262329194415247
1.0002824921507822,0.26363730657080775,0.03886193906764626,0.13936052532630389,0.04803865674612864,0.13875972454074262
1.0003295741759126,0.2780607972143743,0.0413624464674473,0.14663287491158739,0.051348646387242375,0.1460140820660407
1.000376656201043,0.27778293516045677,0.041373245367291554,0.14742341655727248,0.05396618915489167,0.14678536331990003
1.0004237382261734,0.2619162710265795,0.039598210156588896,0.139633635428265,0.054581181368222306,0.1389780589781964
1.0004708202513037,0.23107843684954268,0.036025754470398866,0.12167319492364326,0.052955659711762595,0.12100310861042983
1.0005179022764341,0.1884924826566669,0.03132255491318737,0.09811663264576473,0.05027179414401227,0.09743968430618673
1.0005649843015645,0.1401213853463462,0.027979650207262282,0.07552593926328457,0.047284632602695255,0.07485536877323973
1.0006120663266949,0.09311329616242185,0.02593924653137186,0.056936636782797936,0.0432071403803958,0.056299206219291596
1.0006591483518252,0.05338098213176131,0.026158882626079866,0.04656239048066332,0.03769842127118844,0.045992558744004465
1.0007062303769556,0.024158292773911582,0.026127241226307135,0.0379052596807291,0.03029056054592507,0.037437757622808605
1.000753312402086,0.006389706849983347,0.026871843369867462,0.024925530867037873,0.021932545829631517,0.024580407593453573
1.0008003944272164,4.4957735270936574e-05,0.027980213846830887,0.013623927240606612,0.015541322634939495,0.013377150928865076
1.0008474764523467,0.004476680458159687,0.027931085581158924,0.005279248516488982,0.014151302686152004,0.00505442470488871
1.000894558477477,0.016631009383087918,0.03272131701400026,0.00604487589630294,0.017265145678213405,0.005770877966896499
1.0009416405026075,0.030279800796216314,0.04001978385465502,0.01614856324889533,0.024103074095106654,0.01576858139989414
1.0009887225277379,0.04019506929021177,0.04766436813573252,0.031662352407458065,0.03454185091768709,0.0311293295083193
1.0010358045528682,0.045271217739530065,0.052560494736291034,0.049643587368788454,0.047492582153265024,0.048941165120999934
1.0010828865779986,0.04665854735345898,0.0580832444927043,0.06394396252727896,0.059324616729404554,0.06311046460928599
1.001129968603129,0.04557434040645729,0.061748731384045255,0.06951556918541625,0.0687942079887446,0.06858414262284733
1.0011770506282593,0.04281463251624272,0.06290965607475708,0.06676401531502141,0.07353747543415746,0.06577309556178507
1.0012241326533897,0.03911406922799136,0.06098181880740418,0.05756222886158259,0.07330331952397551,0.05654850654177785
1.00127121467852,0.035734840091298535,0.05628392618962498,0.04469056838221148,0.06996716635496916,0.04368420850336209
1.0013182967036505,0.034632288517627896,0.05209620720572351,0.03354469161607427,0.06648182395109124,0.03255864864653586
1.0013653787287808,0.03686446430802818,0.048448697005317454,0.03235087082016887,0.06401088305228161,0.031396396609778984
1.0014124607539112,0.040499198873267514,0.046972332697411544,0.04235422606047071,0.06362223261023381,0.04142523095027914
1.0014595427790416,0.04245011553894062,0.04754755024257935,0.05148956578485458,0.06522894442565662,0.05055891662595262
1.001506624804172,0.04142424671447975,0.047826645396262045,0.057489670337512934,0.06395094299366517,0.0565875321744528
1.0015537068293023,0.03772147907862947,0.048460224971677006,0.05838903434484734,0.05844825321754556,0.0575564817018998
1.0016007888544327,0.032149333674356434,0.04594648122020617,0.05286952532393206,0.04958629222788548,0.05214284098671211
1.001647870879563,0.025799799790141527,0.03998179737009339,0.040386054375886556,0.03755459218594517,0.03981421368996725
1.0016949529046935,0.020580986012262138,0.03203883582562289,0.02276083148008517,0.024876289724967377,0.02237023589870677
1.0017420349298238,0.01993155776046648,0.028721355491614083,0.008396000375120035,0.01634164217558243,0.008136606719142979
1.0017891169549542,0.027489951613850306,0.02860429372178583,0.00883020356959996,0.016402123727062838,0.00856986426250873
1.0018361989800846,0.042074300128446054,0.02930964533000454,0.022145335055818467,0.021077886288592404,0.021812987717349668
1.001883281005215,0.05845891480384451,0.0346448957428193,0.04104344236602053,0.029752604990297398,0.040585026776163
1.0019303630303453,0.07582159493280267,0.03838070898995285,0.05832937685591873,0.04032712768041324,0.05773183047471687
1.0019774450554757,0.09824195100672209,0.03857028815960034,0.07041397317164165,0.05254761046856708,0.06967278375897037
1.002024527080606,0.1303669711588208,0.03435795763726911,0.07896421651578898,0.059930362572015235,0.07815123404166895
1.0020716091057364,0.17464242099810953,0.030167894409493044,0.08832693698111686,0.0644703309144708,0.0874847543839253
1.0021186911308668,0.22917237164395338,0.030018324612941245,0.11355266104308831,0.06800459836900304,0.11273715336255168
1.0021657731559972,0.2864808872447173,0.032899340658371495,0.14880372324738836,0.07154658223319421,0.14805785387472023
1.0022128551811276,0.335488571803669,0.035606619511346936,0.17945522269565434,0.07478282448046342,0.17878725631449446
1.002259937206258,0.3667004160945303,0.03678116502854058,0.20044309409803335,0.07657433456264656,0.1998386292074704
1.0023070192313883,0.37630521047742305,0.03623391054294956,0.20989430295355302,0.07635895983026166,0.20931994945140012
1.0023541012565187,0.3658732131217113,0.03452203119644099,0.20800353236518512,0.07434957442820007,0.20742288798192302
1.002401183281649,0.3393357840705059,0.0331498925751229,0.19716291122807472,0.07149668067943042,0.19655273084116084
1.0024482653067794,0.30043566038503033,0.03180420602255374,0.1783931936762516,0.06475862570355417,0.17775305119168813
1.0024953473319098,0.25183659939415354,0.029538236005983102,0.15384153094853617,0.05244017228832262,0.1532251412522275
1.0025424293570402,0.1956066522565673,0.024820775654821565,0.12081929242955049,0.036633645935366055,0.12031488934246452
1.0025895113821706,0.13475970805500284,0.02147287627296492,0.07564140824241966,0.01702912965698553,0.07537474150364913
1.002636593407301,0.07582916802294695,0.020582527040085806,0.025728531183742454,0.0010140576552569076,0.025709219971239095
1.0026836754324313,0.03145358980808763,0.01767022863603421,-0.0040036080406334615,0.00034201166062215006,-0.004008533495097953
1.0027307574575617,0.01779891286180085,0.016638383705188615,-0.006351274616742859,0.015919317400518402,-0.006604038532244825
1.002777839482692,0.04358985242398123,0.019048283936011497,0.006591376950054447,0.035962126792276644,0.0060235227521874095
1.0028249215078224,0.1037077589167159,0.030595052181611487,0.04281328660270074,0.05226354381006764,0.04203772325583745
1.0028720035329528,0.18101238562213362,0.04490140554365151,0.0979436666785688,0.05920507027115969,0.09717368490956149
1.0029190855580832,0.25636899888384335,0.05508662744734749,0.15380629462607742,0.060812737266064024,0.1531325068445086
1.0029661675832136,0.31832235074100634,0.0587549481237084,0.19704252226634572,0.061763978730906374,0.19645496771236573
1.003013249608344,0.36361141655314383,0.06219557903309658,0.228525784613192,0.06146029656985014,0.22800652156083895
1.0030603316334743,0.39341420767750745,0.06299239521480175,0.24979870354304085,0.05871226170956217,0.2493260318669542
1.0031074136586047,0.4102870696014962,0.06171861400086734,0.26258314989231946,0.056356635824126505,0.26213626743541724
1.003154495683735,0.41662904201390033,0.05956294138642582,0.266777273312063,0.053330184049745724,0.26634002350721964
1.0032015777088654,0.41405085665469693,0.05644286464819603,0.26326150551395927,0.04944014041070413,0.26282487528656917
1.0032486597339958,0.4030953535584088,0.05231851887778516,0.251751202986526,0.04453900750096802,0.2513139886547488
1.0032957417591262,0.38301151602067063,0.04713728945676915,0.2324239377319079,0.03870455230329289,0.2319952050456438
1.0033428237842565,0.3514583105172215,0.040754844552204086,0.2047530276495091,0.031983772761209325,0.2043522128899321
1.003389905809387,0.3042863356687068,0.0329488603644936,0.16911475512504195,0.02473681651855888,0.168768173952619
1.0034369878345173,0.2364892670841809,0.02435307420875292,0.12615890065588273,0.017161888362988088,0.12589549287491766
1.0034840698596477,0.14805992805189566,0.01613359350127287,0.07745804013496241,0.00960597948268175,0.07730073897968531
1.003531151884778,0.05937981673678241,0.011487210300387624,0.035632586371168055,0.00410037787773533,0.035563423457252066
1.0035782339099084,0.016571701488668728,0.012495000275903351,0.012038086514572617,0.002335380151086185,0.011999532478454606
1.0036253159350388,0.04141534161646615,0.020664932702502522,0.014399178728297872,0.00798082555412628,0.014271149893182655
1.0036723979601692,0.0978579156313711,0.034407315203339714,0.03595348541122598,0.021455850225940522,0.03561715799282391
1.0037194799852995,0.14599333246590304,0.05253425462635397,0.06503465797160808,0.03455857738699674,0.06451965177245868
1.00376656201043,0.17300879075255565,0.06652210288793223,0.0922030709843016,0.04549133288132391,0.09157242975352874
1.0038136440355603,0.18229222765708752,0.07540995511538504,0.11374971918924169,0.05181768579739267,0.11307865749123723
1.0038607260606907,0.18262972424027749,0.07859118781711745,0.12736778710133306,0.05488103102985669,0.12668952090864802
1.003907808085821,0.18292620727983336,0.08129402627580695,0.13485525602086357,0.05652030894547425,0.13417606082907718
1.0039548901109514,0.18798821740501145,0.08313652939641701,0.13913083302593265,0.0587408819652286,0.13844228517349105
1.0040019721360818,0.19658928748535154,0.08104860273349686,0.1397247738744464,0.05986030596627138,0.13902914529197105
1.0040490541612122,0.20361099360789395,0.07520222294467695,0.1356935801867525,0.06158787349652213,0.1349772551275153
1.0040961361863425,0.20356945018764083,0.06712300415668236,0.1287855413388881,0.06025247804483886,0.1280653691123042
1.004143218211473,0.19261735903368254,0.059761667369819374,0.11776025800915435,0.0593102068991155,0.11702654308597411
1.0041903002366033,0.1692114287165738,0.05031017750072501,0.09836742477706704,0.055267441145344286,0.09763809384975913
1.0042373822617336,0.13469585530973552,0.039820806143510475,0.07519967777083232,0.04711538030172713,0.07453080785542938
1.004284464286864,0.094068350002802,0.02883390363663794,0.051842634052145065,0.037618384490836355,0.05127744613143474
1.0043315463119944,0.0558705414627791,0.01853003200645088,0.03082107495389939,0.026401140285434884,0.030409214406167603
1.0043786283371248,0.029785725493520713,0.012189907438546482,0.019809015244991575,0.015504202681965553,0.019562860149790275
1.0044257103622551,0.022326134922130727,0.009109972631724231,0.01684685304795892,0.0069161796300947365,0.016735371936490932
1.0044727923873855,0.03362727707623793,0.008796332045983627,0.01768087969631584,0.002061402820029727,0.01764597677105843
1.004519874412516,0.057935866130881315,0.010987678931296778,0.0238553638180855,0.0013583221161010512,0.023830833717641962
1.0045669564376463,0.08691312585069338,0.015552293684490176,0.038233159934289905,0.0063672204266463405,0.038128251428831715
1.0046140384627766,0.11302745450084833,0.02092766585395004,0.05542672474865837,0.017175631722793,0.055156431518961636
1.004661120487907,0.13143773576861661,0.026891714733203283,0.07126698378066398,0.03042155138343619,0.0708113179933555
1.0047082025130374,0.140315951549541,0.03267497432758747,0.0817840112464661,0.04365384927080302,0.08116444655263895
1.0047552845381678,0.14016084842095028,0.03391693064945842,0.0846685751900148,0.05472022055584018,0.08392329815640438
1.0048023665632981,0.13271042804166153,0.03264270538317594,0.08028160564993014,0.0631188113198668,0.07943639386353168
1.0048494485884285,0.1199532079956697,0.028842310642553423,0.06958311394397716,0.0689105028381473,0.06865056441638485
1.0048965306135589,0.10352759540252561,0.027321071451210828,0.05738407400153901,0.0718960041868582,0.05638638593018487
1.0049436126386893,0.08458770500586026,0.025191685202066764,0.04469505929439128,0.07017758757487742,0.04368601717640146
1.0049906946638196,0.06411017510052013,0.02328998885011304,0.03435472552873721,0.0649504772587683,0.03339141101094231
1.00503777668895,0.043500849939608656,0.019717086077648525,0.022887706523455283,0.058329722194958494,0.02199688267032152
1.0050848587140804,0.02497562650004661,0.015358381572245354,0.013888116903115118,0.050773276627171245,0.01309737339378467
1.0051319407392107,0.011013597455985432,0.010783321472938043,0.011624969459267675,0.04226794080284949,0.01096236039662737
1.0051790227643411,0.003334338693202587,0.008846399881002493,0.009001101837417943,0.0312787477734024,0.008507589072104372
1.0052261047894715,0.0027948227754708652,0.006135212396822289,0.005716764128480125,0.018303173845723313,0.005426375289910421
1.0052731868146019,0.010164673003053454,0.005698975586193558,0.005314070387151807,0.007483359455162225,0.005194741233941929
1.0053202688397322,0.026566180290056158,0.006856406205383311,0.008193549268036414,0.0006054761811363677,0.00818290622989445
1.0053673508648626,0.05291846997433676,0.007950384248089522,0.011498759854167706,-0.003702371179304217,0.011556159016893806
1.005414432889993,0.08828034555015178,0.007701580805729086,0.017065936640710815,-0.004758322000880559,0.017139492742555457
1.0054615149151234,0.12763762777320273,0.008893736781126187,0.025647230237824777,-0.0019321880974177683,0.025674693827184434
1.0055085969402537,0.16155770115500132,0.011117204981719534,0.038076850744054896,0.005658685272557993,0.037983020276728
1.0055556789653841,0.18078890709766565,0.014261470466831528,0.05135766337998839,0.01569787923294961,0.05110924112196737
1.0056027609905145,0.18307418566708303,0.01554718802691808,0.06056084021799014,0.026430189740402992,0.06015684455488179
1.0056498430156449,0.1741533504439713,0.01806278606326888,0.06655908741414072,0.0367100498188207,0.0660160453725653
1.0056969250407752,0.16242605985016223,0.019209351691401817,0.07063087442771013,0.04559308003179477,0.06997592311708824
1.0057440070659056,0.15418810481596457,0.01777922640594796,0.07107575192890922,0.051174592023417904,0.07035216744953225
1.005791089091036,0.1523552110015489,0.014043555368796787,0.0660360559428213,0.05314270947829405,0.06528134423446705
1.0058381711161664,0.15691036178882456,0.012294348785662492,0.06130313889977103,0.05290365321708732,0.06054465534028648
1.0058852531412967,0.16538784679386007,0.011969554623097494,0.06307528196508604,0.05005955639476412,0.06235514505051034
1.005932335166427,0.17322460684996496,0.011592518154960516,0.06323184659303546,0.045268100326799066,0.06257335981522691
1.0059794171915575,0.17475929729964576,0.00909151113286307,0.05880087400333982,0.038618513573807085,0.058226792517998026
1.0060264992166879,0.16548577922015562,0.0062435796149094315,0.05204155960234529,0.032808756022373826,0.05154389719339407
1.0060735812418182,0.1445721481217929,0.003973995718305338,0.04234591607178599,0.02675049888978428,0.041931992876960485
1.0061206632669486,0.11538472372115638,0.001510612960817937,0.03266210113426135,0.021392486675084466,0.0323262779879526
1.006167745292079,0.08342022676517998,0.0012565266540320212,0.0259645785337829,0.016940512945370932,0.025696305718974667
1.0062148273172093,0.053714935068683495,0.0028481406517991046,0.01794830890199036,0.013756102214827192,0.017729429541880438
1.0062619093423397,0.029620632829972474,0.005307352881098972,0.006428025048282717,0.012495961831761033,0.00622932068601371
1.00630899136747,0.012907514843990737,0.007800393493437267,-0.004503164505502606,0.011352222247577343,-0.004683126866112597
1.0063560733926005,0.004292560353454192,0.011814932754647284,-0.010519166817943732,0.011365197732397563,-0.010698941463116184
1.0064031554177308,0.0038095921685766332,0.01655533794818575,-0.007972360122875525,0.012139043723297991,-0.008164663929756063
1.0064502374428612,0.010924293923755681,0.023191024268906523,0.0013341291502741227,0.01506611586799335,0.001094888201330833
1.0064973194679916,0.02453035587728399,0.030208455981490773,0.011333716656649779,0.019759614508518458,0.01102078449519816
1.006544401493122,0.042966387475684646,0.03597612237328974,0.020787738978896356,0.024017258537333268,0.020409936858465993
1.0065914835182523,0.06411092062196938,0.04072819884197788,0.03329944681240632,0.028346387412708354,0.03285914017321132
1.0066385655433827,0.08556714248621351,0.046123550506969195,0.049462130528264495,0.03242654320506925,0.048968648679881835
1.006685647568513,0.10493697207975199,0.048351594115349,0.06485229624100503,0.03568481959446881,0.0643219420147749
1.0067327295936435,0.12014720761669652,0.04820053994873632,0.07640706666955516,0.03730671853486766,0.07586283709267051
1.0067798116187738,0.12974860817624662,0.04488625300489416,0.08294186479002422,0.03676757352581978,0.08240905470650838
1.0068268936439042,0.1331160769266914,0.04116698282294093,0.08436945777741765,0.034128375265057895,0.08387131177790852
1.0068739756690346,0.13051634907150206,0.037307729432138705,0.08386978816652868,0.030858062094628155,0.08341394931540853
1.006921057694165,0.12301693370584733,0.03239753524979382,0.08185258015702256,0.024825073191577642,0.0814770749456851
1.0069681397192953,0.11219272060745543,0.025854384612140575,0.07585112215539112,0.018330448969890962,0.07556571463904757
1.0070152217444257,0.09964098937742749,0.018368781568151454,0.06985230351433948,0.012492069993296367,0.06965206548012494
1.007062303769556,0.08648287672211809,0.01219358789910954,0.06302251331950957,0.008123275992189675,0.06288846470619289
1.0071093857946865,0.07315337862299943,0.006866839602028346,0.053521194673379444,0.004969953109173017,0.05343655887462992
1.0071564678198168,0.05967551136841471,0.0012262229573436147,0.042771215350936226,0.002100524377418732,0.0427326707714895
1.0072035498449472,0.046352747241279996,-0.0027161467090081716,0.029687677967592516,0.001260832482051109,0.02966397178034369
1.0072506318700776,0.03458526276589038,-0.005428427286605835,0.01916866027493343,0.0019066590953373405,0.01913602544226367
1.007297713895208,0.02727830692374265,-0.005834273438962516,0.01473006896934623,0.0026100550539652286,0.014686837644695569
1.0073447959203383,0.0280866607277734,-0.004534336144625061,0.01711698325886342,0.004883582886062162,0.017037529150110284
1.0073918779454687,0.03925806445151868,-0.00020228541286825444,0.028584290137595406,0.009841524505540404,0.028426006984140467
1.007438959970599,0.059562255279517966,0.006471706508328427,0.043832242766228824,0.015465932413927687,0.04358708996321851
1.0074860419957294,0.08449757331606145,0.012592473715389385,0.058037587268334905,0.022567950630826242,0.05768843715093765
1.0075331240208598,0.10858230355013457,0.01766535813622407,0.06858033205585247,0.028153223409824644,0.06815477178659024
1.0075802060459902,0.12742598805780986,0.020767015521498417,0.07621925524513734,0.03199397067691332,0.07574469522604885
1.0076272880711206,0.13840784538629322,0.02308730161802878,0.07904744927672683,0.034760729207069754,0.07853796727111627
1.007674370096251,0.14057521646913557,0.02322843856958446,0.0769603579802706,0.036408666368487295,0.07642813810372374
1.0077214521213813,0.1345761316442056,0.020917134863180434,0.07084930100861353,0.036183559014178794,0.07031604928811475
