freq,gls,usurper,pdc_unbiased,shape_periodogram,shift_periodogram
1.0,0.02176245538732735,0.013391881599124323,-0.007335655112181927,0.01069400462013788,-0.0075531862509811525
1.0000470820251304,0.05134779247241603,0.01779696476992625,0.016081221596065367,0.011637716314756727,0.01584107813429336
1.0000941640502607,0.09689124580742478,0.024232677235246365,0.05094334186944231,0.01564622816716034,0.050620232367750935
1.0001412460753911,0.14848755125694818,0.02957246566709422,0.08456655871201842,0.023920710140008062,0.08408901788026443
1.0001883281005215,0.19664060203551523,0.03498146933342611,0.10917973127593883,0.03656570205506634,0.10849448908665695
1.0002354101256519,0.23592916525893703,0.04053753753663305,0.12678225514793529,0.04783679843894655,0.12594330432365455
1.0002824921507822,0.26363730657080775,0.045472568797137666,0.13936052532630389,0.055416511489735934,0.13844015243320382
1.0003295741759126,0.2780607972143743,0.048570446898037495,0.14663287491158739,0.05929898937183106,0.14567994630640274
1.000376656201043,0.27778293516045677,0.048959225650258044,0.14742341655727248,0.062157251196189645,0.14644034820576432
1.0004237382261734,0.2619162710265795,0.04729362826382349,0.139633635428265,0.06266144250936408,0.13862797964300386
1.0004708202513037,0.23107843684954268,0.043604878739930415,0.12167319492364326,0.060602251781216844,0.12065473171381855
1.0005179022764341,0.1884924826566669,0.038670635593700056,0.09811663264576473,0.05734806799622389,0.09709875860421777
1.0005649843015645,0.1401213853463462,0.035219330382160685,0.07552593926328457,0.054054682309507586,0.07452268600276692
1.0006120663266949,0.09311329616242185,0.03324052044729212,0.056936636782797936,0.04999548008571234,0.05597722010591946
1.0006591483518252,0.05338098213176131,0.033385085358145314,0.04656239048066332,0.0445569838152209,0.045689846001065626
1.0007062303769556,0.024158292773911582,0.03309753705917084,0.0379052596807291,0.03699996983860771,0.03716785357183021
1.000753312402086,0.006389706849983347,0.03340576935996822,0.024925530867037873,0.02816916493114236,0.024354556708065928
1.0008003944272164,4.4957735270936574e-05,0.03373889261903789,0.013623927240606612,0.020984513586023556,0.01319504877380079
1.0008474764523467,0.004476680458159687,0.033058386078078025,0.005279248516488982,0.01885219414332645,0.004893575500541736
1.000894558477477,0.016631009383087918,0.037446161698777417,0.00604487589630294,0.021546089627003332,0.0056044019467381715
1.0009416405026075,0.030279800796216314,0.044637684697399094,0.01614856324889533,0.02836114675389684,0.015571794234597805
1.0009887225277379,0.04019506929021177,0.05258774683446816,0.031662352407458065,0.039142005968974714,0.030880253246153233
1.0010358045528682,0.045271217739530065,0.05793889392225328,0.049643587368788454,0.052532632344363346,0.048630018307747866
1.0010828865779986,0.04665854735345898,0.06372573476389407,0.06394396252727896,0.06463616940778619,0.06274771749291776
1.001129968603129,0.04557434040645729,0.06723302280544186,0.06951556918541625,0.07404261741725612,0.06818423860317953
1.0011770506282593,0.04281463251624272,0.06778626401035145,0.06676401531502141,0.07831185572089529,0.06535925539271235
1.0012241326533897,0.03911406922799136,0.06528617014532674,0.05756222886158259,0.07743662045952225,0.056142656021363174
1.00127121467852,0.035734840091298535,0.06004267221060813,0.04469056838221148,0.07343709259027552,0.04330078733333011
1.0013182967036505,0.034632288517627896,0.05551460457998205,0.03354469161607427,0.06963514429191785,0.03219429045114948
1.0013653787287808,0.03686446430802818,0.05213689900953743,0.03235087082016887,0.06748459812456932,0.03103707807190209
1.0014124607539112,0.040499198873267514,0.0511766264212797,0.04235422606047071,0.06783056204951181,0.04105652525135904
1.0014595427790416,0.04245011553894062,0.05272089947382382,0.05148956578485458,0.07040673985719677,0.050169036480209594
1.001506624804172,0.04142424671447975,0.053993891255672985,0.057489670337512934,0.0700521630289924,0.056189921352735615
1.0015537068293023,0.03772147907862947,0.05517413743444121,0.05838903434484734,0.06514643791525837,0.057172583799091896
1.0016007888544327,0.032149333674356434,0.052819610787741875,0.05286952532393206,0.056441649813384426,0.05179156077883211
1.001647870879563,0.025799799790141527,0.04655772703661375,0.040386054375886556,0.04405095336302629,0.039517408381141116
1.0016949529046935,0.020580986012262138,0.0379711897059256,0.02276083148008517,0.03060783809098264,0.02214110614708149
1.0017420349298238,0.01993155776046648,0.033916585013745726,0.008396000375120035,0.021264556645451255,0.007961311546212695
1.0017891169549542,0.027489951613850306,0.033337802611108004,0.00883020356959996,0.02086105106098272,0.008403706572894035
1.0018361989800846,0.042074300128446054,0.033968697644568585,0.022145335055818467,0.02545589591038479,0.021627612871394485
1.001883281005215,0.05845891480384451,0.039615644796085994,0.04104344236602053,0.03446639648128335,0.04035586016804034
1.0019303630303453,0.07582159493280267,0.04376103803060725,0.05832937685591873,0.045479588913898715,0.057451259797923156
1.0019774450554757,0.09824195100672209,0.04438606905692873,0.07041397317164165,0.058145253507212925,0.06933590681194797
1.002024527080606,0.1303669711588208,0.04034416530572878,0.07896421651578898,0.06544160234341521,0.07778780789794694
1.0020716091057364,0.17464242099810953,0.036124930315681446,0.08832693698111686,0.06989864571139189,0.0871073266059496
1.0021186911308668,0.22917237164395338,0.035985470669178225,0.11355266104308831,0.07353485568945388,0.11235468718608191
1.0021657731559972,0.2864808872447173,0.03894560365364178,0.14880372324738836,0.07747350114493942,0.14767525206721374
1.0022128551811276,0.335488571803669,0.04191488671505534,0.17945522269565434,0.08115030237123944,0.17840825896219145
1.002259937206258,0.3667004160945303,0.043209627742976583,0.20044309409803335,0.08323055794385294,0.19946650109598396
1.0023070192313883,0.37630521047742305,0.04265792949755531,0.20989430295355302,0.08306944736742088,0.20895485442491457
1.0023541012565187,0.3658732131217113,0.04081692448812616,0.20800353236518512,0.08091088548002268,0.20706290699942767
1.002401183281649,0.3393357840705059,0.03898873810794918,0.19716291122807472,0.07764800052683889,0.19619628783211054
1.0024482653067794,0.30043566038503033,0.03699724302230458,0.1783931936762516,0.07028026012906605,0.17741256465411584
1.0024953473319098,0.25183659939415354,0.034001013792793994,0.15384153094853617,0.0571102769139468,0.15292711338487994
1.0025424293570402,0.1956066522565673,0.028331145599422465,0.12081929242955049,0.04018997916841583,0.12008610181680492
1.0025895113821706,0.13475970805500284,0.023794589005265845,0.07564140824241966,0.019381470490836227,0.07524684200559414
1.002636593407301,0.07582916802294695,0.021664057428064768,0.025728531183742454,0.0023580654998556568,0.02567506217820193
1.0026836754324313,0.03145358980808763,0.018327792484366914,-0.0040036080406334615,0.001541992706398614,-0.004034302913336134
1.0027307574575617,0.01779891286180085,0.018165682721230553,-0.006351274616742859,0.017911400606274525,-0.006717219567650155
1.002777839482692,0.04358985242398123,0.022026289111133763,0.006591376950054447,0.03880321132756335,0.0058010388128158065
1.0028249215078224,0.1037077589167159,0.034615148855910376,0.04281328660270074,0.05626874630104454,0.04172294114888496
1.0028720035329528,0.18101238562213362,0.04973705308538669,0.0979436666785688,0.06443593880872624,0.09682391383136381
1.0029190855580832,0.25636899888384335,0.06076916576078378,0.15380629462607742,0.06749400037538424,0.15278344285767825
1.0029661675832136,0.31832235074100634,0.06508716250130338,0.19704252226634572,0.06955742363321758,0.1961189882258174
1.003013249608344,0.36361141655314383,0.06880606865866323,0.228525784613192,0.06979410453759867,0.22768968881079757
1.0030603316334743,0.39341420767750745,0.0696862201628875,0.24979870354304085,0.0672244748651923,0.24902972590347308
1.0031074136586047,0.4102870696014962,0.06847733135083896,0.26258314989231946,0.06484784134616248,0.2618537217262079
1.003154495683735,0.41662904201390033,0.0663123206489176,0.266777273312063,0.06162807610603201,0.2660669522258992
1.0032015777088654,0.41405085665469693,0.0631272646937322,0.26326150551395927,0.05739973451635848,0.2625591502192813
1.0032486597339958,0.4030953535584088,0.05887489378354632,0.251751202986526,0.052056278250138296,0.2510556930335985
1.0032957417591262,0.38301151602067063,0.05348696288064394,0.2324239377319079,0.04564249577550409,0.23174761804768904
1.0033428237842565,0.3514583105172215,0.04681143221638302,0.2047530276495091,0.03814433452716274,0.20412282176693164
1.003389905809387,0.3042863356687068,0.03855376874671471,0.16911475512504195,0.029877925395595816,0.1685685645394195
1.0034369878345173,0.2364892670841809,0.029350498287343308,0.12615890065588273,0.021123808298809704,0.1257388925513237
1.0034840698596477,0.14805992805189566,0.020372704263805153,0.07745804013496241,0.012385327792696917,0.07719686642420358
1.003531151884778,0.05937981673678241,0.014975401131336476,0.035632586371168055,0.0059209487181964325,0.035504937874682084
1.0035782339099084,0.016571701488668728,0.015770594439651238,0.012038086514572617,0.0038763772927364808,0.011956420475626226
1.0036253159350388,0.04141534161646615,0.024236649038225273,0.014399178728297872,0.010076858339212546,0.014190920226022426
1.0036723979601692,0.0978579156313711,0.038494339614845136,0.03595348541122598,0.024545651141141402,0.0354557440810748
1.0037194799852995,0.14599333246590304,0.05700091817654889,0.06503465797160808,0.0388599668797328,0.06427991004489629
1.00376656201043,0.17300879075255565,0.07119857861561191,0.0922030709843016,0.0507190357592409,0.09127649751496279
1.0038136440355603,0.18229222765708752,0.0801836933861521,0.11374971918924169,0.057701154755802196,0.11275454490918842
1.0038607260606907,0.18262972424027749,0.08330482010661507,0.12736778710133306,0.06133128412521723,0.12635176989237534
1.003907808085821,0.18292620727983336,0.08600538962440861,0.13485525602086357,0.06328508365642743,0.13383191697967622
1.0039548901109514,0.18798821740501145,0.08791153987540923,0.13913083302593265,0.06555495244859907,0.13809171595610473
1.0040019721360818,0.19658928748535154,0.08581886026690148,0.1397247738744464,0.06651106851872747,0.1386766711421501
1.0040490541612122,0.20361099360789395,0.0801570699310307,0.1356935801867525,0.06812791596064535,0.13461780808740664
1.0040961361863425,0.20356945018764083,0.07212996204709074,0.1287855413388881,0.06656514301460019,0.12771007368218923
1.004143218211473,0.19261735903368254,0.06471503920061246,0.11776025800915435,0.06502180104990651,0.11667734007856559
1.0041903002366033,0.1692114287165738,0.05514183711011937,0.09836742477706704,0.06022076103471379,0.0973083208905602
1.0042373822617336,0.13469585530973552,0.04435225832288615,0.07519967777083232,0.05124622626302883,0.07424202401412228
1.004284464286864,0.094068350002802,0.032856298508260585,0.051842634052145065,0.040754730249579235,0.0510441503976756
1.0043315463119944,0.0558705414627791,0.022165977134933734,0.03082107495389939,0.028721909725452594,0.030240671829215606
1.0043786283371248,0.029785725493520713,0.01544415703876785,0.019809015244991575,0.017351907330219827,0.019453229568451084
1.0044257103622551,0.022326134922130727,0.012358386013839207,0.01684685304795892,0.008759888540432456,0.01666494129665697
1.0044727923873855,0.03362727707623793,0.012263172053195772,0.01768087969631584,0.004433465001285783,0.017586752709635927
1.004519874412516,0.057935866130881315,0.014928643812525533,0.0238553638180855,0.00454176368585549,0.023757842248324786
1.0045669564376463,0.08691312585069338,0.019971251316708506,0.038233159934289905,0.010370554743424184,0.03801564505261634
1.0046140384627766,0.11302745450084833,0.02596128914593686,0.05542672474865837,0.02203657782371588,0.05497997919599035
1.004661120487907,0.13143773576861661,0.03233816102511355,0.07126698378066398,0.036139098425049344,0.07056468544003064
1.0047082025130374,0.140315951549541,0.03853370295109963,0.0817840112464661,0.04998640393670311,0.08085552621308562
1.0047552845381678,0.14016084842095028,0.04003169053620452,0.0846685751900148,0.061434978621218654,0.08356492455253936
1.0048023665632981,0.13271042804166153,0.03890776792975375,0.08028160564993014,0.06993324446595504,0.07904093578369459
1.0048494485884285,0.1199532079956697,0.03508444317724765,0.06958311394397716,0.07548299941589257,0.06823000258495344
1.0048965306135589,0.10352759540252561,0.033291891523450384,0.05738407400153901,0.07797242079696651,0.055955358573559
1.0049436126386893,0.08458770500586026,0.030799651070343423,0.04469505929439128,0.07573036790920028,0.04326583390170158
1.0049906946638196,0.06411017510052013,0.028219587551933042,0.03435472552873721,0.06985847939662244,0.03300218127824353
1.00503777668895,0.043500849939608656,0.02404565059283525,0.022887706523455283,0.062486283053104504,0.02164855673423681
1.0050848587140804,0.02497562650004661,0.019118280070462266,0.013888116903115118,0.05418434416382133,0.012796446134812449
1.0051319407392107,0.011013597455985432,0.013814064460230398,0.011624969459267675,0.04515171547291497,0.010710457129250164
1.0051790227643411,0.003334338693202587,0.011029881260459057,0.009001101837417943,0.03353253766177724,0.008318365158390125
1.0052261047894715,0.0027948227754708652,0.007446400501300851,0.005716764128480125,0.019769551325753844,0.005312415306701127
1.0052731868146019,0.010164673003053454,0.006433728505086184,0.005314070387151807,0.008291064319280029,0.0051436232575920475
1.0053202688397322,0.026566180290056158,0.007282024693595288,0.008193549268036414,0.0012055392312108647,0.008167196391985822
1.0053673508648626,0.05291846997433676,0.008505809190675938,0.011498759854167706,-0.0027247080478505245,0.01155209789372731
1.005414432889993,0.08828034555015178,0.008428947696505491,0.017065936640710815,-0.003448295017277342,0.017132945299179907
1.0054615149151234,0.12763762777320273,0.009709925049788083,0.025647230237824777,-0.0005618523895359974,0.025653352784331153
1.0055085969402537,0.16155770115500132,0.012247401093877073,0.038076850744054896,0.00712488964302917,0.03792450285525484
1.0055556789653841,0.18078890709766565,0.015787972615694777,0.05135766337998839,0.01737283724583004,0.05100081989574741
1.0056027609905145,0.18307418566708303,0.017379255164622503,0.06056084021799014,0.028411456692442827,0.05999461608656602
1.0056498430156449,0.1741533504439713,0.020124777782361398,0.06655908741414072,0.038998752600595404,0.06580293282881691
1.0056969250407752,0.16242605985016223,0.021348295376728946,0.07063087442771013,0.04804437815949409,0.06972122343603383
1.0057440070659056,0.15418810481596457,0.01992407526464743,0.07107575192890922,0.05375391105255112,0.07007090926893442
1.005791089091036,0.1523552110015489,0.016280572153062035,0.0660360559428213,0.05572068171680102,0.06499089925005266
1.0058381711161664,0.15691036178882456,0.01458392698160833,0.06130313889977103,0.0552943870954519,0.060257920206717816
1.0058852531412967,0.16538784679386007,0.014278445660936369,0.06307528196508604,0.052257311583112566,0.06208445341743303
1.005932335166427,0.17322460684996496,0.013956957140917148,0.06323184659303546,0.047313217320413124,0.06232654442666585
1.0059794171915575,0.17475929729964576,0.011387730206931072,0.05880087400333982,0.04048333330226181,0.058012523416749305
1.0060264992166879,0.16548577922015562,0.008352853925294642,0.05204155960234529,0.03427723797523217,0.051362783049284585
1.0060735812418182,0.1445721481217929,0.005806098498826267,0.04234591607178599,0.02778470762707054,0.041786601309598125
1.0061206632669486,0.11538472372115638,0.0032608944497522258,0.03266210113426135,0.022184310770164244,0.03221033184744213
1.006167745292079,0.08342022676517998,0.003019391594599573,0.0259645785337829,0.01774522583969679,0.025600723599052362
1.0062148273172093,0.053714935068683495,0.004862910867456483,0.01794830890199036,0.014841290878320645,0.017643198112703935
1.0062619093423397,0.029620632829972474,0.007706950868449374,0.006428025048282717,0.014211751420628327,0.006136743245715563
1.00630899136747,0.012907514843990737,0.010392331720187362,-0.004503164505502606,0.013570678585233755,-0.004780121984561031
1.0063560733926005,0.004292560353454192,0.01449440710521861,-0.010519166817943732,0.014058955811291105,-0.010805437874065465
1.0064031554177308,0.0038095921685766332,0.018886436573760778,-0.007972360122875525,0.015061217496931602,-0.008279545558120808
1.0064502374428612,0.010924293923755681,0.025179005636583145,0.0013341291502741227,0.017978983587975433,0.0009664068899263207
1.0064973194679916,0.02453035587728399,0.03202603472715787,0.011333716656649779,0.022602058800762072,0.010872085964735953
1.006544401493122,0.042966387475684646,0.03761914698261954,0.020787738978896356,0.026867984098121373,0.020241700534642533
1.0065914835182523,0.06411092062196938,0.042323744694636296,0.03329944681240632,0.031101552671662907,0.03267341416504205
1.0066385655433827,0.08556714248621351,0.047753544138082894,0.049462130528264495,0.03515873609332886,0.048765632166428846
1.006685647568513,0.10493697207975199,0.05010683372508661,0.06485229624100503,0.03851138143411725,0.06410364831626526
1.0067327295936435,0.12014720761669652,0.049959402460668115,0.07640706666955516,0.040266551196657306,0.0756360049841204
1.0067798116187738,0.12974860817624662,0.04663640139448582,0.08294186479002422,0.039521415236839226,0.08218860577760578
1.0068268936439042,0.1331160769266914,0.04288120807712935,0.08436945777741765,0.03654885571236507,0.08366806680563978
1.0068739756690346,0.13051634907150206,0.03898024279288681,0.08386978816652868,0.032877889768250575,0.083231861138036
1.006921057694165,0.12301693370584733,0.034012774950290904,0.08185258015702256,0.02637111944680693,0.08132986716218951
1.0069681397192953,0.11219272060745543,0.02747845737330827,0.07585112215539112,0.01942568283057244,0.07545573829050793
1.0070152217444257,0.09964098937742749,0.020055291252443867,0.06985230351433948,0.013245131990898306,0.06957500596871659
1.007062303769556,0.08648287672211809,0.014112244575662623,0.06302251331950957,0.008835117930999722,0.06283226171374005
1.0071093857946865,0.07315337862299943,0.008958421388867226,0.053521194673379444,0.005787747923907782,0.053393100022302846
1.0071564678198168,0.05967551136841471,0.003450915009627933,0.042771215350936226,0.003184701308798517,0.04269757027856404
1.0072035498449472,0.046352747241279996,-0.00014506131588009965,0.029687677967592516,0.0027394618323192577,0.029625651003742853
1.0072506318700776,0.03458526276589038,-0.0025283531998990883,0.01916866027493343,0.0037381268051625022,0.019088399756762804
1.007297713895208,0.02727830692374265,-0.0026225475574311605,0.01473006896934623,0.004780619277462577,0.014629444059005561
1.0073447959203383,0.0280866607277734,-0.001010226117610875,0.01711698325886342,0.007470103535588857,0.0169612111425782
1.0073918779454687,0.03925806445151868,0.003658351119272511,0.028584290137595406,0.012872661117489415,0.028317787621767027
1.007438959970599,0.059562255279517966,0.01068794442284832,0.043832242766228824,0.019052198695343706,0.04344253619903077
1.0074860419957294,0.08449757331606145,0.017174090538879357,0.058037587268334905,0.02693812422783752,0.05749826603383455
1.0075331240208598,0.10858230355013457,0.02246212670551198,0.06858033205585247,0.033233829008201175,0.0679286504230234
1.0075802060459902,0.12742598805780986,0.025541917068807887,0.07621925524513734,0.03763300765034036,0.07549376501544958
1.0076272880711206,0.13840784538629322,0.027697734867654346,0.07904744927672683,0.04067932068176364,0.07827138609836429
1.007674370096251,0.14057521646913557,0.027424775835527607,0.0769603579802706,0.042220073406300906,0.07615621138624415
1.0077214521213813,0.1345761316442056,0.024602261865370716,0.07084930100861353,0.04158728749666197,0.07005088802091021
