freq,gls,usurper,pdc_unbiased,shape_periodogram,shift_periodogram
1.0,0.02176245538732735,0.011816381693424388,-0.007335655112181927,0.003739327351217978,-0.007400016034305471
1.0000470820251304,0.05134779247241603,0.01670392607021235,0.016081221596065367,0.003832642919127866,0.01601183229774714
1.0000941640502607,0.09689124580742478,0.023267892061101907,0.05094334186944231,0.00878478734725319,0.05078437879890377
1.0001412460753911,0.14848755125694818,0.029549036105777506,0.08456655871201842,0.017197832249174084,0.08426832581264813
1.0001883281005215,0.19664060203551523,0.03661863478772787,0.10917973127593883,0.02889786617029973,0.10871133862568635
1.0002354101256519,0.23592916525893703,0.0431530785571008,0.12678225514793529,0.03813834055472465,0.1262020312336102
1.0002824921507822,0.26363730657080775,0.046396662644819696,0.13936052532630389,0.04311299478859376,0.13873339241135682
1.0003295741759126,0.2780607972143743,0.04876070338465442,0.14663287491158739,0.04595708144433071,0.1459832757872211
1.000376656201043,0.27778293516045677,0.04989674438568918,0.14742341655727248,0.047821139478886936,0.14675573539227693
1.0004237382261734,0.2619162710265795,0.047867879991816034,0.139633635428265,0.04865668521559145,0.13894721359392243
1.0004708202513037,0.23107843684954268,0.04335504993562286,0.12167319492364326,0.047421905394836955,0.12097731053990757
1.0005179022764341,0.1884924826566669,0.03733169241006777,0.09811663264576473,0.04481252586188085,0.09742568803961221
1.0005649843015645,0.1401213853463462,0.03276679129011127,0.07552593926328457,0.041804023995010084,0.07485413192515887
1.0006120663266949,0.09311329616242185,0.029677538201386282,0.056936636782797936,0.03702762440364333,0.05632157935134365
1.0006591483518252,0.05338098213176131,0.02933133354299728,0.04656239048066332,0.02945498596492505,0.046061416545539885
1.0007062303769556,0.024158292773911582,0.028523114620242332,0.0379052596807291,0.020137539808094778,0.03755541553479943
1.000753312402086,0.006389706849983347,0.028285740710704752,0.024925530867037873,0.009739579604911052,0.02475260574814044
1.0008003944272164,4.4957735270936574e-05,0.02930035889337421,0.013623927240606612,0.0009914708516559085,0.013604502213656998
1.0008474764523467,0.004476680458159687,0.028185521993308715,0.005279248516488982,-0.0016363114028000714,0.005307081266102169
1.000894558477477,0.016631009383087918,0.031242832689686004,0.00604487589630294,0.001086435585924617,0.0060249423457214785
1.0009416405026075,0.030279800796216314,0.038486018465099775,0.01614856324889533,0.007816921522297066,0.01600983781248708
1.0009887225277379,0.04019506929021177,0.04774192303774995,0.031662352407458065,0.019812835960919574,0.03131744310739056
1.0010358045528682,0.045271217739530065,0.05443583104015817,0.049643587368788454,0.03497289707332956,0.04905615241399778
1.0010828865779986,0.04665854735345898,0.05874123050266679,0.06394396252727896,0.049930688830493494,0.06314415607953819
1.001129968603129,0.04557434040645729,0.062067345646775844,0.06951556918541625,0.06212048219859318,0.06855740799074093
1.0011770506282593,0.04281463251624272,0.061684050665425434,0.06676401531502141,0.06923770358758423,0.06570713631623479
1.0012241326533897,0.03911406922799136,0.0567995255556806,0.05756222886158259,0.07181913221535756,0.056448026349975505
1.00127121467852,0.035734840091298535,0.04975767651329068,0.04469056838221148,0.07158995923126546,0.04354609053964399
1.0013182967036505,0.034632288517627896,0.04348801319295208,0.03354469161607427,0.07081285526422636,0.03238356812948498
1.0013653787287808,0.03686446430802818,0.04078311731459313,0.03235087082016887,0.06938801868840522,0.0312086219563404
1.0014124607539112,0.040499198873267514,0.04250200446114293,0.04235422606047071,0.06889445973780937,0.04124308661519711
1.0014595427790416,0.04245011553894062,0.045500710936690975,0.05148956578485458,0.06871360948382016,0.050402717636018037
1.001506624804172,0.04142424671447975,0.04634916344698832,0.057489670337512934,0.06359144199489906,0.05648742414078931
1.0015537068293023,0.03772147907862947,0.04631005912878204,0.05838903434484734,0.054335533902377074,0.05751872660429691
1.0016007888544327,0.032149333674356434,0.04408697029381074,0.05286952532393206,0.04194303373802736,0.05217627571960536
1.001647870879563,0.025799799790141527,0.039918806392335277,0.040386054375886556,0.02623424463057907,0.03993561641736905
1.0016949529046935,0.020580986012262138,0.03230427704597222,0.02276083148008517,0.010848417392184553,0.02256897540132175
1.0017420349298238,0.01993155776046648,0.028568538042804195,0.008396000375120035,-0.00037362112115053137,0.008401252968013875
1.0017891169549542,0.027489951613850306,0.02815041124423282,0.00883020356959996,-0.0022623085521842373,0.008868459647576514
1.0018361989800846,0.042074300128446054,0.028564697434345164,0.022145335055818467,0.002232474560960997,0.022102961179713568
1.001883281005215,0.05845891480384451,0.03376534412313003,0.04104344236602053,0.011559729616664328,0.04083810620560329
1.0019303630303453,0.07582159493280267,0.03993935339009878,0.05832937685591873,0.02288893207399758,0.057937077012682844
1.0019774450554757,0.09824195100672209,0.04411860976473445,0.07041397317164165,0.03687012662842224,0.06981000377117802
1.002024527080606,0.1303669711588208,0.04210832592456169,0.07896421651578898,0.047904304365833025,0.07821086745602716
1.0020716091057364,0.17464242099810953,0.03776711255369582,0.08832693698111686,0.055865944871199176,0.08748274029762307
1.0021186911308668,0.22917237164395338,0.03945340770568324,0.11355266104308831,0.060867147586959526,0.11269697710623622
1.0021657731559972,0.2864808872447173,0.044313330323669076,0.14880372324738836,0.06460534513485139,0.14799033103354603
1.0022128551811276,0.335488571803669,0.04911732707722056,0.17945522269565434,0.06741979901265317,0.17869860581844313
1.002259937206258,0.3667004160945303,0.05198765890994417,0.20044309409803335,0.06875464159042871,0.1997356540661946
1.0023070192313883,0.37630521047742305,0.05264783102899935,0.20989430295355302,0.06816623064570221,0.20921360671639003
1.0023541012565187,0.3658732131217113,0.05125962667523363,0.20800353236518512,0.0658462754717633,0.2073249839656182
1.002401183281649,0.3393357840705059,0.04983873344176361,0.19716291122807472,0.061806134086631964,0.1964755725610192
1.0024482653067794,0.30043566038503033,0.047659604530871966,0.1783931936762516,0.05353614973783303,0.17772083468743066
1.0024953473319098,0.25183659939415354,0.0425123677786704,0.15384153094853617,0.04061425514635509,0.15325623399599483
1.0025424293570402,0.1956066522565673,0.033619726402812265,0.12081929242955049,0.024570688484118804,0.12041624909602662
1.0025895113821706,0.13475970805500284,0.024429639203730678,0.07564140824241966,0.007013227331786357,0.07551005674414961
1.002636593407301,0.07582916802294695,0.018183484023069466,0.025728531183742454,-0.004946444689865562,0.02581138543448808
1.0026836754324313,0.03145358980808763,0.0176143163594896,-0.0040036080406334615,-0.00360378769858397,-0.003939956164137633
1.0027307574575617,0.01779891286180085,0.023098044265359143,-0.006351274616742859,0.011938080542693524,-0.006559671469631756
1.002777839482692,0.04358985242398123,0.0239264327021901,0.006591376950054447,0.033833825059033595,0.0060017508249373295
1.0028249215078224,0.1037077589167159,0.031872934666146525,0.04281328660270074,0.050228787592688375,0.041983010568949514
1.0028720035329528,0.18101238562213362,0.044879259788488834,0.0979436666785688,0.058790336696287776,0.09708093729489868
1.0029190855580832,0.25636899888384335,0.05926962145784991,0.15380629462607742,0.06008870238465997,0.15303866659105775
1.0029661675832136,0.31832235074100634,0.06928901203299774,0.19704252226634572,0.05779304685849598,0.1963757757392337
1.003013249608344,0.36361141655314383,0.07452752406442402,0.228525784613192,0.05621246755062816,0.22792634062108477
1.0030603316334743,0.39341420767750745,0.07646231387118846,0.24979870354304085,0.05324825767763318,0.24924821610396947
1.0031074136586047,0.4102870696014962,0.07565590771626286,0.26258314989231946,0.049835512746879904,0.2620652435569794
1.003154495683735,0.41662904201390033,0.07375761155312466,0.266777273312063,0.045979296180690896,0.26628048090031875
1.0032015777088654,0.41405085665469693,0.07046755262390249,0.26326150551395927,0.041370079698998356,0.26278321156095963
1.0032486597339958,0.4030953535584088,0.0658492247249046,0.251751202986526,0.03575688091243449,0.25129830313988477
1.0032957417591262,0.38301151602067063,0.059812078522748294,0.2324239377319079,0.02928807668247149,0.23201277802609183
1.0033428237842565,0.3514583105172215,0.05210757031942761,0.2047530276495091,0.02181312506101773,0.20441156876742927
1.003389905809387,0.3042863356687068,0.04241784962509544,0.16911475512504195,0.013684374560739884,0.1688756680024855
1.0034369878345173,0.2364892670841809,0.031425199570184206,0.12615890065588273,0.005307307344555464,0.1260509648450033
1.0034840698596477,0.14805992805189566,0.02032733087802656,0.07745804013496241,-0.002515068598467846,0.07749011118346197
1.003531151884778,0.05937981673678241,0.013290251970840796,0.035632586371168055,-0.0077411266511997765,0.03576341692576718
1.0035782339099084,0.016571701488668728,0.013085077408820802,0.012038086514572617,-0.008605953139791334,0.012187264639077846
1.0036253159350388,0.04141534161646615,0.02192512654803051,0.014399178728297872,-0.0023017970718843817,0.01443728103612316
1.0036723979601692,0.0978579156313711,0.03617774865735381,0.03595348541122598,0.009858108356262206,0.03577754001916705
1.0037194799852995,0.14599333246590304,0.05267846291919541,0.06503465797160808,0.022180837392133574,0.06465486385806408
1.00376656201043,0.17300879075255565,0.0635229823658599,0.0922030709843016,0.03423148863098726,0.09165085918400051
1.0038136440355603,0.18229222765708752,0.07205644700228997,0.11374971918924169,0.04153818728316554,0.11311596353004408
1.0038607260606907,0.18262972424027749,0.07658281869177358,0.12736778710133306,0.047071057132205524,0.12668286546817634
1.003907808085821,0.18292620727983336,0.07778650019120749,0.13485525602086357,0.05403227027128298,0.13410730605871765
1.0039548901109514,0.18798821740501145,0.07906521049827925,0.13913083302593265,0.05953080953361528,0.1383386982702286
1.0040019721360818,0.19658928748535154,0.07850863191114908,0.1397247738744464,0.06250285663264409,0.13890799585640945
1.0040490541612122,0.20361099360789395,0.0749407963940829,0.1356935801867525,0.06277688853461293,0.13486573849819722
1.0040961361863425,0.20356945018764083,0.06809692284449784,0.1287855413388881,0.06131719575343001,0.12795630553934895
1.004143218211473,0.19261735903368254,0.05926334864303328,0.11776025800915435,0.05937184075985791,0.11692827655546635
1.0041903002366033,0.1692114287165738,0.04867938814460454,0.09836742477706704,0.05391111239668906,0.0975631310223825
1.0042373822617336,0.13469585530973552,0.037248091923776275,0.07519967777083232,0.04503575915607928,0.07448186380647762
1.004284464286864,0.094068350002802,0.025767669911911956,0.051842634052145065,0.03418075039187325,0.051268818180601444
1.0043315463119944,0.0558705414627791,0.015693589449832273,0.03082107495389939,0.02109791699138258,0.030454440515838167
1.0043786283371248,0.029785725493520713,0.00973255672570511,0.019809015244991575,0.00790773551643243,0.01966829409832778
1.0044257103622551,0.022326134922130727,0.007600082903103546,0.01684685304795892,-0.0028952986814796485,0.01689499050283507
1.0044727923873855,0.03362727707623793,0.008800418979577175,0.01768087969631584,-0.008917856602899827,0.017834869629876477
1.004519874412516,0.057935866130881315,0.013068664913673124,0.0238553638180855,-0.00998062642144508,0.024027418570415068
1.0045669564376463,0.08691312585069338,0.019485740085354353,0.038233159934289905,-0.005197167877403477,0.03831858049332172
1.0046140384627766,0.11302745450084833,0.02688407741220897,0.05542672474865837,0.0053441917535601785,0.055325957757322144
1.004661120487907,0.13143773576861661,0.03391741092535401,0.07126698378066398,0.01791740054199535,0.07095628117726871
1.0047082025130374,0.140315951549541,0.03891663166306508,0.0817840112464661,0.030477546675104855,0.08128103330283128
1.0047552845381678,0.14016084842095028,0.03967228709615086,0.0846685751900148,0.0410746192111982,0.0840149518846643
1.0048023665632981,0.13271042804166153,0.03765175329323039,0.08028160564993014,0.04874802349944147,0.0795183935370276
1.0048494485884285,0.1199532079956697,0.033712624242692106,0.06958311394397716,0.055281056051157865,0.06871660098943908
1.0048965306135589,0.10352759540252561,0.030440399583673734,0.05738407400153901,0.059914316941632684,0.05643295989882494
1.0049436126386893,0.08458770500586026,0.025052835930960277,0.04469505929439128,0.06043133870220545,0.04371351984190363
1.0049906946638196,0.06411017510052013,0.021473090281057667,0.03435472552873721,0.057328558441536163,0.03340282573417873
1.00503777668895,0.043500849939608656,0.01650971600414615,0.022887706523455283,0.052510332002389554,0.02199630371856429
1.0050848587140804,0.02497562650004661,0.012299448149477374,0.013888116903115118,0.04530104445926053,0.01310689740801908
1.0051319407392107,0.011013597455985432,0.009203605212457609,0.011624969459267675,0.035475081771166345,0.011009427776688611
1.0051790227643411,0.003334338693202587,0.007757312763861195,0.009001101837417943,0.023769119740117105,0.008586240586605245
1.0052261047894715,0.0027948227754708652,0.003345451787333782,0.005716764128480125,0.01238595709291039,0.005499567971292333
1.0052731868146019,0.010164673003053454,0.0003131670024734395,0.005314070387151807,0.0035783970554260276,0.005250671340461442
1.0053202688397322,0.026566180290056158,0.0003837211917857134,0.008193549268036414,-0.004009427880538839,0.008262518447223798
1.0053673508648626,0.05291846997433676,0.002578984911793133,0.011498759854167706,-0.007696918292340457,0.011632011909040736
1.005414432889993,0.08828034555015178,0.006073124427315933,0.017065936640710815,-0.007259353171918964,0.01719075880360162
1.0054615149151234,0.12763762777320273,0.009684027145683628,0.025647230237824777,-0.0033095020763350127,0.025701304658120604
1.0055085969402537,0.16155770115500132,0.01265083704296735,0.038076850744054896,0.005007553376391256,0.03798406226508979
1.0055556789653841,0.18078890709766565,0.015965896551735564,0.05135766337998839,0.015895088032952365,0.05107918705600356
1.0056027609905145,0.18307418566708303,0.0172517365983633,0.06056084021799014,0.027453549422280864,0.06009635511389211
1.0056498430156449,0.1741533504439713,0.018722681561679482,0.06655908741414072,0.03722553535210102,0.0659472885984501
1.0056969250407752,0.16242605985016223,0.018551695397411402,0.07063087442771013,0.045206607296046024,0.0699059662823503
1.0057440070659056,0.15418810481596457,0.016848007499069787,0.07107575192890922,0.049180094897928385,0.07029535324061559
1.005791089091036,0.1523552110015489,0.013519431602575691,0.0660360559428213,0.04955579346530603,0.06524417929821794
1.0058381711161664,0.15691036178882456,0.011838848432853908,0.06130313889977103,0.04816133810509542,0.06052562819204905
1.0058852531412967,0.16538784679386007,0.011937948032919466,0.06307528196508604,0.045241712038818147,0.06234218302251779
1.005932335166427,0.17322460684996496,0.010501711863060485,0.06323184659303546,0.04005181343614936,0.06257546614271593
1.0059794171915575,0.17475929729964576,0.0074504963285610595,0.05880087400333982,0.03264325268517682,0.058254518722676056
1.0060264992166879,0.16548577922015562,0.004416267664458453,0.05204155960234529,0.025470791032519095,0.05160636777930136
1.0060735812418182,0.1445721481217929,0.0017762847659501396,0.04234591607178599,0.01765661909482614,0.04203782042005814
1.0061206632669486,0.11538472372115638,-0.0007052073919969394,0.03266210113426135,0.009797605638613855,0.032487478247829125
1.006167745292079,0.08342022676517998,-0.002186704693537913,0.0259645785337829,0.003221588098102602,0.02590441890988012
1.0062148273172093,0.053714935068683495,-0.0012195233828145569,0.01794830890199036,-0.0006232349911824345,0.01795646603371343
1.0062619093423397,0.029620632829972474,0.0007010686843657194,0.006428025048282717,-0.0018171610206411206,0.00645884952785492
1.00630899136747,0.012907514843990737,0.003891988531129996,-0.004503164505502606,0.00013508248281538196,-0.004504838825791493
1.0063560733926005,0.004292560353454192,0.008137562376204976,-0.010519166817943732,0.003957398776910501,-0.01058688149611414
1.0064031554177308,0.0038095921685766332,0.014253658859485348,-0.007972360122875525,0.007429542210079645,-0.008101366475618429
1.0064502374428612,0.010924293923755681,0.02303166451933748,0.0013341291502741227,0.014740642577528015,0.0010760827740884855
1.0064973194679916,0.02453035587728399,0.03016826556379625,0.011333716656649779,0.023572757831226563,0.010922572095813404
1.006544401493122,0.042966387475684646,0.03574701741471633,0.020787738978896356,0.03152857219471386,0.02024321849977529
1.0065914835182523,0.06411092062196938,0.03874832361241232,0.03329944681240632,0.03647594201276513,0.032678792791475786
1.0066385655433827,0.08556714248621351,0.04253387639137752,0.049462130528264495,0.03895419291498661,0.04881230647791316
1.006685647568513,0.10493697207975199,0.04431646837497955,0.06485229624100503,0.03921411394856127,0.06420962722770199
1.0067327295936435,0.12014720761669652,0.04456339101772564,0.07640706666955516,0.037710690748566596,0.07579482485693952
1.0067798116187738,0.12974860817624662,0.04133437489715375,0.08294186479002422,0.03477097423239182,0.08237645854221398
1.0068268936439042,0.1331160769266914,0.039034402549956305,0.08436945777741765,0.030154743218959293,0.08387238681613542
1.0068739756690346,0.13051634907150206,0.034352756421108105,0.08386978816652868,0.025764173029559925,0.08343839203663433
1.006921057694165,0.12301693370584733,0.027819364575259527,0.08185258015702256,0.019950517268454832,0.08151060029591907
1.0069681397192953,0.11219272060745543,0.019707091431549344,0.07585112215539112,0.013152983029321465,0.07561787872264876
1.0070152217444257,0.09964098937742749,0.011976130310473069,0.06985230351433948,0.007007756738120485,0.06972162224977108
1.007062303769556,0.08648287672211809,0.0060688334018082135,0.06302251331950957,0.002451298399855006,0.06297044677577796
1.0071093857946865,0.07315337862299943,0.0028288705831425657,0.053521194673379444,-0.0006402294148589491,0.053524188970236974
1.0071564678198168,0.05967551136841471,0.00011038737732942912,0.042771215350936226,-0.003369116594239025,0.042823717439362245
1.0072035498449472,0.046352747241279996,-0.0023675287982865122,0.029687677967592516,-0.0043206718468949,0.029758924386600646
1.0072506318700776,0.03458526276589038,-0.003340858000161664,0.01916866027493343,-0.0035117148356183015,0.01922726511969108
1.007297713895208,0.02727830692374265,-0.002923087137285475,0.01473006896934623,-0.0029113982143642953,0.014778808895897378
1.0073447959203383,0.0280866607277734,-0.0009596423594306501,0.01711698325886342,-0.0014575394538407997,0.017139876574023404
1.0073918779454687,0.03925806445151868,0.004506756147271362,0.028584290137595406,0.002616742267504145,0.028534277393923682
1.007438959970599,0.059562255279517966,0.011515540866461307,0.043832242766228824,0.007492556360389187,0.04369602518173444
1.0074860419957294,0.08449757331606145,0.017495862836217513,0.058037587268334905,0.013715516099579949,0.057795334210390056
1.0075331240208598,0.10858230355013457,0.021886421269125284,0.06858033205585247,0.019206889935444924,0.06824864846920932
1.0075802060459902,0.12742598805780986,0.025248097314279988,0.07621925524513734,0.023023029717102544,0.07582822115053721
1.0076272880711206,0.13840784538629322,0.02645145795812811,0.07904744927672683,0.02518666779429478,0.07862354492682921
1.007674370096251,0.14057521646913557,0.025579549740351593,0.0769603579802706,0.025902537751127285,0.0765248735164082
1.0077214521213813,0.1345761316442056,0.023187532880787058,0.07084930100861353,0.024940970725796763,0.07042710249943937
