freq,gls,usurper,pdc_unbiased,shape_periodogram,shift_periodogram
1.0,0.02176245538732735,0.029464133650489433,-0.007335655112181927,0.01235345157222582,-0.007973319270358199
1.0000470820251304,0.05134779247241603,0.0472377569340629,0.016081221596065367,0.022268496711884425,0.014896630523938652
1.0000941640502607,0.09689124580742478,0.06691899264349851,0.05094334186944231,0.040439808268429585,0.04880267160128235
1.0001412460753911,0.14848755125694818,0.08764516193690791,0.08456655871201842,0.062161263397932966,0.08138450335701741
1.0001883281005215,0.19664060203551523,0.10703438614792657,0.10917973127593883,0.08585777420443709,0.10499380443879847
1.0002354101256519,0.23592916525893703,0.12135214388162513,0.12678225514793529,0.10447074838598856,0.1219207777524126
1.0002824921507822,0.26363730657080775,0.1296661778920097,0.13936052532630389,0.11655286315576067,0.13413382547164618
1.0003295741759126,0.2780607972143743,0.13515317536691865,0.14663287491158739,0.1244888411483506,0.14119047223580677
1.000376656201043,0.27778293516045677,0.13734929311233648,0.14742341655727248,0.12874530196232353,0.14184615439569254
1.0004237382261734,0.2619162710265795,0.13418389688911955,0.139633635428265,0.12963571271150418,0.13395240739546369
1.0004708202513037,0.23107843684954268,0.12584536751462683,0.12167319492364326,0.12585465348383953,0.11596288900704455
1.0005179022764341,0.1884924826566669,0.1144152363915321,0.09811663264576473,0.1193134911031857,0.09247171893271001
1.0005649843015645,0.1401213853463462,0.10519453513832529,0.07552593926328457,0.11292154613483266,0.06999909988049022
1.0006120663266949,0.09311329616242185,0.09833673104897794,0.056936636782797936,0.1058557184664258,0.05162666592581762
1.0006591483518252,0.05338098213176131,0.09462573440900927,0.04656239048066332,0.09667363357833061,0.041643361171855485
1.0007062303769556,0.024158292773911582,0.08944428037483228,0.0379052596807291,0.08437941566654528,0.03356071001799149
1.000753312402086,0.006389706849983347,0.08234450352696303,0.024925530867037873,0.06894266870162295,0.021333110939680953
1.0008003944272164,4.4957735270936574e-05,0.07757895849036625,0.013623927240606612,0.05508626150081908,0.010736247400548264
1.0008474764523467,0.004476680458159687,0.07364167941549808,0.005279248516488982,0.05014604756789603,0.002648290341805607
1.000894558477477,0.016631009383087918,0.07755571131346994,0.00604487589630294,0.053699926043684565,0.0032280371154259054
1.0009416405026075,0.030279800796216314,0.08985877587293492,0.01614856324889533,0.06515838473584849,0.012740946874432137
1.0009887225277379,0.04019506929021177,0.10729990652362557,0.031662352407458065,0.08368801758897118,0.027336107610220924
1.0010358045528682,0.045271217739530065,0.12229915883230104,0.049643587368788454,0.10516478521446979,0.04432956905348468
1.0010828865779986,0.04665854735345898,0.13219965029106837,0.06394396252727896,0.12448560052049813,0.05781903293541601
1.001129968603129,0.04557434040645729,0.13724399949737753,0.06951556918541625,0.13751796586980308,0.06285784349504077
1.0011770506282593,0.04281463251624272,0.13472063306921034,0.06676401531502141,0.14177930926139706,0.05989213125920184
1.0012241326533897,0.03911406922799136,0.12563138894115214,0.05756222886158259,0.13888749579969573,0.050729358647705544
1.00127121467852,0.035734840091298535,0.11312202227836751,0.04469056838221148,0.13207174332011423,0.038060766926812234
1.0013182967036505,0.034632288517627896,0.10298917918448698,0.03354469161607427,0.1265812446869082,0.027094084585285807
1.0013653787287808,0.03686446430802818,0.10146102626940358,0.03235087082016887,0.1247590191105795,0.025981643126754085
1.0014124607539112,0.040499198873267514,0.10772713869347741,0.04235422606047071,0.12770845186585178,0.03591460783687646
1.0014595427790416,0.04245011553894062,0.11606834520390728,0.05148956578485458,0.13275871134916986,0.044884469096302594
1.001506624804172,0.04142424671447975,0.12092718453623583,0.057489670337512934,0.13319319266345697,0.05091608435802819
1.0015537068293023,0.03772147907862947,0.121028834711944,0.05838903434484734,0.12676243723610686,0.05211760952462924
1.0016007888544327,0.032149333674356434,0.11506512566284349,0.05286952532393206,0.11303008421172972,0.04719947461264418
1.001647870879563,0.025799799790141527,0.10265355662694142,0.040386054375886556,0.0922649677364359,0.03565935799130854
1.0016949529046935,0.020580986012262138,0.08494090091955268,0.02276083148008517,0.0690433175611601,0.01916056411790207
1.0017420349298238,0.01993155776046648,0.07254303416600659,0.008396000375120035,0.05146537448620446,0.005695999512857737
1.0017891169549542,0.027489951613850306,0.07034830251163694,0.00883020356959996,0.04880533495651271,0.0062689030630327675
1.0018361989800846,0.042074300128446054,0.07397330390258283,0.022145335055818467,0.05719093706296622,0.019152008288910855
1.001883281005215,0.05845891480384451,0.0853106123556593,0.04104344236602053,0.07381412734870652,0.037230397775070076
1.0019303630303453,0.07582159493280267,0.0992354480890358,0.05832937685591873,0.09276655641409073,0.053642968359791335
1.0019774450554757,0.09824195100672209,0.1087313922327393,0.07041397317164165,0.11135922182357394,0.06492564494621854
1.002024527080606,0.1303669711588208,0.10849220721524061,0.07896421651578898,0.12262259368706177,0.07303577061500463
1.0020716091057364,0.17464242099810953,0.10406815273766447,0.08832693698111686,0.12861930538725697,0.08221940927189088
1.0021186911308668,0.22917237164395338,0.10767891865827757,0.11355266104308831,0.13411849322671496,0.10745925824221757
1.0021657731559972,0.2864808872447173,0.11679496681467426,0.14880372324738836,0.14084729400872192,0.1428520765018299
1.0022128551811276,0.335488571803669,0.1254141397446284,0.17945522269565434,0.14678399629459546,0.17370520350152527
1.002259937206258,0.3667004160945303,0.1300824514813953,0.20044309409803335,0.1491888411442252,0.19491110340534154
1.0023070192313883,0.37630521047742305,0.13001150160879488,0.20989430295355302,0.14698043486307416,0.20453346735897593
1.0023541012565187,0.3658732131217113,0.1255010762441268,0.20800353236518512,0.14048901376436423,0.2027554392696931
1.002401183281649,0.3393357840705059,0.11855081237034004,0.19716291122807472,0.1303705762245226,0.192032624758514
1.0024482653067794,0.30043566038503033,0.10939191528866365,0.1783931936762516,0.11477337605590522,0.17353068009588374
1.0024953473319098,0.25183659939415354,0.09624953154097357,0.15384153094853617,0.09252538855825988,0.14958081728951336
1.0025424293570402,0.1956066522565673,0.07648857745490543,0.12081929242955049,0.06507851649531818,0.11756433060110737
1.0025895113821706,0.13475970805500284,0.05224555662339574,0.07564140824241966,0.0326513585718761,0.07388102559780811
1.002636593407301,0.07582916802294695,0.03148320163077902,0.025728531183742454,0.006199056687631078,0.02536926467570182
1.0026836754324313,0.03145358980808763,0.02428638632619011,-0.0040036080406334615,-0.0003635502093451728,-0.003979064836753305
1.0027307574575617,0.01779891286180085,0.033366140462279585,-0.006351274616742859,0.01726636186848834,-0.007248139328387176
1.002777839482692,0.04358985242398123,0.04622337642682804,0.006591376950054447,0.0487287085618625,0.00403437677360983
1.0028249215078224,0.1037077589167159,0.0685868492053715,0.04281328660270074,0.07999914153139143,0.038697765183664766
1.0028720035329528,0.18101238562213362,0.097335950991026,0.0979436666785688,0.10447656522016265,0.09291528448638488
1.0029190855580832,0.25636899888384335,0.12346693047226404,0.15380629462607742,0.12065337291916003,0.14855438926301007
1.0029661675832136,0.31832235074100634,0.14249389778859783,0.19704252226634572,0.1278743769742127,0.19197504812283442
1.003013249608344,0.36361141655314383,0.15278844618188303,0.228525784613192,0.13139023859283427,0.22370469059504886
1.0030603316334743,0.39341420767750745,0.15791249165521037,0.24979870354304085,0.13186593629039473,0.24520195292290592
1.0031074136586047,0.4102870696014962,0.15877547052579247,0.26258314989231946,0.1301835774635706,0.2581549854508461
1.003154495683735,0.41662904201390033,0.15694848276159404,0.266777273312063,0.12652455566166199,0.2624520557152023
1.0032015777088654,0.41405085665469693,0.1525066170099773,0.26326150551395927,0.12070360137150206,0.2590000191037016
1.0032486597339958,0.4030953535584088,0.1453814798424788,0.251751202986526,0.11247723778622268,0.2475486391439655
1.0032957417591262,0.38301151602067063,0.13533366589002857,0.2324239377319079,0.10177472971289342,0.2283306023367722
1.0033428237842565,0.3514583105172215,0.1219698039804256,0.2047530276495091,0.08840615302734814,0.20088853887449418
1.003389905809387,0.3042863356687068,0.10485805349322885,0.16911475512504195,0.07270680850031168,0.16566493078547678
1.0034369878345173,0.2364892670841809,0.08472089067403733,0.12615890065588273,0.055068410438462834,0.1233546651563882
1.0034840698596477,0.14805992805189566,0.06328307516159419,0.07745804013496241,0.037004012788535,0.07548205002787686
1.003531151884778,0.05937981673678241,0.04800012691393364,0.035632586371168055,0.02365867703532649,0.034356137634327565
1.0035782339099084,0.016571701488668728,0.045230579873031966,0.012038086514572617,0.019920297409577715,0.010980337588241637
1.0036253159350388,0.04141534161646615,0.058614056947053364,0.014399178728297872,0.030509761081030994,0.012787425982605651
1.0036723979601692,0.0978579156313711,0.08244978549989695,0.03595348541122598,0.052289607107959574,0.033215064307637
1.0037194799852995,0.14599333246590304,0.1113324972283209,0.06503465797160808,0.07761530797418793,0.061087259944957416
1.00376656201043,0.17300879075255565,0.13370913659042627,0.0922030709843016,0.10085745156359935,0.0872988119584922
1.0038136440355603,0.18229222765708752,0.14850012910498067,0.11374971918924169,0.11557127165151815,0.10836940738969787
1.0038607260606907,0.18262972424027749,0.1554336414193355,0.12736778710133306,0.1256952030658418,0.12171311935942052
1.003907808085821,0.18292620727983336,0.15771935932274342,0.13485525602086357,0.13381170620495322,0.12898452993446294
1.0039548901109514,0.18798821740501145,0.15858396403195152,0.13913083302593265,0.13822049707155878,0.13315631114533397
1.0040019721360818,0.19658928748535154,0.15612751436670091,0.1397247738744464,0.1388988604231876,0.13373433970527232
1.0040490541612122,0.20361099360789395,0.15102472989017254,0.1356935801867525,0.1373238459725584,0.12971214973202594
1.0040961361863425,0.20356945018764083,0.14205441764377974,0.1287855413388881,0.13331102101944425,0.12287156982061821
1.004143218211473,0.19261735903368254,0.1296176684703362,0.11776025800915435,0.1268777954527794,0.11197748968707978
1.0041903002366033,0.1692114287165738,0.11321567321131205,0.09836742477706704,0.11560436941785496,0.09287688712599018
1.0042373822617336,0.13469585530973552,0.09426502299670914,0.07519967777083232,0.0998037812621911,0.07025863084084183
1.004284464286864,0.094068350002802,0.07523558648350942,0.051842634052145065,0.08144444625404763,0.047678644437140816
1.0043315463119944,0.0558705414627791,0.05797453745951443,0.03082107495389939,0.061369541384069554,0.027619825628177372
1.0043786283371248,0.029785725493520713,0.04669232393684864,0.019809015244991575,0.04335502101943722,0.01752815636270985
1.0044257103622551,0.022326134922130727,0.0417446793343726,0.01684685304795892,0.030410075191187574,0.015238229586488673
1.0044727923873855,0.03362727707623793,0.042384905822539724,0.01768087969631584,0.02474342037040559,0.016365894462949983
1.004519874412516,0.057935866130881315,0.047910698217793056,0.0238553638180855,0.02611786245440402,0.022463090731075577
1.0045669564376463,0.08691312585069338,0.05853838177787772,0.038233159934289905,0.035877187378380915,0.03632842778803465
1.0046140384627766,0.11302745450084833,0.07277002869484528,0.05542672474865837,0.05373446841089484,0.05262384663051105
1.004661120487907,0.13143773576861661,0.08681515227470057,0.07126698378066398,0.07426617396204077,0.06749236659942069
1.0047082025130374,0.140315951549541,0.09917293739823049,0.0817840112464661,0.09435310620245398,0.07711786600983452
1.0047552845381678,0.14016084842095028,0.10506212396124244,0.0846685751900148,0.11041952591124207,0.07930813380904812
1.0048023665632981,0.13271042804166153,0.10481105883009326,0.08028160564993014,0.12074455547070471,0.07444431218648584
1.0048494485884285,0.1199532079956697,0.10053347448178326,0.06958311394397716,0.12734574611542754,0.06337422900779428
1.0048965306135589,0.10352759540252561,0.09586815606550453,0.05738407400153901,0.129024147079762,0.05100079173656174
1.0049436126386893,0.08458770500586026,0.0886788480913686,0.04469505929439128,0.12567506664091901,0.03837049961790574
1.0049906946638196,0.06411017510052013,0.08201943417491375,0.03435472552873721,0.1182614199599524,0.028319656503270507
1.00503777668895,0.043500849939608656,0.07338699005715017,0.022887706523455283,0.10740924165565031,0.01733287873913783
1.0050848587140804,0.02497562650004661,0.06288001763220867,0.013888116903115118,0.09284641648995674,0.009044947731399846
1.0051319407392107,0.011013597455985432,0.053840859404473605,0.011624969459267675,0.07680955166909088,0.007608065830735248
1.0051790227643411,0.003334338693202587,0.044965284493328796,0.009001101837417943,0.058527961933156444,0.005932946315479251
1.0052261047894715,0.0027948227754708652,0.032695761727001,0.005716764128480125,0.03862024060614646,0.003688455301166009
1.0052731868146019,0.010164673003053454,0.021832302297647935,0.005314070387151807,0.02117496954040765,0.004198415302594926
1.0053202688397322,0.026566180290056158,0.014555205843020584,0.008193549268036414,0.007489439413573088,0.007790189530668713
1.0053673508648626,0.05291846997433676,0.011187438726645176,0.011498759854167706,0.00012011161168599456,0.011476680058824967
1.005414432889993,0.08828034555015178,0.011012878122446354,0.017065936640710815,-0.002146978480452644,0.017154976051050652
1.0054615149151234,0.12763762777320273,0.013302979549319078,0.025647230237824777,0.00033944395266144033,0.0255942691068813
1.0055085969402537,0.16155770115500132,0.018762182157386693,0.038076850744054896,0.010445069141324204,0.03748064113232432
1.0055556789653841,0.18078890709766565,0.026623202641368814,0.05135766337998839,0.0256093245346599,0.04996717409153397
1.0056027609905145,0.18307418566708303,0.032917438413741396,0.06056084021799014,0.0423437051367888,0.05832348654712006
1.0056498430156449,0.1741533504439713,0.039059262369596136,0.06655908741414072,0.05697172813643741,0.06360517512300363
1.0056969250407752,0.16242605985016223,0.043862766126482274,0.07063087442771013,0.06962958076425707,0.06707441854533587
1.0057440070659056,0.15418810481596457,0.045242203982991065,0.07107575192890922,0.07755248430409667,0.0671460120961472
1.005791089091036,0.1523552110015489,0.043498330865532606,0.0660360559428213,0.08041091613949235,0.06195872864403798
1.0058381711161664,0.15691036178882456,0.04285188047735208,0.06130313889977103,0.08044581245319947,0.057211697287011413
1.0058852531412967,0.16538784679386007,0.044418381709040604,0.06307528196508604,0.07859180954137106,0.059076677527432384
1.005932335166427,0.17322460684996496,0.04387973633721565,0.06323184659303546,0.07391769497530311,0.059456718849581404
1.0059794171915575,0.17475929729964576,0.04043127671982464,0.05880087400333982,0.06606797161301274,0.05539668860310261
1.0060264992166879,0.16548577922015562,0.03592186456307948,0.05204155960234529,0.05714230168159916,0.049068075951604256
1.0060735812418182,0.1445721481217929,0.030925933742513012,0.04234591607178599,0.04647282922990158,0.03990240474609713
1.0061206632669486,0.11538472372115638,0.026703567860029545,0.03266210113426135,0.03580501650771082,0.03076403592795098
1.006167745292079,0.08342022676517998,0.024656895993664458,0.0259645785337829,0.027493261840189704,0.024499229058467062
1.0062148273172093,0.053714935068683495,0.025411353770532514,0.01794830890199036,0.022078865750264822,0.016771587612629407
1.0062619093423397,0.029620632829972474,0.026648514140581624,0.006428025048282717,0.019112920407704934,0.005418932705794456
1.00630899136747,0.012907514843990737,0.02730851890682797,-0.004503164505502606,0.018019258217234282,-0.005441841165789581
1.0063560733926005,0.004292560353454192,0.029208994519088486,-0.010519166817943732,0.01928502922582858,-0.011517005336926872
1.0064031554177308,0.0038095921685766332,0.03236768719631879,-0.007972360122875525,0.020826349811393693,-0.009054330789003863
1.0064502374428612,0.010924293923755681,0.04053444481138653,0.0013341291502741227,0.02828916927223058,-0.00014980479268135867
1.0064973194679916,0.02453035587728399,0.04887136236752791,0.011333716656649779,0.03861266327138104,0.009302533465673007
1.006544401493122,0.042966387475684646,0.056063031168512065,0.020787738978896356,0.049286596712969144,0.0182007083835873
1.0065914835182523,0.06411092062196938,0.061211977962463,0.03329944681240632,0.05730720091300979,0.030305800896543292
1.0066385655433827,0.08556714248621351,0.06761991928793103,0.049462130528264495,0.06359571590274977,0.04616729376126261
1.006685647568513,0.10493697207975199,0.0715094548623904,0.06485229624100503,0.06742695786725718,0.06139138567187038
1.0067327295936435,0.12014720761669652,0.072575743029436,0.07640706666955516,0.06864531010537848,0.07290747711850543
1.0067798116187738,0.12974860817624662,0.07029132129091076,0.08294186479002422,0.06662196393642798,0.0795484872822942
1.0068268936439042,0.1331160769266914,0.06777477244899342,0.08436945777741765,0.06179203700526914,0.08120447096903795
1.0068739756690346,0.13051634907150206,0.06257832677756255,0.08386978816652868,0.056056100608517775,0.08097497734326485
1.006921057694165,0.12301693370584733,0.05479147534922562,0.08185258015702256,0.04848817254163547,0.07931803296048094
1.0069681397192953,0.11219272060745543,0.045119500709671204,0.07585112215539112,0.03955356889335079,0.07375011335897787
1.0070152217444257,0.09964098937742749,0.03566655082792201,0.06985230351433948,0.030860851278541723,0.06818391828138701
1.007062303769556,0.08648287672211809,0.028463955059413827,0.06302251331950957,0.024176315706549944,0.06169506899245425
1.0071093857946865,0.07315337862299943,0.023716816571617047,0.053521194673379444,0.018910127282957875,0.05247074384755854
1.0071564678198168,0.05967551136841471,0.020212869088244476,0.042771215350936226,0.014597816790552925,0.041954338339327206
1.0072035498449472,0.046352747241279996,0.017365886582497075,0.029687677967592516,0.01234740305280591,0.029003119663370002
1.0072506318700776,0.03458526276589038,0.01669073120078082,0.01916866027493343,0.012507390053589031,0.01848888977378554
1.007297713895208,0.02727830692374265,0.018398859612398476,0.01473006896934623,0.013417837268948098,0.014008375606044827
1.0073447959203383,0.0280866607277734,0.023742646058279186,0.01711698325886342,0.017223482096681557,0.016193938585784242
1.0073918779454687,0.03925806445151868,0.03555283112958712,0.028584290137595406,0.026478772358041153,0.027169003965672317
1.007438959970599,0.059562255279517966,0.05056394731737733,0.043832242766228824,0.03811468238630246,0.0418111803562763
1.0074860419957294,0.08449757331606145,0.06483651715743348,0.058037587268334905,0.05134016829148559,0.055354194138222096
1.0075331240208598,0.10858230355013457,0.0765361260231413,0.06858033205585247,0.0638574289901073,0.06529625504751685
1.0075802060459902,0.12742598805780986,0.08420486588523471,0.07621925524513734,0.07257760221891034,0.07253459913557775
1.0076272880711206,0.13840784538629322,0.08690779854510558,0.07904744927672683,0.07705939492982605,0.0751605393399103
1.007674370096251,0.14057521646913557,0.08361992154579256,0.0769603579802706,0.07761755564828117,0.07304229208728544
1.0077214521213813,0.1345761316442056,0.07672087675829513,0.07084930100861353,0.07403504540264,0.06708468238751122
1.0077685341465117,0.12269802495893224,0.0664355530960702,0.062425783036096825,0.06615368786149864,0.05902259328603557
1.007815616171642,0.10844877640211482,0.05587817928467077,0.054884533548136764,0.054770067719934715,0.0520301827108933
