freq,gls,usurper,pdc_unbiased,shape_periodogram,shift_periodogram
1.0,0.02176245538732735,0.04387373855479261,-0.007335655112181927,0.04115850170063027,-0.017482773885351025
1.0000470820251304,0.05134779247241603,0.09686585184184367,0.016081221596065367,0.0909822193940152,-0.007392719303677887
1.0000941640502607,0.09689124580742478,0.15854779829215626,0.05094334186944231,0.14940767032272667,0.011846498045625155
1.0001412460753911,0.14848755125694818,0.22056672508247888,0.08456655871201842,0.20647918903490853,0.030749633940906875
1.0001883281005215,0.19664060203551523,0.27079649632003716,0.10917973127593883,0.2535530438559171,0.04378954605196123
1.0002354101256519,0.23592916525893703,0.30640557480180913,0.12678225514793529,0.28733769891677435,0.053464323873025674
1.0002824921507822,0.26363730657080775,0.3318375414380067,0.13936052532630389,0.310011871812378,0.060968384173825364
1.0003295741759126,0.2780607972143743,0.34724598162650316,0.14663287491158739,0.32378581277566193,0.06524387543282488
1.000376656201043,0.27778293516045677,0.35317622659051084,0.14742341655727248,0.3294997575885061,0.06469637849806517
1.0004237382261734,0.2619162710265795,0.3476117091627048,0.139633635428265,0.3246254063813981,0.05769602239519299
1.0004708202513037,0.23107843684954268,0.32718820727650744,0.12167319492364326,0.30699445481352977,0.043322063330726523
1.0005179022764341,0.1884924826566669,0.2984151303137863,0.09811663264576473,0.28263364876537705,0.025210284231538222
1.0005649843015645,0.1401213853463462,0.2778783590736916,0.07552593926328457,0.2671158056126361,0.006213374640782753
1.0006120663266949,0.09311329616242185,0.26916013313786213,0.056936636782797936,0.26343614962072665,-0.011603406744745073
1.0006591483518252,0.05338098213176131,0.2725889890418703,0.04656239048066332,0.27025734491322284,-0.02387511500663855
1.0007062303769556,0.024158292773911582,0.2788530994161039,0.0379052596807291,0.2799740894208885,-0.035229982647540146
1.000753312402086,0.006389706849983347,0.2765868648016935,0.024925530867037873,0.2830310782994209,-0.04914460698876035
1.0008003944272164,4.4957735270936574e-05,0.27238899506800657,0.013623927240606612,0.28131546465668306,-0.06002296927185434
1.0008474764523467,0.004476680458159687,0.27157192548796405,0.005279248516488982,0.2845134242118923,-0.0692889417398179
1.000894558477477,0.016631009383087918,0.2847177328328314,0.00604487589630294,0.29965754335166844,-0.0728220539373388
1.0009416405026075,0.030279800796216314,0.31668808300945844,0.01614856324889533,0.33001588973570134,-0.07135659117090597
1.0009887225277379,0.04019506929021177,0.361980575515323,0.031662352407458065,0.371576816017423,-0.06767867780520576
1.0010358045528682,0.045271217739530065,0.4127257628065549,0.049643587368788454,0.4170315742058607,-0.06257613153729576
1.0010828865779986,0.04665854735345898,0.4513784872621341,0.06394396252727896,0.45444783453440246,-0.05884509775958994
1.001129968603129,0.04557434040645729,0.46896869280082876,0.06951556918541625,0.47288180212653685,-0.058603266124575636
1.0011770506282593,0.04281463251624272,0.4635733293643928,0.06676401531502141,0.47011139086452325,-0.060740375939051156
1.0012241326533897,0.03911406922799136,0.44052404720787824,0.05756222886158259,0.44986366211673934,-0.06432049112998693
1.00127121467852,0.035734840091298535,0.4072870600342195,0.04469056838221148,0.41876379118992446,-0.06837030471822797
1.0013182967036505,0.034632288517627896,0.3822287174792993,0.03354469161607427,0.39544789374205713,-0.07293428725208331
1.0013653787287808,0.03686446430802818,0.3820416214104801,0.03235087082016887,0.39372278915501874,-0.07365545583729766
1.0014124607539112,0.040499198873267514,0.40382113774315764,0.04235422606047071,0.412509772695987,-0.06891049246662817
1.0014595427790416,0.04245011553894062,0.43429677255443433,0.05148956578485458,0.4415087712233711,-0.06822833884376359
1.001506624804172,0.04142424671447975,0.45711425599659494,0.057489670337512934,0.4630710764059998,-0.06861920546970834
1.0015537068293023,0.03772147907862947,0.4616968890279981,0.05838903434484734,0.46782716864003276,-0.06917616332716242
1.0016007888544327,0.032149333674356434,0.44472613490408364,0.05286952532393206,0.4512075096670631,-0.06982365705513081
1.001647870879563,0.025799799790141527,0.40541981187211834,0.040386054375886556,0.41375811654287364,-0.07137819409895993
1.0016949529046935,0.020580986012262138,0.35245029370502967,0.02276083148008517,0.36313542300801244,-0.0743578252436313
1.0017420349298238,0.01993155776046648,0.30666884720322407,0.008396000375120035,0.3199064116466557,-0.07628529934085435
1.0017891169549542,0.027489951613850306,0.28679749244944874,0.00883020356959996,0.30073879826707994,-0.07032657736545232
1.0018361989800846,0.042074300128446054,0.29071100464393224,0.022145335055818467,0.3047119721747851,-0.05801387456850762
1.001883281005215,0.05845891480384451,0.31024906273266983,0.04104344236602053,0.32313835667497587,-0.04399486149749302
1.0019303630303453,0.07582159493280267,0.33127795811958316,0.05832937685591873,0.3403270445123809,-0.03105511759212964
1.0019774450554757,0.09824195100672209,0.34077270021968825,0.07041397317164165,0.3422023877768265,-0.019068043675456895
1.002024527080606,0.1303669711588208,0.32801408191863607,0.07896421651578898,0.3226816504154836,-0.004920076159213703
1.0020716091057364,0.17464242099810953,0.3077715796059109,0.08832693698111686,0.29794277046817036,0.011243569999412466
1.0021186911308668,0.22917237164395338,0.31345083578046695,0.11355266104308831,0.29642977969247014,0.03756978655191283
1.0021657731559972,0.2864808872447173,0.34274219500069253,0.14880372324738836,0.3178184231645212,0.06895545676079007
1.0022128551811276,0.335488571803669,0.3747874032323969,0.17945522269565434,0.34408071707389026,0.09523188716571669
1.002259937206258,0.3667004160945303,0.3949273023771202,0.20044309409803335,0.36050295117927744,0.11412393211118142
1.0023070192313883,0.37630521047742305,0.39923503532753074,0.20989430295355302,0.3628081121245311,0.12386911250573732
1.0023541012565187,0.3658732131217113,0.3886629008513918,0.20800353236518512,0.35178180241044454,0.12417751577501614
1.002401183281649,0.3393357840705059,0.3661141357757661,0.19716291122807472,0.33061258570130897,0.11713031165842323
1.0024482653067794,0.30043566038503033,0.33458932905455685,0.1783931936762516,0.3020137810664384,0.10365158533834966
1.0024953473319098,0.25183659939415354,0.2952702121143521,0.15384153094853617,0.26597877769124745,0.08644769478280762
1.0025424293570402,0.1956066522565673,0.2422592177253271,0.12081929242955049,0.21897987348593767,0.06402822168482793
1.0025895113821706,0.13475970805500284,0.1700969579570191,0.07564140824241966,0.15631159043871318,0.034424908691623235
1.002636593407301,0.07582916802294695,0.09251119175570227,0.025728531183742454,0.09008303366528038,0.002215551553559037
1.0026836754324313,0.03145358980808763,0.043572836714816016,-0.0040036080406334615,0.04490155391669461,-0.01520273498664333
1.0027307574575617,0.01779891286180085,0.03518407150949873,-0.006351274616742859,0.03320436366023849,-0.014520066350873748
1.002777839482692,0.04358985242398123,0.053829738679160355,0.006591376950054447,0.050189986391822664,-0.006276318126791426
1.0028249215078224,0.1037077589167159,0.10176984143896317,0.04281328660270074,0.09285507730003704,0.01814665753783784
1.0028720035329528,0.18101238562213362,0.18095774742285367,0.0979436666785688,0.1649555738130367,0.054338984207539964
1.0029190855580832,0.25636899888384335,0.26453198409178563,0.15380629462607742,0.23876529424166235,0.0927619065406978
1.0029661675832136,0.31832235074100634,0.33336301157230813,0.19704252226634572,0.29495402495679784,0.12478399503677996
1.003013249608344,0.36361141655314383,0.38011249909978273,0.228525784613192,0.33430463394362847,0.14993203791627685
1.0030603316334743,0.39341420767750745,0.4110410689461064,0.24979870354304085,0.3600865532828409,0.16792210162697443
1.0031074136586047,0.4102870696014962,0.4292635604829518,0.26258314989231946,0.37539778533610446,0.17912565162580113
1.003154495683735,0.41662904201390033,0.43686460859878923,0.266777273312063,0.38158026400532485,0.18265407490248026
1.0032015777088654,0.41405085665469693,0.43497909328511053,0.26326150551395927,0.3790006036089003,0.179218493731029
1.0032486597339958,0.4030953535584088,0.4234884003088795,0.251751202986526,0.36758461619008753,0.16863513995811688
1.0032957417591262,0.38301151602067063,0.40202751823920024,0.2324239377319079,0.3472139477172055,0.15152966280358968
1.0033428237842565,0.3514583105172215,0.3698133933061065,0.2047530276495091,0.31761027540666853,0.12802168328156208
1.003389905809387,0.3042863356687068,0.3265454927055796,0.16911475512504195,0.2791862400107339,0.09916868804834537
1.0034369878345173,0.2364892670841809,0.27265779300843745,0.12615890065588273,0.23266762325561896,0.06611475339136604
1.0034840698596477,0.14805992805189566,0.2119791120501558,0.07745804013496241,0.18234563208418036,0.029720555839263908
1.003531151884778,0.05937981673678241,0.16560687779333216,0.035632586371168055,0.1467790488761085,-0.0025092955481487147
1.0035782339099084,0.016571701488668728,0.15579024119440185,0.012038086514572617,0.1459643355874939,-0.02539487801756602
1.0036253159350388,0.04141534161646615,0.19610798043871366,0.014399178728297872,0.19128959264224413,-0.03489041800138783
1.0036723979601692,0.0978579156313711,0.2700048925444152,0.03595348541122598,0.267054527720617,-0.0336840533414467
1.0037194799852995,0.14599333246590304,0.3566623389919088,0.06503465797160808,0.35586007526796204,-0.028455388733461554
1.00376656201043,0.17300879075255565,0.43259237280327156,0.0922030709843016,0.43343448579002347,-0.021756739282672497
1.0038136440355603,0.18229222765708752,0.4872495683547729,0.11374971918924169,0.48933472935523487,-0.014342121349823567
1.0038607260606907,0.18262972424027749,0.521559772780685,0.12736778710133306,0.5248653131828156,-0.00938737237796456
1.003907808085821,0.18292620727983336,0.5394689057522193,0.13485525602086357,0.5426296327560535,-0.0059885746771910515
1.0039548901109514,0.18798821740501145,0.5473180697625306,0.13913083302593265,0.5478059923787829,-0.0024836346617614917
1.0040019721360818,0.19658928748535154,0.545176307991014,0.1397247738744464,0.5432805346775752,-0.00041154086960814125
1.0040490541612122,0.20361099360789395,0.5334469372486755,0.1356935801867525,0.5270110479806617,-0.00030657797555083373
1.0040961361863425,0.20356945018764083,0.510758087686674,0.1287855413388881,0.49876121788083405,-7.294691192014436e-06
1.004143218211473,0.19261735903368254,0.47404094503336797,0.11776025800915435,0.45894899641195674,-0.0010035888350450092
1.0041903002366033,0.1692114287165738,0.42019456777825914,0.09836742477706704,0.4047648867917446,-0.006932551554183366
1.0042373822617336,0.13469585530973552,0.3566353437644148,0.07519967777083232,0.34296895702263397,-0.014311573129921484
1.004284464286864,0.094068350002802,0.2955285374550723,0.051842634052145065,0.2836154508764426,-0.022134536667535225
1.0043315463119944,0.0558705414627791,0.24131917925876611,0.03082107495389939,0.23145432175584338,-0.029265865552447402
1.0043786283371248,0.029785725493520713,0.20551070277848504,0.019809015244991575,0.1968058436413641,-0.0310113144934967
1.0044257103622551,0.022326134922130727,0.18825452520776415,0.01684685304795892,0.1800055348887259,-0.029523547401436805
1.0044727923873855,0.03362727707623793,0.1872630430192869,0.01768087969631584,0.18034063471407683,-0.028791241152025127
1.004519874412516,0.057935866130881315,0.19961248820863628,0.0238553638180855,0.19410997069413963,-0.02631306704928332
1.0045669564376463,0.08691312585069338,0.2265764828347083,0.038233159934289905,0.22158560745021075,-0.019286721820284965
1.0046140384627766,0.11302745450084833,0.2616669933046122,0.05542672474865837,0.25759942664702373,-0.011581744669206724
1.004661120487907,0.13143773576861661,0.29561747586043896,0.07126698378066398,0.2939151488181161,-0.0051477894255948535
1.0047082025130374,0.140315951549541,0.32090295701383054,0.0817840112464661,0.32183806601772175,-0.0017838170949798886
1.0047552845381678,0.14016084842095028,0.33227170908586967,0.0846685751900148,0.3369538745954529,-0.0028434678011876593
1.0048023665632981,0.13271042804166153,0.3288530595968006,0.08028160564993014,0.3368420666214379,-0.007368542992041319
1.0048494485884285,0.1199532079956697,0.31198876349805993,0.06958311394397716,0.32386116978794005,-0.014910323424838372
1.0048965306135589,0.10352759540252561,0.28326124606206565,0.05738407400153901,0.297385054363686,-0.02022500178563563
1.0049436126386893,0.08458770500586026,0.246829697023208,0.04469505929439128,0.2616872668591101,-0.02345759599644237
1.0049906946638196,0.06411017510052013,0.21033038700025172,0.03435472552873721,0.2253769517152711,-0.02414111646218907
1.00503777668895,0.043500849939608656,0.17545052419059962,0.022887706523455283,0.1899441852750252,-0.02617673310863862
1.0050848587140804,0.02497562650004661,0.14150896149272169,0.013888116903115118,0.15418420267940422,-0.025710580744682125
1.0051319407392107,0.011013597455985432,0.11602717943051068,0.011624969459267675,0.12567544968233785,-0.02057711029812971
1.0051790227643411,0.003334338693202587,0.09622451824390166,0.009001101837417943,0.10430899080869303,-0.01766740199418358
1.0052261047894715,0.0027948227754708652,0.07575072798741977,0.005716764128480125,0.08234415455153031,-0.015267553060553628
1.0052731868146019,0.010164673003053454,0.0586252579886731,0.005314070387151807,0.06177027324616126,-0.010442166724887117
1.0053202688397322,0.026566180290056158,0.04884129874941572,0.008193549268036414,0.049125093565179176,-0.00445492655192101
1.0053673508648626,0.05291846997433676,0.04508136999837187,0.011498759854167706,0.04356354932696697,0.00015102245074089045
1.005414432889993,0.08828034555015178,0.046321268644851046,0.017065936640710815,0.04169015192734227,0.006017271753734834
1.0054615149151234,0.12763762777320273,0.05207612416908574,0.025647230237824777,0.04357021276273905,0.013860362414678539
1.0055085969402537,0.16155770115500132,0.06424467150059204,0.038076850744054896,0.05249933857350845,0.023671594810999622
1.0055556789653841,0.18078890709766565,0.07835682649523941,0.05135766337998839,0.06522359322154067,0.033382880084186495
1.0056027609905145,0.18307418566708303,0.08926191195651084,0.06056084021799014,0.07707518170695188,0.03937884883091707
1.0056498430156449,0.1741533504439713,0.09560975632816587,0.06655908741414072,0.08402830331257939,0.04349290576736317
1.0056969250407752,0.16242605985016223,0.09973358824011919,0.07063087442771013,0.08892024226455975,0.046249652615494276
1.0057440070659056,0.15418810481596457,0.10374359355423253,0.07107575192890922,0.09403929799155274,0.04541418686767351
1.005791089091036,0.1523552110015489,0.1046672621953731,0.0660360559428213,0.09688719476063612,0.039786124128750086
1.0058381711161664,0.15691036178882456,0.10476298441302374,0.06130313889977103,0.09910968774837513,0.034611849639778876
1.0058852531412967,0.16538784679386007,0.11042176031890928,0.06307528196508604,0.10461288705207457,0.03497089187532723
1.005932335166427,0.17322460684996496,0.11602588430313693,0.06323184659303546,0.11119159179235609,0.03348391727391073
1.0059794171915575,0.17475929729964576,0.11617683507814265,0.05880087400333982,0.11298608520376037,0.028702746820184828
1.0060264992166879,0.16548577922015562,0.11093333520040768,0.05204155960234529,0.1091764981735942,0.023050898162825715
1.0060735812418182,0.1445721481217929,0.10086646244320727,0.04234591607178599,0.1007397810658885,0.01570883529772086
1.0061206632669486,0.11538472372115638,0.09222075602678241,0.03266210113426135,0.09205114552491245,0.00846469480331594
1.006167745292079,0.08342022676517998,0.08326259052917936,0.0259645785337829,0.08275704471414552,0.004295976434798751
1.0062148273172093,0.053714935068683495,0.0766945009165325,0.01794830890199036,0.07598560812293174,-0.0017807961394962048
1.0062619093423397,0.029620632829972474,0.06818516265961233,0.006428025048282717,0.06841476032560549,-0.011044276514553579
1.00630899136747,0.012907514843990737,0.059392027394505546,-0.004503164505502606,0.06150335396328404,-0.01988980915798289
1.0063560733926005,0.004292560353454192,0.05632692276354628,-0.010519166817943732,0.05975099404498044,-0.025273987248593654
1.0064031554177308,0.0038095921685766332,0.06169500619435909,-0.007972360122875525,0.06586525809193844,-0.024358362196311104
1.0064502374428612,0.010924293923755681,0.08228047308350606,0.0013341291502741227,0.08717528582778786,-0.02075071402087839
1.0064973194679916,0.02453035587728399,0.10822420557096323,0.011333716656649779,0.11359799934896751,-0.01776904158752429
1.006544401493122,0.042966387475684646,0.13379047060518423,0.020787738978896356,0.14020650111090757,-0.015359201611769865
1.0065914835182523,0.06411092062196938,0.15893934561934606,0.03329944681240632,0.16377045440794563,-0.009148804535615755
1.0066385655433827,0.08556714248621351,0.1850726903656203,0.049462130528264495,0.18652070633995235,0.000939905281589258
1.006685647568513,0.10493697207975199,0.20946892949182644,0.06485229624100503,0.20734838408035036,0.010878100799764843
1.0067327295936435,0.12014720761669652,0.2261541854609305,0.07640706666955516,0.22097079428695426,0.01894079867084476
1.0067798116187738,0.12974860817624662,0.2334541380988542,0.08294186479002422,0.22448809323948238,0.024594719249404894
1.0068268936439042,0.1331160769266914,0.2300311604254321,0.08436945777741765,0.2174187574507617,0.027806464607642283
1.0068739756690346,0.13051634907150206,0.21923566432029212,0.08386978816652868,0.2033541953647008,0.030837154745052713
1.006921057694165,0.12301693370584733,0.20070007407776816,0.08185258015702256,0.18338548396837237,0.03382123605283492
1.0069681397192953,0.11219272060745543,0.17656469215050435,0.07585112215539112,0.15909624727354824,0.03393786938876688
1.0070152217444257,0.09964098937742749,0.14928845792109893,0.06985230351433948,0.13113983756729444,0.03499883182002072
1.007062303769556,0.08648287672211809,0.12363688510340569,0.06302251331950957,0.1055130249865401,0.03469498251057376
1.0071093857946865,0.07315337862299943,0.10101878788617377,0.053521194673379444,0.08360559377037362,0.03089414722532907
1.0071564678198168,0.05967551136841471,0.08319264277557885,0.042771215350936226,0.06691931642402203,0.024613675186373037
1.0072035498449472,0.046352747241279996,0.06670460442687684,0.029687677967592516,0.05346259806448049,0.015290401281459809
1.0072506318700776,0.03458526276589038,0.05559558421500658,0.01916866027493343,0.04570257561389166,0.007044119007257179
1.007297713895208,0.02727830692374265,0.051137507990491646,0.01473006896934623,0.04369051559518982,0.0032498167431609867
1.0073447959203383,0.0280866607277734,0.05666026374174076,0.01711698325886342,0.049635023441725414,0.004064523208987156
1.0073918779454687,0.03925806445151868,0.07713827404517881,0.028584290137595406,0.06849586635826678,0.01043689722123785
1.007438959970599,0.059562255279517966,0.10438091440200158,0.043832242766228824,0.09251986367839567,0.01922347539011627
1.0074860419957294,0.08449757331606145,0.13018088751873197,0.058037587268334905,0.11526478228137091,0.027386373413431208
1.0075331240208598,0.10858230355013457,0.14991344068173654,0.06858033205585247,0.13387078836925526,0.033069584332443724
1.0075802060459902,0.12742598805780986,0.1610709731291772,0.07621925524513734,0.1441049051691908,0.038031653317481665
1.0076272880711206,0.13840784538629322,0.16277330388802966,0.07904744927672683,0.1457665462457887,0.04040397483289423
1.007674370096251,0.14057521646913557,0.15639235983221836,0.0769603579802706,0.14161686246628516,0.03937906662997873
1.0077214521213813,0.1345761316442056,0.1433214709283669,0.07084930100861353,0.1311309711885094,0.03597968632780403
1.0077685341465117,0.12269802495893224,0.12361159797279861,0.062425783036096825,0.11378880036838085,0.03204757774892296
1.007815616171642,0.10844877640211482,0.10316468966665056,0.054884533548136764,0.0948364162321657,0.029415721919938524
