freq,gls,usurper,pdc_unbiased,shape_periodogram,shift_periodogram
1.0,0.02176245538732735,0.013209492986704064,-0.007335655112181927,-0.0013792971956457867,-0.007297065376402403
1.0000470820251304,0.05134779247241603,0.01662485383115803,0.016081221596065367,-0.001117783820870108,0.016104962464135498
1.0000941640502607,0.09689124580742478,0.020987070727281332,0.05094334186944231,0.003116660587183969,0.05084496441294858
1.0001412460753911,0.14848755125694818,0.025197263184320667,0.08456655871201842,0.009753642941650301,0.08428932087794559
1.0001883281005215,0.19664060203551523,0.028988819969051675,0.10917973127593883,0.017121564358751524,0.10871852198350307
1.0002354101256519,0.23592916525893703,0.03209324412380581,0.12678225514793529,0.022203596169282375,0.12620310358323536
1.0002824921507822,0.26363730657080775,0.03241403167526731,0.13936052532630389,0.02386692955044177,0.13874605489870426
1.0003295741759126,0.2780607972143743,0.033366659542086494,0.14663287491158739,0.025156894360280995,0.1459917701923636
1.000376656201043,0.27778293516045677,0.035292360768046725,0.14742341655727248,0.026135678703038373,0.14676133229469368
1.0004237382261734,0.2619162710265795,0.03523448305182932,0.139633635428265,0.02696545878640022,0.13895120296721736
1.0004708202513037,0.23107843684954268,0.033596173763771865,0.12167319492364326,0.02668816793198117,0.12099169712142062
1.0005179022764341,0.1884924826566669,0.030856460692342765,0.09811663264576473,0.025637467297453018,0.0974538991298543
1.0005649843015645,0.1401213853463462,0.029518181404968303,0.07552593926328457,0.02420944139417109,0.07489399821677224
1.0006120663266949,0.09311329616242185,0.029721859844039952,0.056936636782797936,0.021863018159174786,0.056361355521782924
1.0006591483518252,0.05338098213176131,0.03246329853264762,0.04656239048066332,0.016974521804752674,0.04611041591495495
1.0007062303769556,0.024158292773911582,0.03441896957626114,0.0379052596807291,0.0105459279917088,0.037619053307392084
1.000753312402086,0.006389706849983347,0.036509789144855,0.024925530867037873,0.0032492811721322058,0.02483219767923455
1.0008003944272164,4.4957735270936574e-05,0.03945219697594964,0.013623927240606612,-0.002690091737866377,0.013689678313878887
1.0008474764523467,0.004476680458159687,0.037664070843815046,0.005279248516488982,-0.004288115907415945,0.005389681684521434
1.000894558477477,0.016631009383087918,0.039088677743263335,0.00604487589630294,-0.0021242989988679386,0.006098398086346549
1.0009416405026075,0.030279800796216314,0.04268184014237781,0.01614856324889533,0.003342482577239353,0.016055706164994653
1.0009887225277379,0.04019506929021177,0.048275782147684784,0.031662352407458065,0.011735681869829734,0.031347081051373966
1.0010358045528682,0.045271217739530065,0.051655392320575415,0.049643587368788454,0.022413451820490093,0.04905463429264067
1.0010828865779986,0.04665854735345898,0.05129981052107252,0.06394396252727896,0.034231209192290786,0.0630687475015644
1.001129968603129,0.04557434040645729,0.049920881932438904,0.06951556918541625,0.04434041502845718,0.06840696918931136
1.0011770506282593,0.04281463251624272,0.04533463466529544,0.06676401531502141,0.050700633769770895,0.06550728121834923
1.0012241326533897,0.03911406922799136,0.038836986696945894,0.05756222886158259,0.053976060109442704,0.05621887512815319
1.00127121467852,0.035734840091298535,0.03241815578979092,0.04469056838221148,0.055717507357157005,0.04328883037966558
1.0013182967036505,0.034632288517627896,0.025923828743056588,0.03354469161607427,0.05693841635710479,0.03209788668283068
1.0013653787287808,0.03686446430802818,0.024798318628325277,0.03235087082016887,0.05664053449281109,0.030909639167693452
1.0014124607539112,0.040499198873267514,0.028538459884143393,0.04235422606047071,0.055812420159568325,0.04094696773288303
1.0014595427790416,0.04245011553894062,0.03284312074200242,0.05148956578485458,0.054022136268427015,0.050137023258208145
1.001506624804172,0.04142424671447975,0.03469922751696672,0.057489670337512934,0.048109549779885574,0.05628236145511518
1.0015537068293023,0.03772147907862947,0.0347887958195378,0.05838903434484734,0.040114791466454205,0.057370827900963234
1.0016007888544327,0.032149333674356434,0.0346787269281231,0.05286952532393206,0.030192911032214217,0.05208844094164957
1.001647870879563,0.025799799790141527,0.03451032173551414,0.040386054375886556,0.018258590372964248,0.039902322180206826
1.0016949529046935,0.020580986012262138,0.031388191181794936,0.02276083148008517,0.006353487848232113,0.02258739251344376
1.0017420349298238,0.01993155776046648,0.02993970982553284,0.008396000375120035,-0.0023933086943107402,0.008455763117512236
1.0017891169549542,0.027489951613850306,0.03042858606537995,0.00883020356959996,-0.003761095201046364,0.008925638860690532
1.0018361989800846,0.042074300128446054,0.030065532981685926,0.022145335055818467,-0.0005721476672264736,0.02215271990797055
1.001883281005215,0.05845891480384451,0.03285161454246699,0.04104344236602053,0.007376313174482355,0.040838012746599414
1.0019303630303453,0.07582159493280267,0.03628865379857702,0.05832937685591873,0.01590737629824084,0.057902677892955216
1.0019774450554757,0.09824195100672209,0.03865307426481742,0.07041397317164165,0.02475542710921815,0.06976831914596464
1.002024527080606,0.1303669711588208,0.035706764562006756,0.07896421651578898,0.03261471926667498,0.07813320178634603
1.0020716091057364,0.17464242099810953,0.030025750278349327,0.08832693698111686,0.03877272921767,0.08735936754637073
1.0021186911308668,0.22917237164395338,0.02973552245175935,0.11355266104308831,0.0427824337800953,0.11251799020106093
1.0021657731559972,0.2864808872447173,0.0326169225413491,0.14880372324738836,0.04611376205199962,0.1477406295595845
1.0022128551811276,0.335488571803669,0.0353645079380557,0.17945522269565434,0.049470451364598524,0.17837442806392168
1.002259937206258,0.3667004160945303,0.03711043187704568,0.20044309409803335,0.051757711045272624,0.19935985951808496
1.0023070192313883,0.37630521047742305,0.03772196422930807,0.20989430295355302,0.05248612480660729,0.2088167864503623
1.0023541012565187,0.3658732131217113,0.036667079438018085,0.20800353236518512,0.05166497509612886,0.20693437310246562
1.002401183281649,0.3393357840705059,0.03470282729177981,0.19716291122807472,0.04871168810727599,0.19612050476048246
1.0024482653067794,0.30043566038503033,0.032912303111142294,0.1783931936762516,0.042532886836445634,0.17742908662902196
1.0024953473319098,0.25183659939415354,0.0304394234975953,0.15384153094853617,0.03279090563467005,0.15304262830923607
1.0025424293570402,0.1956066522565673,0.026513698453822974,0.12081929242955049,0.020678048850192476,0.120274594854746
1.0025895113821706,0.13475970805500284,0.0202102235071007,0.07564140824241966,0.008575869345872782,0.07539595187641512
1.002636593407301,0.07582916802294695,0.014586132521205665,0.025728531183742454,4.660356115817181e-06,0.025719607172130135
1.0026836754324313,0.03145358980808763,0.016198894375656532,-0.0040036080406334615,-0.0019482168927755083,-0.003951272368260342
1.0027307574575617,0.01779891286180085,0.02455124679129081,-0.006351274616742859,0.004396231135998661,-0.006464180200269785
1.002777839482692,0.04358985242398123,0.022358417986640775,0.006591376950054447,0.016909743272097235,0.006147594306183506
1.0028249215078224,0.1037077589167159,0.021160848457918192,0.04281328660270074,0.026375844496165066,0.04212504467505647
1.0028720035329528,0.18101238562213362,0.02682029543496138,0.0979436666785688,0.028442306390388736,0.09721583809058289
1.0029190855580832,0.25636899888384335,0.03808357159956278,0.15380629462607742,0.031083206243749564,0.15304235576600006
1.0029661675832136,0.31832235074100634,0.04757479958200712,0.19704252226634572,0.03085823026034999,0.19630653879611296
1.003013249608344,0.36361141655314383,0.05218091568205426,0.228525784613192,0.02975705578259484,0.227828680301026
1.0030603316334743,0.39341420767750745,0.0546029520686112,0.24979870354304085,0.02896289562098385,0.2491283325282071
1.0031074136586047,0.4102870696014962,0.05485334376177597,0.26258314989231946,0.02770875001356662,0.26194159646884585
1.003154495683735,0.41662904201390033,0.05481334683650576,0.266777273312063,0.0260465915371304,0.2661660943021789
1.0032015777088654,0.41405085665469693,0.053981030648569364,0.26326150551395927,0.023673635126386747,0.26268985458968624
1.0032486597339958,0.4030953535584088,0.0523162731435844,0.251751202986526,0.020522329633091207,0.2512331987291624
1.0032957417591262,0.38301151602067063,0.049775418114745736,0.2324239377319079,0.016585406402712798,0.2319795133959389
1.0033428237842565,0.3514583105172215,0.04608897740780038,0.2047530276495091,0.011740856257961797,0.20441125287819017
1.003389905809387,0.3042863356687068,0.04115784876753508,0.16911475512504195,0.006331861785412034,0.16890317982753597
1.0034369878345173,0.2364892670841809,0.03509468590187305,0.12615890065588273,0.00041412203530760873,0.12610583076553966
1.0034840698596477,0.14805992805189566,0.028239145329117935,0.07745804013496241,-0.00511929154538371,0.07756543004292342
1.003531151884778,0.05937981673678241,0.02336416137876565,0.035632586371168055,-0.009450802890202774,0.03586880324477178
1.0035782339099084,0.016571701488668728,0.022467764758659782,0.012038086514572617,-0.010947626645268287,0.012321077787348842
1.0036253159350388,0.04141534161646615,0.02707747570659569,0.014399178728297872,-0.007507641227558435,0.01459103190942867
1.0036723979601692,0.0978579156313711,0.03432232456068071,0.03595348541122598,0.00010710996325702855,0.035938396003416716
1.0037194799852995,0.14599333246590304,0.04256898492599714,0.06503465797160808,0.009962263385956684,0.06475667616445469
1.00376656201043,0.17300879075255565,0.04703848947183395,0.0922030709843016,0.0206408142236101,0.09165791204028034
1.0038136440355603,0.18229222765708752,0.05097139326286525,0.11374971918924169,0.02801939813813088,0.1130360697015827
1.0038607260606907,0.18262972424027749,0.0534262081255617,0.12736778710133306,0.03415566013444875,0.12652536993880215
1.003907808085821,0.18292620727983336,0.054392611106951545,0.13485525602086357,0.041361949190005125,0.13386937109462732
1.0039548901109514,0.18798821740501145,0.054793521808518576,0.13913083302593265,0.04695575513261108,0.13804009751175986
1.0040019721360818,0.19658928748535154,0.05448944429268438,0.1397247738744464,0.049966725344220586,0.13857803825413462
1.0040490541612122,0.20361099360789395,0.05477959538333323,0.1356935801867525,0.04968033463373789,0.13454664940929945
1.0040961361863425,0.20356945018764083,0.05160560049370709,0.1287855413388881,0.04854856872110008,0.12765116610836968
1.004143218211473,0.19261735903368254,0.04471234756754095,0.11776025800915435,0.0459903578163993,0.11666364017059472
1.0041903002366033,0.1692114287165738,0.037446966428647366,0.09836742477706704,0.04140267797472344,0.0973489892703925
1.0042373822617336,0.13469585530973552,0.030121211833062152,0.07519967777083232,0.03478774530217458,0.07431622730443302
1.004284464286864,0.094068350002802,0.023926467329715848,0.051842634052145065,0.025658242806520223,0.05117307452158465
1.0043315463119944,0.0558705414627791,0.01941187170883144,0.03082107495389939,0.014349614550791574,0.030438744613002954
1.0043786283371248,0.029785725493520713,0.01732930533518075,0.019809015244991575,0.0028552936411282673,0.01972765370913572
1.0044257103622551,0.022326134922130727,0.017290774046428516,0.01684685304795892,-0.00633724079492728,0.017007167089904622
1.0044727923873855,0.03362727707623793,0.018600287236709406,0.01768087969631584,-0.011124830176199326,0.017966875191148774
1.004519874412516,0.057935866130881315,0.020945271373885088,0.0238553638180855,-0.011544187484101383,0.0241505951057825
1.0045669564376463,0.08691312585069338,0.024547882358724755,0.038233159934289905,-0.007223426967684746,0.038409670848198886
1.0046140384627766,0.11302745450084833,0.029373145524895977,0.05542672474865837,0.0011353913307822997,0.05537827342428615
1.004661120487907,0.13143773576861661,0.033553098969331265,0.07126698378066398,0.010932408600318699,0.0709630563513073
1.0047082025130374,0.140315951549541,0.03564896747369078,0.0817840112464661,0.021248726056658788,0.0812239866777923
1.0047552845381678,0.14016084842095028,0.034655387027547016,0.0846685751900148,0.030335411631006788,0.08389286448931918
1.0048023665632981,0.13271042804166153,0.031420403195290714,0.08028160564993014,0.03683975203372796,0.079353125736155
1.0048494485884285,0.1199532079956697,0.02749040261980705,0.06958311394397716,0.04342899390656312,0.06849554322898227
1.0048965306135589,0.10352759540252561,0.02454046653196203,0.05738407400153901,0.047697009261827336,0.05618630289562503
1.0049436126386893,0.08458770500586026,0.019900012417416242,0.04469505929439128,0.04889530374820319,0.04345607600813245
1.0049906946638196,0.06411017510052013,0.01642723428558909,0.03435472552873721,0.046949044903304385,0.03315320232270025
1.00503777668895,0.043500849939608656,0.01308994105804137,0.022887706523455283,0.0429524651615719,0.021776980543027333
1.0050848587140804,0.02497562650004661,0.01069109873360067,0.013888116903115118,0.03648293703426297,0.012937680639156648
1.0051319407392107,0.011013597455985432,0.011154038759718585,0.011624969459267675,0.028049145490112695,0.010891527458478848
1.0051790227643411,0.003334338693202587,0.012379561435626404,0.009001101837417943,0.01889981030965483,0.008505095610988061
1.0052261047894715,0.0027948227754708652,0.010898313995540303,0.005716764128480125,0.011122869343553003,0.005424133748763604
1.0052731868146019,0.010164673003053454,0.008916059208591565,0.005314070387151807,0.0040506709596701265,0.005206315215040922
1.0053202688397322,0.026566180290056158,0.008002875569524389,0.008193549268036414,-0.0035460967665290667,0.00828356831761227
1.0053673508648626,0.05291846997433676,0.008063470112616248,0.011498759854167706,-0.007212424430484749,0.011683797918051537
1.005414432889993,0.08828034555015178,0.010195660049551579,0.017065936640710815,-0.007311551040347663,0.017251774285997574
1.0054615149151234,0.12763762777320273,0.011924519708803025,0.025647230237824777,-0.0051799346021546,0.02577419657168759
1.0055085969402537,0.16155770115500132,0.013064628888307292,0.038076850744054896,0.0003779530409450584,0.03805396953134315
1.0055556789653841,0.18078890709766565,0.014547880378806718,0.05135766337998839,0.008384468697668367,0.051123409103498295
1.0056027609905145,0.18307418566708303,0.015343208866527824,0.06056084021799014,0.017497856823990025,0.06009402676867002
1.0056498430156449,0.1741533504439713,0.015822764343762185,0.06655908741414072,0.02451913485081675,0.06591882199206989
1.0056969250407752,0.16242605985016223,0.015204235162827734,0.07063087442771013,0.030579761705954802,0.06984512997652224
1.0057440070659056,0.15418810481596457,0.013806925894410361,0.07107575192890922,0.032882127080992536,0.07023542600608274
1.005791089091036,0.1523552110015489,0.011984756303835543,0.0660360559428213,0.03226281816224941,0.06520865666545991
1.0058381711161664,0.15691036178882456,0.011171482817959745,0.06130313889977103,0.030916315055354374,0.06050663711753369
1.0058852531412967,0.16538784679386007,0.012828896835030607,0.06307528196508604,0.029093557286413843,0.06232332138509128
1.005932335166427,0.17322460684996496,0.013214569484303372,0.06323184659303546,0.02582711875197744,0.06255932654005336
1.0059794171915575,0.17475929729964576,0.012523923711867028,0.05880087400333982,0.021420746962724967,0.058236545836568517
1.0060264992166879,0.16548577922015562,0.012068512841772879,0.05204155960234529,0.017075742454719406,0.05158631476618719
1.0060735812418182,0.1445721481217929,0.011868854392512337,0.04234591607178599,0.012404993994640902,0.042010969010581545
1.0061206632669486,0.11538472372115638,0.011531828778766523,0.03266210113426135,0.006478311566168766,0.0324823811697717
1.006167745292079,0.08342022676517998,0.010336682071570156,0.0259645785337829,0.0009601309684261999,0.025930611806954378
1.0062148273172093,0.053714935068683495,0.010740361293390252,0.01794830890199036,-0.0025669777165836256,0.01800935638800991
1.0062619093423397,0.029620632829972474,0.011106841363650978,0.006428025048282717,-0.0049275913970693265,0.006554823092633767
1.00630899136747,0.012907514843990737,0.011981579218388399,-0.004503164505502606,-0.004019663997941585,-0.004396489730968168
1.0063560733926005,0.004292560353454192,0.01297535768544011,-0.010519166817943732,-0.0012343107034433383,-0.010483284448911865
1.0064031554177308,0.0038095921685766332,0.0158762517114137,-0.007972360122875525,0.001915283931389483,-0.008019753024921705
1.0064502374428612,0.010924293923755681,0.021607945154658463,0.0013341291502741227,0.008961901871291596,0.0010992349337436101
1.0064973194679916,0.02453035587728399,0.02574092995437762,0.011333716656649779,0.015997502885489914,0.010912747154654949
1.006544401493122,0.042966387475684646,0.028926739447500665,0.020787738978896356,0.022756843977411567,0.020190809321236403
1.0065914835182523,0.06411092062196938,0.029280286485387247,0.03329944681240632,0.026086585054038037,0.03261772109424198
1.0066385655433827,0.08556714248621351,0.029683807344892107,0.049462130528264495,0.026657328563003214,0.04876757754016743
1.006685647568513,0.10493697207975199,0.030080283314611492,0.06485229624100503,0.025268880895287643,0.06419357932291665
1.0067327295936435,0.12014720761669652,0.0296638386260643,0.07640706666955516,0.023554181765319985,0.07579103132731937
1.0067798116187738,0.12974860817624662,0.02776568992627122,0.08294186479002422,0.02122860468391188,0.08238235221832942
1.0068268936439042,0.1331160769266914,0.028128022103662977,0.08436945777741765,0.018114943884267116,0.08388550260280928
1.0068739756690346,0.13051634907150206,0.026093397646298252,0.08386978816652868,0.01500315247847807,0.08346217145283295
1.006921057694165,0.12301693370584733,0.022599806068945565,0.08185258015702256,0.012425411491866826,0.08150914075688721
1.0069681397192953,0.11219272060745543,0.018041164590435064,0.07585112215539112,0.009094489162431435,0.07559250419351637
1.0070152217444257,0.09964098937742749,0.014386562681529597,0.06985230351433948,0.005728486584377133,0.06968085490695763
1.007062303769556,0.08648287672211809,0.01145407213501801,0.06302251331950957,0.003760337131328578,0.06290366410052153
1.0071093857946865,0.07315337862299943,0.010078892179564019,0.053521194673379444,0.0019865018569586,0.053451276910882736
1.0071564678198168,0.05967551136841471,0.008514136591640839,0.042771215350936226,0.00024070171298557684,0.04275032032320781
1.0072035498449472,0.046352747241279996,0.005780970257836924,0.029687677967592516,-0.0014693441377311603,0.029715949111256974
1.0072506318700776,0.03458526276589038,0.004445226548905005,0.01916866027493343,-0.002128950321189904,0.019217815723000926
1.007297713895208,0.02727830692374265,0.004236437223060256,0.01473006896934623,-0.0025002058211970836,0.014790468359092783
1.0073447959203383,0.0280866607277734,0.0053022457037539385,0.01711698325886342,-0.0020430553928089583,0.017164592505197578
1.0073918779454687,0.03925806445151868,0.008344960628592243,0.028584290137595406,-0.0002123183839859119,0.02858006145795745
1.007438959970599,0.059562255279517966,0.012156923934817846,0.043832242766228824,0.001911813281843429,0.043767468192433885
1.0074860419957294,0.08449757331606145,0.015313798565105048,0.058037587268334905,0.004128443789612798,0.057910803128895065
1.0075331240208598,0.10858230355013457,0.017243302495659127,0.06858033205585247,0.007473524123386898,0.0683646979359695
1.0075802060459902,0.12742598805780986,0.019121673214392933,0.07621925524513734,0.010183736830875492,0.07593308661371946
1.0076272880711206,0.13840784538629322,0.019362591828968753,0.07904744927672683,0.01196350142113685,0.07871605405150346
1.007674370096251,0.14057521646913557,0.017890555907358874,0.0769603579802706,0.014054455318802195,0.0765772052182455
1.0077214521213813,0.1345761316442056,0.016826678872724377,0.07084930100861353,0.01505220668841001,0.07044222109494319
