freq,gls,usurper,pdc_unbiased,shape_periodogram,shift_periodogram
1.0,0.02176245538732735,0.029125196088268746,-0.007335655112181927,0.012374524915971475,-0.007966414654457528
1.0000470820251304,0.05134779247241603,0.04666603549527265,0.016081221596065367,0.022159950023908394,0.014917642440170015
1.0000941640502607,0.09689124580742478,0.06625411918585287,0.05094334186944231,0.04026153109379693,0.04884022665878109
1.0001412460753911,0.14848755125694818,0.0869594555301919,0.08456655871201842,0.06203811877402358,0.08143432379691184
1.0001883281005215,0.19664060203551523,0.10642761651476261,0.10917973127593883,0.08593463998907067,0.10505096279760202
1.0002354101256519,0.23592916525893703,0.12086439685014402,0.12678225514793529,0.10473934551264581,0.12198352048224602
1.0002824921507822,0.26363730657080775,0.12931105432978401,0.13936052532630389,0.11695429969091045,0.13420083079524528
1.0003295741759126,0.2780607972143743,0.13487722563244028,0.14663287491158739,0.12495920906862096,0.14126129733432863
1.000376656201043,0.27778293516045677,0.13707791455663174,0.14742341655727248,0.12924367162002062,0.14191922909260185
1.0004237382261734,0.2619162710265795,0.1339164460164823,0.139633635428265,0.13010344642714294,0.13402660852581452
1.0004708202513037,0.23107843684954268,0.12561187265889215,0.12167319492364326,0.1262636318756562,0.1160352495377722
1.0005179022764341,0.1884924826566669,0.11421401011835111,0.09811663264576473,0.11964487848533319,0.09254102320697775
1.0005649843015645,0.1401213853463462,0.1049472215595555,0.07552593926328457,0.11311269461552051,0.07006874368779738
1.0006120663266949,0.09311329616242185,0.09790978490562813,0.056936636782797936,0.10581489062835514,0.05170137210097411
1.0006591483518252,0.05338098213176131,0.09386207952989185,0.04656239048066332,0.0963057131274957,0.0417272774697318
1.0007062303769556,0.024158292773911582,0.08826226692189594,0.0379052596807291,0.08361552225254576,0.03365591643298216
1.000753312402086,0.006389706849983347,0.08082124022301959,0.024925530867037873,0.0678063579829813,0.02143731124408367
1.0008003944272164,4.4957735270936574e-05,0.07577530388140685,0.013623927240606612,0.05366045566319839,0.010846570125595435
1.0008474764523467,0.004476680458159687,0.0716543310360734,0.005279248516488982,0.048474990047580054,0.0027683222568725694
1.000894558477477,0.016631009383087918,0.07547653560118198,0.00604487589630294,0.0518788246571009,0.0033581711962773213
1.0009416405026075,0.030279800796216314,0.08767179987556951,0.01614856324889533,0.06324604739750427,0.012882624803723389
1.0009887225277379,0.04019506929021177,0.10503234585205486,0.031662352407458065,0.08173278170333091,0.027490146270296948
1.0010358045528682,0.045271217739530065,0.11996800810591823,0.049643587368788454,0.10322697639789057,0.04449315898134598
1.0010828865779986,0.04665854735345898,0.12999123600171814,0.06394396252727896,0.12257971950677371,0.057989686185061895
1.001129968603129,0.04557434040645729,0.13520518568650094,0.06951556918541625,0.1357062844186926,0.06303067562673814
1.0011770506282593,0.04281463251624272,0.13290350280022395,0.06676401531502141,0.1400931181788681,0.06006274683739216
1.0012241326533897,0.03911406922799136,0.12408799028877683,0.05756222886158259,0.1373275678708538,0.05089470650914527
1.00127121467852,0.035734840091298535,0.11185794951417195,0.04469056838221148,0.13064421432124151,0.038218186195051636
1.0013182967036505,0.034632288517627896,0.10193738589136228,0.03354469161607427,0.12524356625814628,0.027245420053045036
1.0013653787287808,0.03686446430802818,0.10038037346724296,0.03235087082016887,0.12342697710574167,0.0261316705391197
1.0014124607539112,0.040499198873267514,0.10643196251584507,0.04235422606047071,0.1263269271123969,0.03606741946166899
1.0014595427790416,0.04245011553894062,0.11453376647375293,0.05148956578485458,0.13131562321119844,0.04504183802773882
1.001506624804172,0.04142424671447975,0.11919923669869772,0.057489670337512934,0.13169578823542838,0.05107507803098045
1.0015537068293023,0.03772147907862947,0.11918479860624095,0.05838903434484734,0.12519751096204773,0.052275492337359605
1.0016007888544327,0.032149333674356434,0.11310350905412504,0.05286952532393206,0.11140586164299737,0.047352603925605655
1.001647870879563,0.025799799790141527,0.10055558626593855,0.040386054375886556,0.09057177628107344,0.03580474612027822
1.0016949529046935,0.020580986012262138,0.08277702864704808,0.02276083148008517,0.06728211745754163,0.01929649622449492
1.0017420349298238,0.01993155776046648,0.07040100815874875,0.008396000375120035,0.04968051173939603,0.005822621349420185
1.0017891169549542,0.027489951613850306,0.06822675818957782,0.00883020356959996,0.04702589607969648,0.006393442493592303
1.0018361989800846,0.042074300128446054,0.0719023961579975,0.022145335055818467,0.05541166360927017,0.019281214509585996
1.001883281005215,0.05845891480384451,0.08335950849066515,0.04104344236602053,0.07211308668692651,0.03736454932343863
1.0019303630303453,0.07582159493280267,0.09739800616514976,0.05832937685591873,0.09129785406354404,0.05377562257478557
1.0019774450554757,0.09824195100672209,0.10708592018786312,0.07041397317164165,0.11026688635228718,0.06505103496075632
1.002024527080606,0.1303669711588208,0.10720216249195483,0.07896421651578898,0.12188090111724859,0.07315204814670875
1.0020716091057364,0.17464242099810953,0.10319618670854651,0.08832693698111686,0.12822539432728242,0.08232438137721097
1.0021186911308668,0.22917237164395338,0.10695961656766764,0.11355266104308831,0.13393751549751107,0.10755870721979428
1.0021657731559972,0.2864808872447173,0.11602657920070157,0.14880372324738836,0.140760881023714,0.14295198445332408
1.0022128551811276,0.335488571803669,0.12454659429609727,0.17945522269565434,0.1467433961903809,0.17380700862415344
1.002259937206258,0.3667004160945303,0.12913078181655366,0.20044309409803335,0.1491858911082437,0.19501305812691308
1.0023070192313883,0.37630521047742305,0.12901855741734763,0.20989430295355302,0.1470129174043208,0.2046330149000528
1.0023541012565187,0.3658732131217113,0.12451938081757362,0.20800353236518512,0.1405587079063948,0.20284998691711517
1.002401183281649,0.3393357840705059,0.11760134312868728,0.19716291122807472,0.13050307281215898,0.19211904311637007
1.0024482653067794,0.30043566038503033,0.10849505721004354,0.1783931936762516,0.11495231617299588,0.17360507655006913
1.0024953473319098,0.25183659939415354,0.09544317531964629,0.15384153094853617,0.09267831969404738,0.1496404927301818
1.0025424293570402,0.1956066522565673,0.07576716114235617,0.12081929242955049,0.06513599838669512,0.11760867285926786
1.0025895113821706,0.13475970805500284,0.05166180829653226,0.07564140824241966,0.03251142561304418,0.073912137900106
1.002636593407301,0.07582916802294695,0.031126089983243097,0.025728531183742454,0.005863023542510887,0.025391609198463082
1.0026836754324313,0.03145358980808763,0.024032456935117755,-0.0040036080406334615,-0.0006334832778348605,-0.003965486729879788
1.0027307574575617,0.01779891286180085,0.03323634214440417,-0.006351274616742859,0.01729401956608012,-0.007238259681260295
1.002777839482692,0.04358985242398123,0.04654888867039479,0.006591376950054447,0.049076763608610297,0.0040492419496114115
1.0028249215078224,0.1037077589167159,0.0693779018059518,0.04281328660270074,0.08070516899731016,0.038718405982059736
1.0028720035329528,0.18101238562213362,0.09820492676516178,0.0979436666785688,0.10525279077494988,0.09295569162593442
1.0029190855580832,0.25636899888384335,0.12401848884593297,0.15380629462607742,0.12140399539959193,0.14861376407781143
1.0029661675832136,0.31832235074100634,0.142556955117132,0.19704252226634572,0.12868171371115342,0.192042806763251
1.003013249608344,0.36361141655314383,0.15257868939765992,0.228525784613192,0.13214010730359735,0.2237794489458009
1.0030603316334743,0.39341420767750745,0.15750283723095398,0.24979870354304085,0.13251615145778695,0.24528043251395845
1.0031074136586047,0.4102870696014962,0.1582096008297315,0.26258314989231946,0.13077373455191058,0.2582338111832181
1.003154495683735,0.41662904201390033,0.1562541864135285,0.266777273312063,0.12704369471042593,0.26252936923168974
1.0032015777088654,0.41405085665469693,0.15171168529080953,0.26326150551395927,0.12114321802762049,0.25907423227692117
1.0032486597339958,0.4030953535584088,0.1445164574188571,0.251751202986526,0.11283576294230206,0.24761823661199986
1.0032957417591262,0.38301151602067063,0.13442946741640663,0.2324239377319079,0.10205120332462726,0.22839428569652373
1.0033428237842565,0.3514583105172215,0.1210547406550054,0.2047530276495091,0.0885858104567288,0.20094546828060414
1.003389905809387,0.3042863356687068,0.10395332150264999,0.16911475512504195,0.07275327155063407,0.16571561893797915
1.0034369878345173,0.2364892670841809,0.08384933398853127,0.12615890065588273,0.05494446018586622,0.12340044676105881
1.0034840698596477,0.14805992805189566,0.06248248405643508,0.07745804013496241,0.036693491273951356,0.07552433253713473
1.003531151884778,0.05937981673678241,0.04725212655241469,0.035632586371168055,0.0231319195712644,0.03439993800195727
1.0035782339099084,0.016571701488668728,0.04446841322880996,0.012038086514572617,0.019161262505917116,0.011033158975939202
1.0036253159350388,0.04141534161646615,0.05770830670946275,0.014399178728297872,0.029541285909204663,0.012858040083741596
1.0036723979601692,0.0978579156313711,0.08137288921056271,0.03595348541122598,0.05120872812326074,0.03330525834284022
1.0037194799852995,0.14599333246590304,0.1101045832241464,0.06503465797160808,0.07639300517808902,0.06119851819131627
1.00376656201043,0.17300879075255565,0.1323455117827949,0.0922030709843016,0.0995024578380306,0.08742669947370897
1.0038136440355603,0.18229222765708752,0.1469895613763597,0.11374971918924169,0.11414334202670406,0.10850492832619006
1.0038607260606907,0.18262972424027749,0.15376903042711842,0.12736778710133306,0.12420029454549375,0.12185371534692951
1.003907808085821,0.18292620727983336,0.156012670372495,0.13485525602086357,0.1322352380441931,0.1291302654101632
1.0039548901109514,0.18798821740501145,0.1568757343774396,0.13913083302593265,0.136662209852039,0.13330250971363838
1.0040019721360818,0.19658928748535154,0.15439463632418238,0.1397247738744464,0.13739497086780347,0.13387895039470463
1.0040490541612122,0.20361099360789395,0.14931102633574939,0.1356935801867525,0.13598041823192994,0.129851621875605
1.0040961361863425,0.20356945018764083,0.14041350958663637,0.1287855413388881,0.13211846882269876,0.12300516567369157
1.004143218211473,0.19261735903368254,0.1281426109036857,0.11776025800915435,0.12586214855182634,0.11210294153649417
1.0041903002366033,0.1692114287165738,0.1119419347335275,0.09836742477706704,0.1147482639605152,0.09299183671893994
1.0042373822617336,0.13469585530973552,0.0931885351633037,0.07519967777083232,0.09907105033967172,0.07036041172812402
1.004284464286864,0.094068350002802,0.07427429927089489,0.051842634052145065,0.08077962557488932,0.04776664733995159
1.0043315463119944,0.0558705414627791,0.05705059928536132,0.03082107495389939,0.060711918780813535,0.027694848759516465
1.0043786283371248,0.029785725493520713,0.045724426845840424,0.019809015244991575,0.04263583779492535,0.017594491706321963
1.0044257103622551,0.022326134922130727,0.04068564898280136,0.01684685304795892,0.029596122004745307,0.015300862142738361
1.0044727923873855,0.03362727707623793,0.04123064298772268,0.01768087969631584,0.02382913491028284,0.016429955605093343
1.004519874412516,0.057935866130881315,0.04667083863436894,0.0238553638180855,0.02512289192484345,0.022532225833574178
1.0045669564376463,0.08691312585069338,0.05721599391504455,0.038233159934289905,0.034861646890228914,0.03640483924355939
1.0046140384627766,0.11302745450084833,0.07139837917189373,0.05542672474865837,0.052775782922943014,0.052708330071185104
1.004661120487907,0.13143773576861661,0.08544793490038773,0.07126698378066398,0.0734320771132627,0.06758304942093663
1.0047082025130374,0.140315951549541,0.09789771406794855,0.0817840112464661,0.09366802796966936,0.07721374365873615
1.0047552845381678,0.14016084842095028,0.10391571827378604,0.0846685751900148,0.10990225606714661,0.07940671040898696
1.0048023665632981,0.13271042804166153,0.1038437337490182,0.08028160564993014,0.12044067122932685,0.07454063602133532
1.0048494485884285,0.1199532079956697,0.09975629779346959,0.06958311394397716,0.12720680929135986,0.06346797724895209
1.0048965306135589,0.10352759540252561,0.09536705170559362,0.05738407400153901,0.12904366083107385,0.05108849490973267
1.0049436126386893,0.08458770500586026,0.08851674447688648,0.04469505929439128,0.1258357137328344,0.038448933396478306
1.0049906946638196,0.06411017510052013,0.08211615644324079,0.03435472552873721,0.1185374366327128,0.028386903007453487
1.00503777668895,0.043500849939608656,0.07365005595249226,0.022887706523455283,0.10781013542757324,0.01738572790578737
1.0050848587140804,0.02497562650004661,0.06319975197981463,0.013888116903115118,0.09335283693987069,0.009081845776376617
1.0051319407392107,0.011013597455985432,0.05406236769867245,0.011624969459267675,0.07738573850094607,0.007630382966810614
1.0051790227643411,0.003334338693202587,0.045034071865207755,0.009001101837417943,0.0590370367710436,0.00594622728105912
1.0052261047894715,0.0027948227754708652,0.03263017418193177,0.005716764128480125,0.038921705408213395,0.0036989117408952354
1.0052731868146019,0.010164673003053454,0.021688366345286463,0.005314070387151807,0.021241998119434547,0.004209286722413871
1.0053202688397322,0.026566180290056158,0.014328776705234445,0.008193549268036414,0.007393412106090516,0.007800438255250475
1.0053673508648626,0.05291846997433676,0.010919700283081327,0.011498759854167706,-8.581905932782215e-05,0.011487809421765046
1.005414432889993,0.08828034555015178,0.010652359225417433,0.017065936640710815,-0.002428510976046061,0.01716870236540518
1.0054615149151234,0.12763762777320273,0.012917328459169247,0.025647230237824777,6.16076721134436e-05,0.025609742531425683
1.0055085969402537,0.16155770115500132,0.01842071559489174,0.038076850744054896,0.010267506311851351,0.03749802429570125
1.0055556789653841,0.18078890709766565,0.026363924594272378,0.05135766337998839,0.02557125023753443,0.04998792127804634
1.0056027609905145,0.18307418566708303,0.03274726727272177,0.06056084021799014,0.04244745324792479,0.05834867003130147
1.0056498430156449,0.1741533504439713,0.03903139311458726,0.06655908741414072,0.057273606322452895,0.06363092818430778
1.0056969250407752,0.16242605985016223,0.04396783734730038,0.07063087442771013,0.07010302355519547,0.06710102458805685
1.0057440070659056,0.15418810481596457,0.04542496071541971,0.07107575192890922,0.07818149214966082,0.06717097921782848
1.005791089091036,0.1523552110015489,0.04371431868688971,0.0660360559428213,0.08115518608410416,0.06197994594745176
1.0058381711161664,0.15691036178882456,0.04307135232718225,0.06130313889977103,0.08121090002478379,0.05723152664030447
1.0058852531412967,0.16538784679386007,0.044579238186725684,0.06307528196508604,0.07927422330381217,0.05909923337808614
1.005932335166427,0.17322460684996496,0.0439927934734249,0.06323184659303546,0.07447775288145979,0.05948175423981442
1.0059794171915575,0.17475929729964576,0.04044261316131814,0.05880087400333982,0.06648119653524863,0.05542296080008101
1.0060264992166879,0.16548577922015562,0.03581161448162916,0.05204155960234529,0.05739393682740812,0.049095701849098346
1.0060735812418182,0.1445721481217929,0.030685627919316588,0.04234591607178599,0.04656335120346602,0.03993037463731584
1.0061206632669486,0.11538472372115638,0.026339388904808123,0.03266210113426135,0.03577666237256403,0.030790506418708934
1.006167745292079,0.08342022676517998,0.024269347244063915,0.0259645785337829,0.0273890674832519,0.024523805167466193
1.0062148273172093,0.053714935068683495,0.025072915203511143,0.01794830890199036,0.021890150135908004,0.016796647899099085
1.0062619093423397,0.029620632829972474,0.02641886517870139,0.006428025048282717,0.01890461445911307,0.005442679642199057
1.00630899136747,0.012907514843990737,0.027161202925320985,-0.004503164505502606,0.017742511309891403,-0.005415617429094157
1.0063560733926005,0.004292560353454192,0.029156348827861424,-0.010519166817943732,0.01895174185976529,-0.011487178282554644
1.0064031554177308,0.0038095921685766332,0.03233193489904219,-0.007972360122875525,0.02048566309905394,-0.009023009100093344
1.0064502374428612,0.010924293923755681,0.04045727191640442,0.0013341291502741227,0.027924876656789825,-0.00011200309298153594
1.0064973194679916,0.02453035587728399,0.04881053754244855,0.011333716656649779,0.038246261835790926,0.009347568335927382
1.006544401493122,0.042966387475684646,0.05602091943186058,0.020787738978896356,0.048927479050516184,0.018252645054379187
1.0065914835182523,0.06411092062196938,0.06119029222314732,0.03329944681240632,0.057001940667162514,0.030360514676734306
1.0066385655433827,0.08556714248621351,0.06759093801101078,0.049462130528264495,0.06338014493313436,0.04622195113675149
1.006685647568513,0.10493697207975199,0.07140540582940509,0.06485229624100503,0.06731556015121812,0.061443810811885595
1.0067327295936435,0.12014720761669652,0.07237699637389523,0.07640706666955516,0.0686316570177384,0.07295636204209273
1.0067798116187738,0.12974860817624662,0.06999981372475739,0.08294186479002422,0.06667037183313462,0.07959331516809835
1.0068268936439042,0.1331160769266914,0.06736934500297813,0.08436945777741765,0.061879822847773325,0.0812442793505698
1.0068739756690346,0.13051634907150206,0.06213702548126062,0.08386978816652868,0.05613647071007422,0.08101126175714667
1.006921057694165,0.12301693370584733,0.05435093604813839,0.08185258015702256,0.048473508786743384,0.07935368795326968
1.0069681397192953,0.11219272060745543,0.0447056779983977,0.07585112215539112,0.03945250920707277,0.0737838647981407
1.0070152217444257,0.09964098937742749,0.03527726617167201,0.06985230351433948,0.03070661885978511,0.06821442462975726
1.007062303769556,0.08648287672211809,0.02813401330887295,0.06302251331950957,0.024013204607369703,0.06172146721298228
1.0071093857946865,0.07315337862299943,0.023431392196459618,0.053521194673379444,0.018775324235810745,0.05249199657662426
1.0071564678198168,0.05967551136841471,0.01996924698141277,0.042771215350936226,0.014529639736052374,0.04196902762405328
1.0072035498449472,0.046352747241279996,0.017248235080831446,0.029687677967592516,0.012389876683184317,0.02901021205770363
1.0072506318700776,0.03458526276589038,0.016698860230766596,0.01916866027493343,0.012666372136404131,0.018489726307687002
1.007297713895208,0.02727830692374265,0.018532211933483093,0.01473006896934623,0.013701187542507065,0.014003251464261238
1.0073447959203383,0.0280866607277734,0.023970588459690075,0.01711698325886342,0.017669892859736917,0.016183080002315667
1.0073918779454687,0.03925806445151868,0.035824508588970225,0.028584290137595406,0.027078379420791047,0.027157120751703057
1.007438959970599,0.059562255279517966,0.05088672902812453,0.043832242766228824,0.038845442677613015,0.041801568869213296
1.0074860419957294,0.08449757331606145,0.06520784891875732,0.058037587268334905,0.052229571517488395,0.055347093022741635
1.0075331240208598,0.10858230355013457,0.07694873094127429,0.06858033205585247,0.06486234960420319,0.06529358282763718
1.0075802060459902,0.12742598805780986,0.08461353603910868,0.07621925524513734,0.07368343415793617,0.07253444638695969
1.0076272880711206,0.13840784538629322,0.08731778861749023,0.07904744927672683,0.0782296818682108,0.0751611147481318
1.007674370096251,0.14057521646913557,0.08398552519633341,0.0769603579802706,0.07876594494484192,0.07304402108131207
1.0077214521213813,0.1345761316442056,0.07697134002863308,0.07084930100861353,0.0751271604634062,0.06708561428738563
1.0077685341465117,0.12269802495893224,0.0666018832331344,0.062425783036096825,0.0670999985124684,0.05902375088536943
1.007815616171642,0.10844877640211482,0.05600114642403791,0.054884533548136764,0.055525838177190846,0.05203176508346564
