freq,gls,usurper,pdc_unbiased,shape_periodogram,shift_periodogram
1.0,0.02176245538732735,0.013189121104760367,-0.007335655112181927,0.009909839876730518,-0.007578631172116672
1.0000470820251304,0.05134779247241603,0.019305694412490446,0.016081221596065367,0.01175648583830095,0.015787021283225598
1.0000941640502607,0.09689124580742478,0.0283433429887045,0.05094334186944231,0.017984209423871945,0.05049331149474566
1.0001412460753911,0.14848755125694818,0.0371284447068296,0.08456655871201842,0.028957379305577312,0.08386792697776757
1.0001883281005215,0.19664060203551523,0.046200501443346725,0.10917973127593883,0.04442702467513653,0.10817396414087181
1.0002354101256519,0.23592916525893703,0.054504428362891044,0.12678225514793529,0.05763692995719078,0.12555925962970524
1.0002824921507822,0.26363730657080775,0.06070708982549824,0.13936052532630389,0.06631281902760645,0.1380252431417662
1.0003295741759126,0.2780607972143743,0.06482653805653796,0.14663287491158739,0.07126164730742517,0.14524555309650028
1.000376656201043,0.27778293516045677,0.06611496480403471,0.14742341655727248,0.07472758045877427,0.1459915696513035
1.0004237382261734,0.2619162710265795,0.06450621794415738,0.139633635428265,0.07553570979130196,0.13816622074276405
1.0004708202513037,0.23107843684954268,0.06025805077529278,0.12167319492364326,0.07335148917449481,0.12018273330442847
1.0005179022764341,0.1884924826566669,0.05445414285549454,0.09811663264576473,0.06973623006671432,0.09662126061438972
1.0005649843015645,0.1401213853463462,0.05024173855381197,0.07552593926328457,0.06609288522468056,0.0740445746070442
1.0006120663266949,0.09311329616242185,0.047438573410157205,0.056936636782797936,0.06143816257863775,0.0555129485184217
1.0006591483518252,0.05338098213176131,0.0465585862482134,0.04656239048066332,0.05477562785805803,0.04526683551832741
1.0007062303769556,0.024158292773911582,0.04474120401379316,0.0379052596807291,0.0455468414624926,0.0368087787588275
1.000753312402086,0.006389706849983347,0.04301277189226168,0.024925530867037873,0.0345663726904163,0.02407896846157656
1.0008003944272164,4.4957735270936574e-05,0.04166912433194745,0.013623927240606612,0.02530412290946285,0.012998852060644323
1.0008474764523467,0.004476680458159687,0.03938582012700712,0.005279248516488982,0.021737231299210635,0.004741668273015491
1.000894558477477,0.016631009383087918,0.04272866883307889,0.00604487589630294,0.02366546928728411,0.0054598342735577956
1.0009416405026075,0.030279800796216314,0.04976139375557692,0.01614856324889533,0.03033450515124586,0.015401459171814716
1.0009887225277379,0.04019506929021177,0.05825155751763561,0.031662352407458065,0.04151299749465008,0.030654835758431517
1.0010358045528682,0.045271217739530065,0.06442617044007899,0.049643587368788454,0.05559785554667247,0.04833421132560819
1.0010828865779986,0.04665854735345898,0.07034304659350865,0.06394396252727896,0.06856299522048576,0.062386726881144564
1.001129968603129,0.04557434040645729,0.07368965255669954,0.06951556918541625,0.07839936051132908,0.06777856263670469
1.0011770506282593,0.04281463251624272,0.07326385485212476,0.06676401531502141,0.0825973841970537,0.06493698083677651
1.0012241326533897,0.03911406922799136,0.06940147565865676,0.05756222886158259,0.08168080786905436,0.055721735085519
1.00127121467852,0.035734840091298535,0.06306600724999459,0.04469056838221148,0.077890246103581,0.04288792043804911
1.0013182967036505,0.034632288517627896,0.05787946578344683,0.03354469161607427,0.07451335692699715,0.03178450725421216
1.0013653787287808,0.03686446430802818,0.05518056332248727,0.03235087082016887,0.07290924947661509,0.030623574136670415
1.0014124607539112,0.040499198873267514,0.0558954581220651,0.04235422606047071,0.07402823830620556,0.04062814367547782
1.0014595427790416,0.04245011553894062,0.05913835516308878,0.05148956578485458,0.0772662055542719,0.04972028193263985
1.001506624804172,0.04142424671447975,0.06151710454689557,0.057489670337512934,0.07705628402526127,0.05574252128244256
1.0015537068293023,0.03772147907862947,0.06300180588346788,0.05838903434484734,0.071879813886866,0.05675030003346797
1.0016007888544327,0.032149333674356434,0.060583835003933974,0.05286952532393206,0.06248152081853776,0.05141603610288255
1.001647870879563,0.025799799790141527,0.05386169694765126,0.040386054375886556,0.048689364895862786,0.03921996845631771
1.0016949529046935,0.020580986012262138,0.044124853549748516,0.02276083148008517,0.03364000335884508,0.021935700595055042
1.0017420349298238,0.01993155776046648,0.03910700801803829,0.008396000375120035,0.023054009212734927,0.007825927638299885
1.0017891169549542,0.027489951613850306,0.038506048227922224,0.00883020356959996,0.02235748932116311,0.008277202121697486
1.0018361989800846,0.042074300128446054,0.03987664581336423,0.022145335055818467,0.027594516737244567,0.021465395526550878
1.001883281005215,0.05845891480384451,0.046694667558968374,0.04104344236602053,0.03792433534851647,0.040124984081637824
1.0019303630303453,0.07582159493280267,0.05245329923919778,0.05832937685591873,0.05037015022753105,0.0571455356000642
1.0019774450554757,0.09824195100672209,0.0548371110090829,0.07041397317164165,0.06444053818250237,0.06895450494171779
1.002024527080606,0.1303669711588208,0.05204897582166169,0.07896421651578898,0.07328353482142437,0.07735275163097817
1.0020716091057364,0.17464242099810953,0.04840933991011883,0.08832693698111686,0.07897208558189805,0.08663969753983163
1.0021186911308668,0.22917237164395338,0.04926198557053162,0.11355266104308831,0.08331756931802771,0.11188286329520894
1.0021657731559972,0.2864808872447173,0.0532087806454903,0.14880372324738836,0.08758076462852918,0.14721919711351147
1.0022128551811276,0.335488571803669,0.056896667372486796,0.17945522269565434,0.0912786297665146,0.17797308110564442
1.002259937206258,0.3667004160945303,0.05847109614876622,0.20044309409803335,0.09303384552909531,0.1990504644813904
1.0023070192313883,0.37630521047742305,0.05775628520951019,0.20989430295355302,0.09223289533228386,0.20855193136681746
1.0023541012565187,0.3658732131217113,0.05521667338751143,0.20800353236518512,0.08913737522533813,0.20666791659655664
1.002401183281649,0.3393357840705059,0.052144829102204374,0.19716291122807472,0.0844656481275752,0.1958102845144664
1.0024482653067794,0.30043566038503033,0.04838018419360301,0.1783931936762516,0.07533883608389244,0.17705361309524967
1.0024953473319098,0.25183659939415354,0.042986068162274564,0.15384153094853617,0.060296351619642106,0.1526291116579041
1.0025424293570402,0.1956066522565673,0.034200382032000994,0.12081929242955049,0.041306217099297715,0.11988521914598531
1.0025895113821706,0.13475970805500284,0.02593109991875377,0.07564140824241966,0.01875030692927303,0.07517222599890161
1.002636593407301,0.07582916802294695,0.020964846873608674,0.025728531183742454,0.0010870230799433995,0.025693863341383162
1.0026836754324313,0.03145358980808763,0.018368969884186657,-0.0040036080406334615,0.0009872204176714777,-0.00402678045858
1.0027307574575617,0.01779891286180085,0.02179473773086955,-0.006351274616742859,0.0192134328367693,-0.006825312528584302
1.002777839482692,0.04358985242398123,0.028645623478812877,0.006591376950054447,0.04318819048786988,0.005527436131545076
1.0028249215078224,0.1037077589167159,0.04404623474281358,0.04281328660270074,0.06373156813898978,0.04131349716388577
1.0028720035329528,0.18101238562213362,0.061538442029834876,0.0979436666785688,0.07431556432768041,0.09636764764320657
1.0029190855580832,0.25636899888384335,0.07474947749644346,0.15380629462607742,0.07865093186153077,0.15234575942820117
1.0029661675832136,0.31832235074100634,0.08104076741695504,0.19704252226634572,0.08072712838509254,0.19571830327763778
1.003013249608344,0.36361141655314383,0.08551995660256045,0.228525784613192,0.08099445811119149,0.22732017420690565
1.0030603316334743,0.39341420767750745,0.08691860297142734,0.24979870354304085,0.07864764891417372,0.24868443149678576
1.0031074136586047,0.4102870696014962,0.08597550194338795,0.26258314989231946,0.07616949832591742,0.2615243697186634
1.003154495683735,0.41662904201390033,0.08380144689030737,0.266777273312063,0.0726690260622368,0.2657462122761211
1.0032015777088654,0.41405085665469693,0.08031330326679541,0.26326150551395927,0.06797511768539556,0.2622425612521176
1.0032486597339958,0.4030953535584088,0.07551963663476724,0.251751202986526,0.061998391705580094,0.25074184704409347
1.0032957417591262,0.38301151602067063,0.0693083272536791,0.2324239377319079,0.05476183848184577,0.2314399310653793
1.0033428237842565,0.3514583105172215,0.061430434798988215,0.2047530276495091,0.04616580326514596,0.20383129541247585
1.003389905809387,0.3042863356687068,0.05149157341203157,0.16911475512504195,0.03646931403672769,0.16831043035105772
1.0034369878345173,0.2364892670841809,0.04023315935040129,0.12615890065588273,0.026075541711900213,0.12553393780833094
1.0034840698596477,0.14805992805189566,0.02905129210291897,0.07745804013496241,0.015751814908117282,0.07705830000450299
1.003531151884778,0.05937981673678241,0.0219711756702988,0.035632586371168055,0.00813934914604407,0.0354221567239802
1.0035782339099084,0.016571701488668728,0.02203496419963918,0.012038086514572617,0.0056065956794924855,0.011896093950015542
1.0036253159350388,0.04141534161646615,0.03074753878293612,0.014399178728297872,0.011895467398581909,0.014101943206903122
1.0036723979601692,0.0978579156313711,0.045460643963502,0.03595348541122598,0.02643441904787745,0.03530291344908574
1.0037194799852995,0.14599333246590304,0.0642257323246921,0.06503465797160808,0.041041744891464206,0.06406085653273952
1.00376656201043,0.17300879075255565,0.0780460317698491,0.0922030709843016,0.05338100336633296,0.09100137309949759
1.0038136440355603,0.18229222765708752,0.08674233780285899,0.11374971918924169,0.06060641226305378,0.1124505926589483
1.0038607260606907,0.18262972424027749,0.08968194128755239,0.12736778710133306,0.06479982298008603,0.12602736823726587
1.003907808085821,0.18292620727983336,0.09163296678282891,0.13485525602086357,0.06789129691907202,0.13348478899756402
1.0039548901109514,0.18798821740501145,0.09316492369778646,0.13913083302593265,0.07089480102729943,0.13772739800391384
1.0040019721360818,0.19658928748535154,0.09127772054904079,0.1397247738744464,0.07228665938977233,0.138303102308397
1.0040490541612122,0.20361099360789395,0.08620545646956287,0.1356935801867525,0.07379395035271473,0.13423840504952939
1.0040961361863425,0.20356945018764083,0.0786234347801866,0.1287855413388881,0.07252268309086654,0.1273285411984683
1.004143218211473,0.19261735903368254,0.07112230187515216,0.11776025800915435,0.07092702453291527,0.11629698200997697
1.0041903002366033,0.1692114287165738,0.06135255059799797,0.09836742477706704,0.06584569379102354,0.0969422630350593
1.0042373822617336,0.13469585530973552,0.05012632481775831,0.07519967777083232,0.056567909474755165,0.07390841798973542
1.004284464286864,0.094068350002802,0.03794953088445617,0.051842634052145065,0.045277497630397553,0.05076441455138744
1.0043315463119944,0.0558705414627791,0.02659939525358491,0.03082107495389939,0.03218087265421157,0.030033155354926754
1.0043786283371248,0.029785725493520713,0.019594767253043266,0.019809015244991575,0.019875604979526982,0.0193159557945229
1.0044257103622551,0.022326134922130727,0.0168096489664794,0.01684685304795892,0.010736664188822556,0.016577483114915352
1.0044727923873855,0.03362727707623793,0.01746638280373372,0.01768087969631584,0.0064118652619444315,0.01751748475872912
1.004519874412516,0.057935866130881315,0.021192155639108857,0.0238553638180855,0.006964657761968741,0.02367671320344551
1.0045669564376463,0.08691312585069338,0.027237928492930916,0.038233159934289905,0.013375549176209877,0.03789510778854244
1.0046140384627766,0.11302745450084833,0.034460164701829304,0.05542672474865837,0.025880118520326623,0.054791583880970336
1.004661120487907,0.13143773576861661,0.041937948162261304,0.07126698378066398,0.04085140995959442,0.07030189500386363
1.0047082025130374,0.140315951549541,0.048820689490261394,0.0817840112464661,0.05544963883491452,0.0805256707491724
1.0047552845381678,0.14016084842095028,0.05061020454443496,0.0846685751900148,0.06736176571693599,0.0831836055714082
1.0048023665632981,0.13271042804166153,0.04929493774065797,0.08028160564993014,0.07599983326519086,0.07862304940422699
1.0048494485884285,0.1199532079956697,0.045217599043107404,0.06958311394397716,0.08185625582235663,0.06778003564732918
1.0048965306135589,0.10352759540252561,0.042711794237219186,0.05738407400153901,0.08448521681638058,0.055486752297158895
1.0049436126386893,0.08458770500586026,0.03934896310761558,0.04469505929439128,0.082353444375293,0.042797483427978775
1.0049906946638196,0.06411017510052013,0.035935661233402076,0.03435472552873721,0.07642532736488078,0.03255411263724676
1.00503777668895,0.043500849939608656,0.03052108268987206,0.022887706523455283,0.06860817602226386,0.021236723789875858
1.0050848587140804,0.02497562650004661,0.024363749219544862,0.013888116903115118,0.0593406430331849,0.012439918296811316
1.0051319407392107,0.011013597455985432,0.01808334470726463,0.011624969459267675,0.049040418793342054,0.01042243215639629
1.0051790227643411,0.003334338693202587,0.013867479023394576,0.009001101837417943,0.03602336836169194,0.00811360978411095
1.0052261047894715,0.0027948227754708652,0.008385092866709864,0.005716764128480125,0.021160648677634213,0.005193342780209271
1.0052731868146019,0.010164673003053454,0.005695556918772283,0.005314070387151807,0.008948636297391422,0.005091547381026477
1.0053202688397322,0.026566180290056158,0.005779483890011954,0.008193549268036414,0.0010366751934898248,0.008165439366144096
1.0053673508648626,0.05291846997433676,0.007438113359243442,0.011498759854167706,-0.0027391943608632056,0.011562962644837999
1.005414432889993,0.08828034555015178,0.00863505866210656,0.017065936640710815,-0.0028618134809926276,0.017131479794644987
1.0054615149151234,0.12763762777320273,0.010915338101651868,0.025647230237824777,0.0005290951557196257,0.02562634778265016
1.0055085969402537,0.16155770115500132,0.014388922773847618,0.038076850744054896,0.00896065551399439,0.03784582714647222
1.0055556789653841,0.18078890709766565,0.018931610150945615,0.05135766337998839,0.020339851073120523,0.05085190284480802
1.0056027609905145,0.18307418566708303,0.0215952732419831,0.06056084021799014,0.03269942269775998,0.05977067102492886
1.0056498430156449,0.1741533504439713,0.025182028895263137,0.06655908741414072,0.044257783765198636,0.06551634070238495
1.0056969250407752,0.16242605985016223,0.026966277665628424,0.07063087442771013,0.05392950065099856,0.06938712255799859
1.0057440070659056,0.15418810481596457,0.025895816443120428,0.07107575192890922,0.05980282652134601,0.06971159437599231
1.005791089091036,0.1523552110015489,0.02238338080081485,0.0660360559428213,0.061616440593619495,0.06462548997394854
1.0058381711161664,0.15691036178882456,0.020554966130550616,0.06130313889977103,0.06091086677125629,0.05989852220403008
1.0058852531412967,0.16538784679386007,0.020427395519563324,0.06307528196508604,0.0578061282676389,0.061738924753681076
1.005932335166427,0.17322460684996496,0.019886782828581542,0.06323184659303546,0.05261471673452376,0.06200573378591659
1.0059794171915575,0.17475929729964576,0.01698280739550021,0.05880087400333982,0.045279041340112056,0.05772887137883287
1.0060264992166879,0.16548577922015562,0.01346227003111128,0.05204155960234529,0.038314243150906604,0.05112020957268658
1.0060735812418182,0.1445721481217929,0.010232660314824506,0.04234591607178599,0.030797358729458442,0.041593737182018996
1.0061206632669486,0.11538472372115638,0.007323257045720195,0.03266210113426135,0.024123637829899923,0.03206632230349406
1.006167745292079,0.08342022676517998,0.0069053021157926345,0.0259645785337829,0.01897105844926017,0.0254929473129662
1.0062148273172093,0.053714935068683495,0.009045238000238254,0.01794830890199036,0.01590605087602268,0.017552210844913776
1.0062619093423397,0.029620632829972474,0.01218160017443132,0.006428025048282717,0.01550732987850627,0.0060436382778361886
1.00630899136747,0.012907514843990737,0.015206911224254637,-0.004503164505502606,0.01569166062107903,-0.004890106829735287
1.0063560733926005,0.004292560353454192,0.019375347351198724,-0.010519166817943732,0.016989680052385096,-0.010937262419666477
1.0064031554177308,0.0038095921685766332,0.023620299796158078,-0.007972360122875525,0.01826888076342392,-0.008422695183535191
1.0064502374428612,0.010924293923755681,0.02979118914527665,0.0013341291502741227,0.021669787893650615,0.0007984676985783734
1.0064973194679916,0.02453035587728399,0.03597967429487196,0.011333716656649779,0.026742311794872034,0.010673413056886549
1.006544401493122,0.042966387475684646,0.040899714226418145,0.020787738978896356,0.031462741864192866,0.020014366109435838
1.0065914835182523,0.06411092062196938,0.044721321697994296,0.03329944681240632,0.03557074444598295,0.032432292768394995
1.0066385655433827,0.08556714248621351,0.04941989867980015,0.049462130528264495,0.03918139899833728,0.04851957544087913
1.006685647568513,0.10493697207975199,0.05144836554722204,0.06485229624100503,0.04186679126493168,0.06386026247931663
1.0067327295936435,0.12014720761669652,0.05113708606937215,0.07640706666955516,0.04284926516886077,0.0754030914610605
1.0067798116187738,0.12974860817624662,0.04751486608186251,0.08294186479002422,0.041334960500725784,0.0819753403539056
1.0068268936439042,0.1331160769266914,0.043740438637024356,0.08436945777741765,0.0376821366898026,0.08348147496968407
1.0068739756690346,0.13051634907150206,0.039513013658523714,0.08386978816652868,0.03346907342569392,0.08307220869561383
1.006921057694165,0.12301693370584733,0.03419307703591989,0.08185258015702256,0.02688769814922685,0.08119915513449125
1.0069681397192953,0.11219272060745543,0.027509838453533185,0.07585112215539112,0.019953461454835137,0.07535419913212202
1.0070152217444257,0.09964098937742749,0.020428037624770884,0.06985230351433948,0.013917253134878571,0.069496394773755
1.007062303769556,0.08648287672211809,0.015193357674638962,0.06302251331950957,0.009938938907086829,0.06276230773378193
1.0071093857946865,0.07315337862299943,0.011228942005447037,0.053521194673379444,0.007484017099535674,0.05332225646634443
1.0071564678198168,0.05967551136841471,0.0071379823058291105,0.042771215350936226,0.0055110789724068365,0.04262302438310534
1.0072035498449472,0.046352747241279996,0.004538152161343235,0.029687677967592516,0.005574222675669805,0.029541526986044692
1.0072506318700776,0.03458526276589038,0.0030764054321961833,0.01916866027493343,0.006955502246627829,0.018991498219316293
1.007297713895208,0.02727830692374265,0.0035208303547409553,0.01473006896934623,0.008181308761287162,0.014523970039528754
1.0073447959203383,0.0280866607277734,0.005694560693316285,0.01711698325886342,0.010978357096002441,0.01684162444841481
1.0073918779454687,0.03925806445151868,0.011174598331561087,0.028584290137595406,0.016615524132637543,0.02816939530605849
1.007438959970599,0.059562255279517966,0.0189436588714429,0.043832242766228824,0.023189235226345712,0.043259137840765634
1.0074860419957294,0.08449757331606145,0.02604759923469352,0.058037587268334905,0.03149433266681953,0.0572739208490171
1.0075331240208598,0.10858230355013457,0.03155686640018372,0.06858033205585247,0.03830059617510882,0.06766911366652754
1.0075802060459902,0.12742598805780986,0.0347452857935078,0.07621925524513734,0.043089003993469606,0.07521001446098971
1.0076272880711206,0.13840784538629322,0.03631450453343192,0.07904744927672683,0.04610740169971671,0.07797711950085161
1.007674370096251,0.14057521646913557,0.03499429689898549,0.0769603579802706,0.047163167919106304,0.07586575296357653
1.0077214521213813,0.1345761316442056,0.030883485906507236,0.07084930100861353,0.04567741152207761,0.06977995514698897
1.0077685341465117,0.12269802495893224,0.025692503946193393,0.062425783036096825,0.03998210309802189,0.06147351733175131
