freq,gls,usurper,pdc_unbiased,shape_periodogram,shift_periodogram
1.0,0.02176245538732735,0.036486895165357185,-0.007335655112181927,0.023987483304384827,-0.009823104454166775
1.0000470820251304,0.05134779247241603,0.06390511964521067,0.016081221596065367,0.04423600011745154,0.01134660671465759
1.0000941640502607,0.09689124580742478,0.0954317426144909,0.05094334186944231,0.0732854932934643,0.04308561775590654
1.0001412460753911,0.14848755125694818,0.12868479629128313,0.08456655871201842,0.10649909329883664,0.0734054078570027
1.0001883281005215,0.19664060203551523,0.15897116954250678,0.10917973127593883,0.1404466507107697,0.09495242334084993
1.0002354101256519,0.23592916525893703,0.18155706085638398,0.12678225514793529,0.16681757645436077,0.11041610905762221
1.0002824921507822,0.26363730657080775,0.19613939149354898,0.13936052532630389,0.18439188468963533,0.12172760249804047
1.0003295741759126,0.2780607972143743,0.20533580896605744,0.14663287491158739,0.1955498467837343,0.12825016812747886
1.000376656201043,0.27778293516045677,0.20885901316442335,0.14742341655727248,0.20115534608564306,0.12861742105571033
1.0004237382261734,0.2619162710265795,0.20496852564204013,0.139633635428265,0.20098730302031098,0.1206613257062993
1.0004708202513037,0.23107843684954268,0.1934239600175146,0.12167319492364326,0.19365518532937617,0.10292160000364096
1.0005179022764341,0.1884924826566669,0.17770044304532476,0.09811663264576473,0.18270893127439597,0.0798996251184314
1.0005649843015645,0.1401213853463462,0.16633323096071032,0.07552593926328457,0.17467832410136336,0.057721642869279506
1.0006120663266949,0.09311329616242185,0.16014175715100887,0.056936636782797936,0.16949190063020192,0.03940605977563904
1.0006591483518252,0.05338098213176131,0.15963464114627943,0.04656239048066332,0.16552839797809046,0.029317120351697836
1.0007062303769556,0.024158292773911582,0.1585204999896493,0.0379052596807291,0.15956345818907702,0.021187773400332503
1.000753312402086,0.006389706849983347,0.15359549486903248,0.024925530867037873,0.14866085711557273,0.009244299900302686
1.0008003944272164,4.4957735270936574e-05,0.14924670263870485,0.013623927240606612,0.13739030716864922,-0.0009253408386184736
1.0008474764523467,0.004476680458159687,0.14623759968827796,0.005279248516488982,0.1342979695937525,-0.00897136184797175
1.000894558477477,0.016631009383087918,0.15344633264091478,0.00604487589630294,0.14129363687272742,-0.008955108112033913
1.0009416405026075,0.030279800796216314,0.17210233124515273,0.01614856324889533,0.1591626288737032,-0.0007065725738477592
1.0009887225277379,0.04019506929021177,0.19814946461255287,0.031662352407458065,0.18585885430789897,0.012143508440054651
1.0010358045528682,0.045271217739530065,0.2230299164710561,0.049643587368788454,0.21594448524086576,0.02732626021743296
1.0010828865779986,0.04665854735345898,0.24171269893983702,0.06394396252727896,0.24171721263993928,0.03940699692069004
1.001129968603129,0.04557434040645729,0.2506568461085679,0.06951556918541625,0.2568655495158709,0.04367620179852303
1.0011770506282593,0.04281463251624272,0.24717662356479872,0.06676401531502141,0.258634015649713,0.040660370578260135
1.0012241326533897,0.03911406922799136,0.23331366920423466,0.05756222886158259,0.24919389505356096,0.0320958388883712
1.00127121467852,0.035734840091298535,0.21390324759913906,0.04469056838221148,0.2338501638801074,0.020426408252941314
1.0013182967036505,0.034632288517627896,0.19874537595329328,0.03354469161607427,0.22206502647226328,0.010250891965234111
1.0013653787287808,0.03686446430802818,0.19710995632308334,0.03235087082016887,0.22014126289434932,0.009235077126415423
1.0014124607539112,0.040499198873267514,0.2079629146333591,0.04235422606047071,0.2286730146670369,0.01856819697128784
1.0014595427790416,0.04245011553894062,0.22357133179399755,0.05148956578485458,0.24246513417604762,0.026524291697513736
1.001506624804172,0.04142424671447975,0.23457875288312308,0.057489670337512934,0.25060099228927557,0.03188027253253442
1.0015537068293023,0.03772147907862947,0.23677040576282818,0.05838903434484734,0.24775881040433456,0.0330909803130874
1.0016007888544327,0.032149333674356434,0.22757000915306208,0.05286952532393206,0.23256115343950434,0.028944388199522712
1.001647870879563,0.025799799790141527,0.2064110271577831,0.040386054375886556,0.205186024805184,0.01899074218626962
1.0016949529046935,0.020580986012262138,0.17717987490883833,0.02276083148008517,0.17189494703431604,0.004609680225341589
1.0017420349298238,0.01993155776046648,0.15463289763631127,0.008396000375120035,0.14528020120528623,-0.007021457114518671
1.0017891169549542,0.027489951613850306,0.14732743129830422,0.00883020356959996,0.13767086391962116,-0.005768935446094802
1.0018361989800846,0.042074300128446054,0.1511989085070127,0.022145335055818467,0.14522690756097276,0.006808517459618689
1.001883281005215,0.05845891480384451,0.1657026150574705,0.04104344236602053,0.16357565217403075,0.023942318000422107
1.0019303630303453,0.07582159493280267,0.18153913943317032,0.05832937685591873,0.1834334236185445,0.03942897100670803
1.0019774450554757,0.09824195100672209,0.18922771742183017,0.07041397317164165,0.19867279009375804,0.05021712950023768
1.002024527080606,0.1303669711588208,0.18292219777787866,0.07896421651578898,0.20083287782411885,0.05872226932702904
1.0020716091057364,0.17464242099810953,0.1721324880476427,0.08832693698111686,0.19721643484266063,0.06860396603373428
1.0021186911308668,0.22917237164395338,0.17444400795626844,0.11355266104308831,0.1996404136827186,0.09411965733833555
1.0021657731559972,0.2864808872447173,0.1871299611534953,0.14880372324738836,0.20914861217323777,0.12940994214357923
1.0022128551811276,0.335488571803669,0.20023862048502164,0.17945522269565434,0.2193088795625186,0.160166604136503
1.002259937206258,0.3667004160945303,0.20742034672742038,0.20044309409803335,0.2241591535850455,0.18148755684553974
1.0023070192313883,0.37630521047742305,0.20716993181366894,0.20989430295355302,0.22175833402882852,0.1913844280363657
1.0023541012565187,0.3658732131217113,0.20005075505603506,0.20800353236518512,0.21265105406717327,0.1899838633736237
1.002401183281649,0.3393357840705059,0.18834828946992127,0.19716291122807472,0.19830343902240746,0.17976520294039688
1.0024482653067794,0.30043566038503033,0.17272290685753075,0.1783931936762516,0.17725534060100087,0.16205978563471538
1.0024953473319098,0.25183659939415354,0.15162042965056835,0.15384153094853617,0.14800383203338008,0.13942149815195384
1.0025424293570402,0.1956066522565673,0.12158731809483758,0.12081929242955049,0.11128916797041451,0.10934034077015349
1.0025895113821706,0.13475970805500284,0.08384751023290034,0.07564140824241966,0.06630260362240468,0.06844604353102816
1.002636593407301,0.07582916802294695,0.04900241621492905,0.025728531183742454,0.026524631257956052,0.02280326721157871
1.0026836754324313,0.03145358980808763,0.03203297128115945,-0.0040036080406334615,0.01128547051084067,-0.0051699089422441846
1.0027307574575617,0.01779891286180085,0.038233714964122055,-0.006351274616742859,0.026196279679792767,-0.009077082718282132
1.002777839482692,0.04358985242398123,0.055871737924638544,0.006591376950054447,0.05911147471931156,0.00033152890184645785
1.0028249215078224,0.1037077589167159,0.08939561322194875,0.04281328660270074,0.09862987800037566,0.032370440251821106
1.0028720035329528,0.18101238562213362,0.13392544171751217,0.0979436666785688,0.13751163207652295,0.08389400481104657
1.0029190855580832,0.25636899888384335,0.17404706399808503,0.15380629462607742,0.16832410260565656,0.1377290179921963
1.0029661675832136,0.31832235074100634,0.20250033035054463,0.19704252226634572,0.18709872745782,0.18039554073626102
1.003013249608344,0.36361141655314383,0.21937870498961715,0.228525784613192,0.1978238331033798,0.21196157266684637
1.0030603316334743,0.39341420767750745,0.2284807982839203,0.24979870354304085,0.20244515092030504,0.23355785674801005
1.0031074136586047,0.4102870696014962,0.23164644173848684,0.26258314989231946,0.20319044186917815,0.246670100098534
1.003154495683735,0.41662904201390033,0.23055262518215744,0.266777273312063,0.20034044307582824,0.2511226941134699
1.0032015777088654,0.41405085665469693,0.22552192259344156,0.26326150551395927,0.19394739580573614,0.24782708195361103
1.0032486597339958,0.4030953535584088,0.216397717498679,0.251751202986526,0.18373078067379855,0.23657163678563525
1.0032957417591262,0.38301151602067063,0.20285707106341846,0.2324239377319079,0.16954495934917174,0.2176695791416878
1.0033428237842565,0.3514583105172215,0.18437135569112595,0.2047530276495091,0.15113011987988775,0.19077241926604754
1.003389905809387,0.3042863356687068,0.16056651609724548,0.16911475512504195,0.12892724927333582,0.15642954489244942
1.0034369878345173,0.2364892670841809,0.1322732391377483,0.12615890065588273,0.10354965099842617,0.11541338930844426
1.0034840698596477,0.14805992805189566,0.10202010696392248,0.07745804013496241,0.07727801108409722,0.06916418895261305
1.003531151884778,0.05937981673678241,0.08129910198060038,0.035632586371168055,0.05936185705934557,0.02924582255852609
1.0035782339099084,0.016571701488668728,0.0811111252556262,0.012038086514572617,0.05934558546169896,0.005733469169546527
1.0036253159350388,0.04141534161646615,0.10713352643851767,0.014399178728297872,0.08390334429572369,0.0055056519612453276
1.0036723979601692,0.0978579156313711,0.1500302908078463,0.03595348541122598,0.12594926137089174,0.022690281623764973
1.0037194799852995,0.14599333246590304,0.19986075548720786,0.06503465797160808,0.1730474455024493,0.04725075889719526
1.00376656201043,0.17300879075255565,0.2399769215111898,0.0922030709843016,0.21396645911265308,0.07102314833505086
1.0038136440355603,0.18229222765708752,0.2665797000610356,0.11374971918924169,0.2408034456026692,0.0908083656368522
1.0038607260606907,0.18262972424027749,0.28001205579177274,0.12736778710133306,0.2574966429232379,0.10353844415544917
1.003907808085821,0.18292620727983336,0.28517739251325486,0.13485525602086357,0.26718860096744057,0.11057181746063005
1.0039548901109514,0.18798821740501145,0.2860791807955162,0.13913083302593265,0.27055692655583824,0.11477460321657625
1.0040019721360818,0.19658928748535154,0.2811366057906537,0.1397247738744464,0.26808392698133227,0.11557710754076671
1.0040490541612122,0.20361099360789395,0.27118919122017277,0.1356935801867525,0.2613416549943504,0.11188808851074512
1.0040961361863425,0.20356945018764083,0.2551892217930679,0.1287855413388881,0.2493463466717282,0.10565233028170125
1.004143218211473,0.19261735903368254,0.23381361770262735,0.11776025800915435,0.23256546690972899,0.09563297412338337
1.0041903002366033,0.1692114287165738,0.20520738342697264,0.09836742477706704,0.20802260853559693,0.07786581610437313
1.0042373822617336,0.13469585530973552,0.17251033231291266,0.07519967777083232,0.17784762300863116,0.05708650053166374
1.004284464286864,0.094068350002802,0.1404814111434069,0.051842634052145065,0.14667554967103058,0.0365513437687179
1.0043315463119944,0.0558705414627791,0.11193847875475252,0.03082107495389939,0.11629468109225491,0.01854213492508166
1.0043786283371248,0.029785725493520713,0.09365729274537757,0.019809015244991575,0.09262933398243892,0.009992159513114128
1.0044257103622551,0.022326134922130727,0.08575455739793632,0.01684685304795892,0.07815099182555198,0.00855280353654111
1.0044727923873855,0.03362727707623793,0.08700467500988962,0.01768087969631584,0.07439450840172648,0.009778876138518569
1.004519874412516,0.057935866130881315,0.09596802046644834,0.0238553638180855,0.0801527372312481,0.015337667624581119
1.0045669564376463,0.08691312585069338,0.1128178698831844,0.038233159934289905,0.09661005008788905,0.027996278175192634
1.0046140384627766,0.11302745450084833,0.1347060437021146,0.05542672474865837,0.12224175683033899,0.04261361606959953
1.004661120487907,0.13143773576861661,0.15637803587271315,0.07126698378066398,0.15042487915534222,0.055761635898528894
1.0047082025130374,0.140315951549541,0.17477546185800752,0.0817840112464661,0.17605142158481238,0.0639356464531101
1.0047552845381678,0.14016084842095028,0.1838559728465638,0.0846685751900148,0.19451237160456053,0.06512891531215229
1.0048023665632981,0.13271042804166153,0.18368643154190598,0.08028160564993014,0.20397254088997593,0.05976907319610624
1.0048494485884285,0.1199532079956697,0.17644794455522078,0.06958311394397716,0.2064041128533846,0.04862253474528633
1.0048965306135589,0.10352759540252561,0.16604234096041928,0.05738407400153901,0.200813230929019,0.036739461470308835
1.0049436126386893,0.08458770500586026,0.1515777357297276,0.04469505929439128,0.18817436550523778,0.025118877914520523
1.0049906946638196,0.06411017510052013,0.1369663795527706,0.03435472552873721,0.1717080281420028,0.016345166386907868
1.00503777668895,0.043500849939608656,0.12017636469204747,0.022887706523455283,0.1522470491230002,0.006815432985012083
1.0050848587140804,0.02497562650004661,0.10118365245793175,0.013888116903115118,0.12945764653561095,0.00018301069672034068
1.0051319407392107,0.011013597455985432,0.08516981629572251,0.011624969459267675,0.10767481969180347,0.0002252063909781279
1.0051790227643411,0.003334338693202587,0.07015337138582592,0.009001101837417943,0.08473719017985173,2.943744669965608e-05
1.0052261047894715,0.0027948227754708652,0.05176883466999492,0.005716764128480125,0.05908115125540668,-0.0005365959541929276
1.0052731868146019,0.010164673003053454,0.03590624718530201,0.005314070387151807,0.03626990861106952,0.0014666593615186856
1.0053202688397322,0.026566180290056158,0.0252162454358423,0.008193549268036414,0.01938951900108818,0.006107762442917267
1.0053673508648626,0.05291846997433676,0.019675468389839378,0.011498759854167706,0.010086068955125921,0.010373591910144205
1.005414432889993,0.08828034555015178,0.017837553708638206,0.017065936640710815,0.006374513020113837,0.016300529656061994
1.0054615149151234,0.12763762777320273,0.01975468642487931,0.025647230237824777,0.008139635595146582,0.02464935137145263
1.0055085969402537,0.16155770115500132,0.026576476424592085,0.038076850744054896,0.018570533922127607,0.03592036077734276
1.0055556789653841,0.18078890709766565,0.036264655418600814,0.05135766337998839,0.03440506362923978,0.04749161661769158
1.0056027609905145,0.18307418566708303,0.04404489478734426,0.06056084021799014,0.05149728504697522,0.05490275316334448
1.0056498430156449,0.1741533504439713,0.05109132801638126,0.06655908741414072,0.06622227812751437,0.05938915932594776
1.0056969250407752,0.16242605985016223,0.05678297010862687,0.07063087442771013,0.07902896982576077,0.062167386709351506
1.0057440070659056,0.15418810481596457,0.05925015932082749,0.07107575192890922,0.08786825022037711,0.06172937931081196
1.005791089091036,0.1523552110015489,0.05828556360995617,0.0660360559428213,0.09182583844027462,0.056292973536630715
1.0058381711161664,0.15691036178882456,0.05853094547486653,0.06130313889977103,0.09310920196199855,0.051429213929070815
1.0058852531412967,0.16538784679386007,0.06196376109495847,0.06307528196508604,0.09323234077764826,0.05318985652421238
1.005932335166427,0.17322460684996496,0.06362473740681222,0.06323184659303546,0.09087866563243811,0.0535826657651613
1.0059794171915575,0.17475929729964576,0.06106127804624478,0.05880087400333982,0.08450815856587862,0.049793889990385976
1.0060264992166879,0.16548577922015562,0.056170401703494716,0.05204155960234529,0.07596149499063379,0.04390900838428298
1.0060735812418182,0.1445721481217929,0.04990978759963492,0.04234591607178599,0.06502364249052572,0.03535465765714572
1.0061206632669486,0.11538472372115638,0.04474989285198082,0.03266210113426135,0.05452076565919444,0.026787556937969116
1.006167745292079,0.08342022676517998,0.04214497311647294,0.0259645785337829,0.04622829925679427,0.020979332031525143
1.0062148273172093,0.053714935068683495,0.04300610140312577,0.01794830890199036,0.041201866636124074,0.013523461759812372
1.0062619093423397,0.029620632829972474,0.044245428480714784,0.006428025048282717,0.03861611855474656,0.002328210487769899
1.00630899136747,0.012907514843990737,0.044247319158223955,-0.004503164505502606,0.036852901546502066,-0.00836386236040078
1.0063560733926005,0.004292560353454192,0.04637258835094796,-0.010519166817943732,0.03794279872484118,-0.01446522890254593
1.0064031554177308,0.0038095921685766332,0.05074053652107419,-0.007972360122875525,0.04090125118100475,-0.012244176835811539
1.0064502374428612,0.010924293923755681,0.062318344409697024,0.0013341291502741227,0.05185617216629878,-0.004138828907472883
1.0064973194679916,0.02453035587728399,0.0753955683241435,0.011333716656649779,0.06646578876601714,0.004282594433406409
1.006544401493122,0.042966387475684646,0.08717193188082839,0.020787738978896356,0.08118906604923441,0.01216741428100205
1.0065914835182523,0.06411092062196938,0.09701455935303256,0.03329944681240632,0.09334965117561345,0.02339960204502357
1.0066385655433827,0.08556714248621351,0.10823542645368267,0.049462130528264495,0.10439420547276018,0.0384374066407574
1.006685647568513,0.10493697207975199,0.11641606174826388,0.06485229624100503,0.11279516477858711,0.05301564162139624
1.0067327295936435,0.12014720761669652,0.12008583765509033,0.07640706666955516,0.11702730761793899,0.06419247825973472
1.0067798116187738,0.12974860817624662,0.11838855737141497,0.08294186479002422,0.11561992390435505,0.07089003965469295
1.0068268936439042,0.1331160769266914,0.11375175712498324,0.08436945777741765,0.10901652947110149,0.07296322493151214
1.0068739756690346,0.13051634907150206,0.10559141822105036,0.08386978816652868,0.0997694128908432,0.07336242385774806
1.006921057694165,0.12301693370584733,0.09331811776155259,0.08185258015702256,0.08666390040177474,0.07262834914534019
1.0069681397192953,0.11219272060745543,0.07815947471587349,0.07585112215539112,0.07138589847839324,0.06814657685811215
1.0070152217444257,0.09964098937742749,0.06263647192208543,0.06985230351433948,0.055954020280784715,0.0637129448256154
1.007062303769556,0.08648287672211809,0.05016062471639183,0.06302251331950957,0.04353253936751079,0.058169999068283296
1.0071093857946865,0.07315337862299943,0.04078724787915159,0.053521194673379444,0.033914312069823906,0.04969634168571306
1.0071564678198168,0.05967551136841471,0.033868526063479246,0.042771215350936226,0.026904898452154682,0.0397225859855564
1.0072035498449472,0.046352747241279996,0.028705952310452542,0.029687677967592516,0.022938411715767427,0.027117618522472017
1.0072506318700776,0.03458526276589038,0.02691793303043329,0.01916866027493343,0.02247498956552835,0.01670107841943295
1.007297713895208,0.02727830692374265,0.02919837493667468,0.01473006896934623,0.024289064912340966,0.01209503348773629
1.0073447959203383,0.0280866607277734,0.037244430159484344,0.01711698325886342,0.031133667551020636,0.013751589468857512
1.0073918779454687,0.03925806445151868,0.054235324513019635,0.028584290137595406,0.04583301509172591,0.023629437327279623
1.007438959970599,0.059562255279517966,0.07557291807104408,0.043832242766228824,0.06380594326959257,0.036962405274609346
1.0074860419957294,0.08449757331606145,0.09595183422783442,0.058037587268334905,0.08316489982244837,0.04916687265875626
1.0075331240208598,0.10858230355013457,0.11238050850054623,0.06858033205585247,0.10030254559109325,0.0579942566003581
1.0075802060459902,0.12742598805780986,0.12217181986813876,0.07621925524513734,0.11127973544039364,0.0645667554976499
1.0076272880711206,0.13840784538629322,0.1246115989965124,0.07904744927672683,0.11553219705474227,0.06698902611609268
1.007674370096251,0.14057521646913557,0.1192219550784579,0.0769603579802706,0.11403858663129812,0.06504013689158815
1.0077214521213813,0.1345761316442056,0.10822539708127418,0.07084930100861353,0.10675706780674526,0.059627459560373575
1.0077685341465117,0.12269802495893224,0.09276330825835961,0.062425783036096825,0.09354855093864477,0.05250828381548161
1.007815616171642,0.10844877640211482,0.07716365368444886,0.054884533548136764,0.07678459385774478,0.046664111842766254
