freq,gls,usurper,pdc_unbiased,shape_periodogram,shift_periodogram
1.0,0.02176245538732735,-0.002593281720019358,-0.007335655112181927,-0.0022747610162521157,-0.007267772085908556
1.0000470820251304,0.05134779247241603,0.006724636990208172,0.016081221596065367,0.0011010899088456161,0.016043271072248705
1.0000941640502607,0.09689124580742478,0.01911942070798252,0.05094334186944231,0.007946133811662643,0.050698345513708276
1.0001412460753911,0.14848755125694818,0.034351238492431956,0.08456655871201842,0.01671000859633895,0.0840722031210804
1.0001883281005215,0.19664060203551523,0.04751664442780895,0.10917973127593883,0.0250960987092195,0.10846601073228661
1.0002354101256519,0.23592916525893703,0.056304782421515265,0.12678225514793529,0.030780840772797025,0.12593265455583044
1.0002824921507822,0.26363730657080775,0.06004762034919813,0.13936052532630389,0.03344096854696186,0.13845391122882633
1.0003295741759126,0.2780607972143743,0.062201376100909284,0.14663287491158739,0.03558925501340136,0.145681423320479
1.000376656201043,0.27778293516045677,0.0633572799402221,0.14742341655727248,0.03697845368315063,0.14644131250132478
1.0004237382261734,0.2619162710265795,0.061485386336258316,0.139633635428265,0.03784158825375088,0.13862646631594297
1.0004708202513037,0.23107843684954268,0.056417220414315565,0.12167319492364326,0.03707048106029341,0.12067134318699087
1.0005179022764341,0.1884924826566669,0.049319588212037,0.09811663264576473,0.03555883871961905,0.0971375526012085
1.0005649843015645,0.1401213853463462,0.04383891827313513,0.07552593926328457,0.033272375948517396,0.07459487163869508
1.0006120663266949,0.09311329616242185,0.04017894900475958,0.056936636782797936,0.02943185919498613,0.05610181269229931
1.0006591483518252,0.05338098213176131,0.04017632089221395,0.04656239048066332,0.022989622595078706,0.04590157383502186
1.0007062303769556,0.024158292773911582,0.039878043776162,0.0379052596807291,0.014904602850877751,0.03746954272817844
1.000753312402086,0.006389706849983347,0.038794345773250784,0.024925530867037873,0.00558559995241396,0.02475651095196353
1.0008003944272164,4.4957735270936574e-05,0.04002184167817848,0.013623927240606612,-0.003454329830346986,0.013717016059321708
1.0008474764523467,0.004476680458159687,0.03895618327493959,0.005279248516488982,-0.005722405770347116,0.005440491592885163
1.000894558477477,0.016631009383087918,0.03799183553708089,0.00604487589630294,-0.002978674454264949,0.006127444426800175
1.0009416405026075,0.030279800796216314,0.04075678228294074,0.01614856324889533,0.002900950639362181,0.01605929709506087
1.0009887225277379,0.04019506929021177,0.046924323205861325,0.031662352407458065,0.010929182430378924,0.031339895446443854
1.0010358045528682,0.045271217739530065,0.052870707498651574,0.049643587368788454,0.020648220313255715,0.049046719577095145
1.0010828865779986,0.04665854735345898,0.053476542909048276,0.06394396252727896,0.029368337969733555,0.06311206177720659
1.001129968603129,0.04557434040645729,0.050639170426339766,0.06951556918541625,0.03654161477104819,0.06849749773892624
1.0011770506282593,0.04281463251624272,0.04361188926399706,0.06676401531502141,0.04042425947461717,0.06564427110612323
1.0012241326533897,0.03911406922799136,0.035406010149362024,0.05756222886158259,0.04237725478602251,0.05638582718566948
1.00127121467852,0.035734840091298535,0.0271141631908014,0.04469056838221148,0.04323578037740659,0.043482673847869226
1.0013182967036505,0.034632288517627896,0.019326552408151454,0.03354469161607427,0.04348738670918751,0.03232252247104435
1.0013653787287808,0.03686446430802818,0.020268795763668766,0.03235087082016887,0.04258417680557375,0.031152467653804743
1.0014124607539112,0.040499198873267514,0.02873983646738713,0.04235422606047071,0.0424039385887432,0.04116696797259323
1.0014595427790416,0.04245011553894062,0.03805066864524222,0.05148956578485458,0.04119003614264739,0.05034030607613904
1.001506624804172,0.04142424671447975,0.04470472426496479,0.057489670337512934,0.03650629186968638,0.056467064730572177
1.0015537068293023,0.03772147907862947,0.04620819499183073,0.05838903434484734,0.029609712729031266,0.057549705459955386
1.0016007888544327,0.032149333674356434,0.04500398967385436,0.05286952532393206,0.020674413488526815,0.0522716099377358
1.001647870879563,0.025799799790141527,0.04158882335911113,0.040386054375886556,0.010195524330113932,0.040081447733980105
1.0016949529046935,0.020580986012262138,0.03562071498891627,0.02276083148008517,-0.0007905807654200501,0.02277411728693887
1.0017420349298238,0.01993155776046648,0.031007242372716418,0.008396000375120035,-0.008483580998753107,0.008634977448864139
1.0017891169549542,0.027489951613850306,0.03122115016468685,0.00883020356959996,-0.007034600556747941,0.00902756644011071
1.0018361989800846,0.042074300128446054,0.0335278289246762,0.022145335055818467,-0.0015110580825242258,0.022179436808568116
1.001883281005215,0.05845891480384451,0.04004216098033267,0.04104344236602053,0.008890857285133124,0.040775262624118444
1.0019303630303453,0.07582159493280267,0.04525442237644081,0.05832937685591873,0.0198193573310281,0.057754236439380324
1.0019774450554757,0.09824195100672209,0.0488127055754693,0.07041397317164165,0.031461023151562115,0.06952840232494344
1.002024527080606,0.1303669711588208,0.04690738673999398,0.07896421651578898,0.03948788350753333,0.07787605072192343
1.0020716091057364,0.17464242099810953,0.042334679322297605,0.08832693698111686,0.04539322397379605,0.0870997698448589
1.0021186911308668,0.22917237164395338,0.04515908357902419,0.11355266104308831,0.04908068688688722,0.1122665526098581
1.0021657731559972,0.2864808872447173,0.05244006201991415,0.14880372324738836,0.05250164961183997,0.14749408779356576
1.0022128551811276,0.335488571803669,0.05948731352183523,0.17945522269565434,0.05543166774896645,0.1781428561684062
1.002259937206258,0.3667004160945303,0.06414572672865339,0.20044309409803335,0.056564691708955214,0.1991521799939975
1.0023070192313883,0.37630521047742305,0.065858492444927,0.20989430295355302,0.0555992665581762,0.20863743228002074
1.0023541012565187,0.3658732131217113,0.06413595926453103,0.20800353236518512,0.05253584054299152,0.20679206785418033
1.002401183281649,0.3393357840705059,0.05899148954937052,0.19716291122807472,0.046761888161136314,0.19603391949883575
1.0024482653067794,0.30043566038503033,0.05188883884444923,0.1783931936762516,0.037740922607000404,0.17741885705946453
1.0024953473319098,0.25183659939415354,0.0425651759742316,0.15384153094853617,0.026362067632328134,0.15310637437679891
1.0025424293570402,0.1956066522565673,0.030656885677611823,0.12081929242955049,0.01365145534588147,0.1204007235280468
1.0025895113821706,0.13475970805500284,0.014588038007447028,0.07564140824241966,0.001090662060282925,0.07557995911217588
1.002636593407301,0.07582916802294695,-0.0003648419093437331,0.025728531183742454,-0.00681827454447203,0.02591305209934728
1.0026836754324313,0.03145358980808763,-0.0013975990931514501,-0.0040036080406334615,-0.008081896883874146,-0.0037714570731081894
1.0027307574575617,0.01779891286180085,0.012162856992114036,-0.006351274616742859,0.000903179193431385,-0.006374464530576846
1.002777839482692,0.04358985242398123,0.02091718567720638,0.006591376950054447,0.017909811661677013,0.006078571200519613
1.0028249215078224,0.1037077589167159,0.02879106805082344,0.04281328660270074,0.031484250229281044,0.04192051499319863
1.0028720035329528,0.18101238562213362,0.04305248551865803,0.0979436666785688,0.037729504890898324,0.09691102766545592
1.0029190855580832,0.25636899888384335,0.0626001803647612,0.15380629462607742,0.044343743550777484,0.15267053999508076
1.0029661675832136,0.31832235074100634,0.07625336496036995,0.19704252226634572,0.04914265417385902,0.19587077422690696
1.003013249608344,0.36361141655314383,0.08371459533518984,0.228525784613192,0.0503605126866253,0.22738434619869036
1.0030603316334743,0.39341420767750745,0.08854583548914212,0.24979870354304085,0.0497422051200271,0.248702590385133
1.0031074136586047,0.4102870696014962,0.09058019275940987,0.26258314989231946,0.048587766946563235,0.26152486559737187
1.003154495683735,0.41662904201390033,0.09097451638280599,0.266777273312063,0.04641055147966527,0.26575614658581714
1.0032015777088654,0.41405085665469693,0.08922800749652814,0.26326150551395927,0.04317520372470333,0.2622825379510707
1.0032486597339958,0.4030953535584088,0.08555534717149385,0.251751202986526,0.03893552233947533,0.2508256783218834
1.0032957417591262,0.38301151602067063,0.07998408878317162,0.2324239377319079,0.03359261595318342,0.23157565828382998
1.0033428237842565,0.3514583105172215,0.07177111187338343,0.2047530276495091,0.026705590032114142,0.2040279363700359
1.003389905809387,0.3042863356687068,0.06075636794735228,0.16911475512504195,0.018581746381019445,0.1685683163288224
1.0034369878345173,0.2364892670841809,0.047332147703248194,0.12615890065588273,0.009043949808383533,0.12586141283119376
1.0034840698596477,0.14805992805189566,0.03202947261981149,0.07745804013496241,-0.00022790598101383032,0.07743312703808826
1.003531151884778,0.05937981673678241,0.020184914791201183,0.035632586371168055,-0.007093774858909482,0.035821052522324676
1.0035782339099084,0.016571701488668728,0.015140743770646028,0.012038086514572617,-0.011148868595991594,0.012352057243620101
1.0036253159350388,0.04141534161646615,0.020166775453083735,0.014399178728297872,-0.01083430020712426,0.01470327881245188
1.0036723979601692,0.0978579156313711,0.028811578158613925,0.03595348541122598,-0.005810171113775083,0.03610496186245507
1.0037194799852995,0.14599333246590304,0.03935479971045528,0.06503465797160808,0.0016982143655276366,0.06496021488760294
1.00376656201043,0.17300879075255565,0.04735767760100985,0.0922030709843016,0.01041063052073619,0.09187742855020364
1.0038136440355603,0.18229222765708752,0.054900201537994985,0.11374971918924169,0.016269660818015303,0.11326340613473852
1.0038607260606907,0.18262972424027749,0.061285502254816285,0.12736778710133306,0.022892266169387557,0.12671184351572287
1.003907808085821,0.18292620727983336,0.06535065249030764,0.13485525602086357,0.031069379074742,0.13400207543809292
1.0039548901109514,0.18798821740501145,0.06746534816067479,0.13913083302593265,0.0380911157678734,0.13811765514419214
1.0040019721360818,0.19658928748535154,0.06539399483501696,0.1397247738744464,0.042547352439145064,0.138612888864204
1.0040490541612122,0.20361099360789395,0.06454211596773965,0.1356935801867525,0.04416874742132149,0.13454204225961305
1.0040961361863425,0.20356945018764083,0.06094930651964177,0.1287855413388881,0.04455180029201043,0.12761832277331697
1.004143218211473,0.19261735903368254,0.05236930128846778,0.11776025800915435,0.042893947955984675,0.11661978365317661
1.0041903002366033,0.1692114287165738,0.04210001866233108,0.09836742477706704,0.039024631958712155,0.09730337820374321
1.0042373822617336,0.13469585530973552,0.031066478725523792,0.07519967777083232,0.032890958188371615,0.07427836189390762
1.004284464286864,0.094068350002802,0.02165437986375454,0.051842634052145065,0.024264862051066736,0.051146852021661166
1.0043315463119944,0.0558705414627791,0.013731382078026176,0.03082107495389939,0.013758085146982655,0.030419320169276943
1.0043786283371248,0.029785725493520713,0.009070183950159579,0.019809015244991575,0.004166894500240888,0.019682271467593087
1.0044257103622551,0.022326134922130727,0.007904971180484723,0.01684685304795892,-0.003289738829521522,0.016933930026372935
1.0044727923873855,0.03362727707623793,0.009483424462146664,0.01768087969631584,-0.006565145190802131,0.01786133848182596
1.004519874412516,0.057935866130881315,0.013096796384213676,0.0238553638180855,-0.0059395326544088465,0.024015438283816106
1.0045669564376463,0.08691312585069338,0.018907192405199703,0.038233159934289905,-0.0019877678732989333,0.038274289465929055
1.0046140384627766,0.11302745450084833,0.026532140955204744,0.05542672474865837,0.006146823009275081,0.05523063883251945
1.004661120487907,0.13143773576861661,0.03328902072526917,0.07126698378066398,0.014914695218966129,0.07082350856322085
1.0047082025130374,0.140315951549541,0.038055556485918074,0.0817840112464661,0.02310696470479431,0.0811195377652266
1.0047552845381678,0.14016084842095028,0.03949200470896491,0.0846685751900148,0.028981147539384588,0.08385100323224673
1.0048023665632981,0.13271042804166153,0.03876141780021159,0.08028160564993014,0.032240916886465784,0.079378775820691
1.0048494485884285,0.1199532079956697,0.03693444375594708,0.06958311394397716,0.03550056032054412,0.06859203189220607
1.0048965306135589,0.10352759540252561,0.03373781678104229,0.05738407400153901,0.03684660574545844,0.056352452155029785
1.0049436126386893,0.08458770500586026,0.026766195419214454,0.04469505929439128,0.03579253903728918,0.04368633665168126
1.0049906946638196,0.06411017510052013,0.020298032684593757,0.03435472552873721,0.03169048151288374,0.03345467862760867
1.00503777668895,0.043500849939608656,0.014061683950660733,0.022887706523455283,0.02678694822919803,0.022122432849700946
1.0050848587140804,0.02497562650004661,0.007937910885048477,0.013888116903115118,0.02159111509512622,0.013269537017719421
1.0051319407392107,0.011013597455985432,0.006602437657432096,0.011624969459267675,0.014891403106863498,0.011196574722078575
1.0051790227643411,0.003334338693202587,0.005207389244778863,0.009001101837417943,0.007912882009131707,0.008771912018889844
1.0052261047894715,0.0027948227754708652,0.0019915971354348685,0.005716764128480125,0.003232978689955674,0.005622203754373686
1.0052731868146019,0.010164673003053454,-0.0015685921888821993,0.005314070387151807,-0.0003593280831179559,0.005322160677277349
1.0053202688397322,0.026566180290056158,-0.003915749714172052,0.008193549268036414,-0.002536947363575819,0.008262633100393513
1.0053673508648626,0.05291846997433676,-0.0051017248525095996,0.011498759854167706,-0.0017543984485500137,0.011544153264788566
1.005414432889993,0.08828034555015178,-0.00373015071549348,0.017065936640710815,0.00038944483174567344,0.0170478792030797
1.0054615149151234,0.12763762777320273,-0.0017229121083600775,0.025647230237824777,0.003401136885294915,0.02553996867351658
1.0055085969402537,0.16155770115500132,0.00131592770774915,0.038076850744054896,0.009138907437595288,0.0378026883237016
1.0055556789653841,0.18078890709766565,0.004912743438632029,0.05135766337998839,0.017469272954111853,0.05084793525864364
1.0056027609905145,0.18307418566708303,0.007844460047209963,0.06056084021799014,0.02652944435216472,0.05980422178264851
1.0056498430156449,0.1741533504439713,0.010399326442335615,0.06655908741414072,0.032148573102858916,0.06565440379108774
1.0056969250407752,0.16242605985016223,0.012500059826890139,0.07063087442771013,0.03621335520233218,0.06962180983181228
1.0057440070659056,0.15418810481596457,0.01407378124535341,0.07107575192890922,0.03642726441238426,0.07006137178468767
1.005791089091036,0.1523552110015489,0.014693518565890965,0.0660360559428213,0.03378933893309357,0.06508817845446174
1.0058381711161664,0.15691036178882456,0.015522432776651633,0.06130313889977103,0.030319610128824958,0.06044546296666008
1.0058852531412967,0.16538784679386007,0.019344326528162138,0.06307528196508604,0.027242598321053954,0.06229982563344324
1.005932335166427,0.17322460684996496,0.020234656602744063,0.06323184659303546,0.02200059120113457,0.06259713444946184
1.0059794171915575,0.17475929729964576,0.018904935427254254,0.05880087400333982,0.015728220104445138,0.05833763765891725
1.0060264992166879,0.16548577922015562,0.017294146630617895,0.05204155960234529,0.00939205833144949,0.051755738620414625
1.0060735812418182,0.1445721481217929,0.014085822371496226,0.04234591607178599,0.003980235918145684,0.042215745206343754
1.0061206632669486,0.11538472372115638,0.011634696337916917,0.03266210113426135,-0.0007390710283717803,0.03266987892228552
1.006167745292079,0.08342022676517998,0.00794018718678542,0.0259645785337829,-0.00411796696968457,0.026071633811318953
1.0062148273172093,0.053714935068683495,0.006135848364591382,0.01794830890199036,-0.005765844483117073,0.018105772283193697
1.0062619093423397,0.029620632829972474,0.004653752101315045,0.006428025048282717,-0.0062554235597708,0.006604047809490025
1.00630899136747,0.012907514843990737,0.004020773157000245,-0.004503164505502606,-0.0038521665252940983,-0.004391429472795799
1.0063560733926005,0.004292560353454192,0.003908637578659091,-0.010519166817943732,-0.00045287783504222555,-0.010501961215964657
1.0064031554177308,0.0038095921685766332,0.0051433795129710615,-0.007972360122875525,0.0030867218380876992,-0.008057234663237739
1.0064502374428612,0.010924293923755681,0.00950896455095666,0.0013341291502741227,0.009818653564460302,0.0010534232981848886
1.0064973194679916,0.02453035587728399,0.01378334428028299,0.011333716656649779,0.016984975138699974,0.010846021681888566
1.006544401493122,0.042966387475684646,0.01665993116338846,0.020787738978896356,0.02406706425000166,0.02009867684647262
1.0065914835182523,0.06411092062196938,0.017888125752163142,0.03329944681240632,0.027879341592658466,0.0325041637562886
1.0066385655433827,0.08556714248621351,0.01923960395053704,0.049462130528264495,0.02938478410395099,0.048627393265563056
1.006685647568513,0.10493697207975199,0.02106967408839612,0.06485229624100503,0.028246171453763295,0.06405034155959315
1.0067327295936435,0.12014720761669652,0.021814265450844403,0.07640706666955516,0.024741093193363806,0.07569919435947432
1.0067798116187738,0.12974860817624662,0.021294220336213737,0.08294186479002422,0.020959335697015954,0.08233423331417918
1.0068268936439042,0.1331160769266914,0.022074859136362274,0.08436945777741765,0.015822736150873717,0.08389898595711759
1.0068739756690346,0.13051634907150206,0.021466867670782524,0.08386978816652868,0.01164794631652758,0.0835125574686952
1.006921057694165,0.12301693370584733,0.01801182863906632,0.08185258015702256,0.007453649692467357,0.08161112316616873
1.0069681397192953,0.11219272060745543,0.012796885185082811,0.07585112215539112,0.0036566279295221376,0.0757174486993844
1.0070152217444257,0.09964098937742749,0.00827292443400496,0.06985230351433948,0.0006654726825083589,0.06980515234030403
1.007062303769556,0.08648287672211809,0.004695901005862082,0.06302251331950957,-0.0017413639217661672,0.06304644109225276
1.0071093857946865,0.07315337862299943,0.0024433192114381593,0.053521194673379444,-0.0030045469630136028,0.0535850761853627
1.0071564678198168,0.05967551136841471,0.0011096588500588496,0.042771215350936226,-0.0028407426111609828,0.04283484736747535
1.0072035498449472,0.046352747241279996,-0.0006214489171581019,0.029687677967592516,-0.0024505636849032285,0.029745529399790912
1.0072506318700776,0.03458526276589038,-0.0014691251964661285,0.01916866027493343,-0.0018772590886025524,0.01921443461715658
1.007297713895208,0.02727830692374265,-0.0015816295187543682,0.01473006896934623,-0.002035006520439635,0.014782158987371516
1.0073447959203383,0.0280866607277734,-0.0004115131962604757,0.01711698325886342,-0.0012058870363159438,0.017144425283438985
1.0073918779454687,0.03925806445151868,0.003958515928209865,0.028584290137595406,0.000653302649899709,0.028554041092262127
1.007438959970599,0.059562255279517966,0.009922188996670595,0.043832242766228824,0.002280444518235599,0.04374964252602659
1.0074860419957294,0.08449757331606145,0.016121665070658014,0.058037587268334905,0.0030122786548983506,0.05792875482637584
1.0075331240208598,0.10858230355013457,0.02128362106294381,0.06858033205585247,0.0045235809247051225,0.06842503528836595
1.0075802060459902,0.12742598805780986,0.025755592702926093,0.07621925524513734,0.006807323901879157,0.07599755182912787
1.0076272880711206,0.13840784538629322,0.027838385438961846,0.07904744927672683,0.008291011325544082,0.07878373334815043
1.007674370096251,0.14057521646913557,0.02683040713116789,0.0769603579802706,0.010609461568212793,0.07663337473247403
1.0077214521213813,0.1345761316442056,0.02530199958128426,0.07084930100861353,0.011761187047273908,0.07049229754551119
