freq,gls,usurper,pdc_unbiased,shape_periodogram,shift_periodogram
1.0,0.02176245538732735,0.017580812445495326,-0.007335655112181927,0.0053647161001691025,-0.007404760135228722
1.0000470820251304,0.05134779247241603,0.019899401345248955,0.016081221596065367,0.0035471775224785573,0.016033951985393556
1.0000941640502607,0.09689124580742478,0.023045304141337656,0.05094334186944231,0.0064907699322627205,0.050856222965987866
1.0001412460753911,0.14848755125694818,0.025570763621084177,0.08456655871201842,0.015046586102859805,0.08437578699832847
1.0001883281005215,0.19664060203551523,0.02946937921841438,0.10917973127593883,0.027416131215629764,0.10886160415222813
1.0002354101256519,0.23592916525893703,0.03435177919181386,0.12678225514793529,0.03874172502127751,0.12637435599202315
1.0002824921507822,0.26363730657080775,0.038747600742314814,0.13936052532630389,0.046106762277171115,0.13891281248136644
1.0003295741759126,0.2780607972143743,0.04170008453494239,0.14663287491158739,0.05035244477072932,0.14616965978837923
1.000376656201043,0.27778293516045677,0.04237843574625254,0.14742341655727248,0.0536577947384091,0.1469445154659871
1.0004237382261734,0.2619162710265795,0.040966821775063035,0.139633635428265,0.05490313198366557,0.1391360254502543
1.0004708202513037,0.23107843684954268,0.03785559583455316,0.12167319492364326,0.05369112775108512,0.12115383181513482
1.0005179022764341,0.1884924826566669,0.03386208708647334,0.09811663264576473,0.05071080787761152,0.0975841146614498
1.0005649843015645,0.1401213853463462,0.030664172468300468,0.07552593926328457,0.04744732845703306,0.07499306139074716
1.0006120663266949,0.09311329616242185,0.028609713139449527,0.056936636782797936,0.043353060104437714,0.056424820358488205
1.0006591483518252,0.05338098213176131,0.029310487487826664,0.04656239048066332,0.03925007588089068,0.04608617574026222
1.0007062303769556,0.024158292773911582,0.030446286719800097,0.0379052596807291,0.03424908011135825,0.0374805006825108
1.000753312402086,0.006389706849983347,0.03182007704626229,0.024925530867037873,0.02777593772362223,0.02457277032141049
1.0008003944272164,4.4957735270936574e-05,0.032371077684174465,0.013623927240606612,0.022850395501209247,0.013329794290457405
1.0008474764523467,0.004476680458159687,0.030797230354839035,0.005279248516488982,0.0209658676986384,0.005007825932949343
1.000894558477477,0.016631009383087918,0.03545372223860752,0.00604487589630294,0.022322151364058285,0.005756125153382495
1.0009416405026075,0.030279800796216314,0.04273976292732251,0.01614856324889533,0.02704298193573886,0.015802159073858166
1.0009887225277379,0.04019506929021177,0.050723423570299665,0.031662352407458065,0.03693969887676035,0.031202279631383327
1.0010358045528682,0.045271217739530065,0.05581126874320516,0.049643587368788454,0.04888234183230608,0.04906586348469226
1.0010828865779986,0.04665854735345898,0.06113844971343286,0.06394396252727896,0.061287714498973904,0.06326649351304488
1.001129968603129,0.04557434040645729,0.06443286032566725,0.06951556918541625,0.07053166444396078,0.0687714068371135
1.0011770506282593,0.04281463251624272,0.0651099441475743,0.06676401531502141,0.07442306080955516,0.06598112050762713
1.0012241326533897,0.03911406922799136,0.06289081376759571,0.05756222886158259,0.07295080293160836,0.0567660505881903
1.00127121467852,0.035734840091298535,0.05834013270821897,0.04469056838221148,0.06830521474597266,0.04390531205461488
1.0013182967036505,0.034632288517627896,0.05337748783209972,0.03354469161607427,0.06376655693431889,0.03278233198635989
1.0013653787287808,0.03686446430802818,0.048294985068509017,0.03235087082016887,0.06100119068248335,0.03161652493462852
1.0014124607539112,0.040499198873267514,0.046877498524776115,0.04235422606047071,0.06135614254053325,0.041634810092772236
1.0014595427790416,0.04245011553894062,0.048328022493558026,0.05148956578485458,0.06494989819076372,0.0507525207719858
1.001506624804172,0.04142424671447975,0.049443617381300035,0.057489670337512934,0.065776274032219,0.0567579037081025
1.0015537068293023,0.03772147907862947,0.05055415479370246,0.05838903434484734,0.06212009023339021,0.05769307176135756
1.0016007888544327,0.032149333674356434,0.04862677778735593,0.05286952532393206,0.054975184637295484,0.05223335703403595
1.001647870879563,0.025799799790141527,0.04332816484570423,0.040386054375886556,0.044489900738213725,0.03984606396511754
1.0016949529046935,0.020580986012262138,0.03562823738544687,0.02276083148008517,0.032733400571463026,0.02234640312959177
1.0017420349298238,0.01993155776046648,0.0322223453215529,0.008396000375120035,0.02433931042171774,0.008081850372544797
1.0017891169549542,0.027489951613850306,0.03093657924516483,0.00883020356959996,0.022632261781782244,0.008537964427353939
1.0018361989800846,0.042074300128446054,0.030083272363206695,0.022145335055818467,0.02685852823478355,0.021803022219708396
1.001883281005215,0.05845891480384451,0.03385006776446571,0.04104344236602053,0.03489274974389737,0.040612983808320784
1.0019303630303453,0.07582159493280267,0.03848984342864191,0.05832937685591873,0.04359390724741283,0.05781636831898673
1.0019774450554757,0.09824195100672209,0.0400984575213539,0.07041397317164165,0.05307847629795906,0.06982224700981643
1.002024527080606,0.1303669711588208,0.0361762265448372,0.07896421651578898,0.059866064369759206,0.07832749275063813
1.0020716091057364,0.17464242099810953,0.03142849377877329,0.08832693698111686,0.06376364509304541,0.08767867920215741
1.0021186911308668,0.22917237164395338,0.030574786234290118,0.11355266104308831,0.06708334668137717,0.11294046531312339
1.0021657731559972,0.2864808872447173,0.03354002414190283,0.14880372324738836,0.07213516772659195,0.14826383574327068
1.0022128551811276,0.335488571803669,0.036433511312721704,0.17945522269565434,0.07708634653400524,0.17900351113119312
1.002259937206258,0.3667004160945303,0.03802873880564746,0.20044309409803335,0.08051137888068893,0.20006766344023003
1.0023070192313883,0.37630521047742305,0.038064200300380345,0.20989430295355302,0.08180906914110507,0.20955648678596756
1.0023541012565187,0.3658732131217113,0.03678497327875379,0.20800353236518512,0.08116874142580661,0.2076564597219402
1.002401183281649,0.3393357840705059,0.03551852364081365,0.19716291122807472,0.07928471977749402,0.19677269075312487
1.0024482653067794,0.30043566038503033,0.0350152703940766,0.1783931936762516,0.0727836242946541,0.17793562496750626
1.0024953473319098,0.25183659939415354,0.03375321477700641,0.15384153094853617,0.060469209094017345,0.15334571451851803
1.0025424293570402,0.1956066522565673,0.029722595063928253,0.12081929242955049,0.04414262000973397,0.12036446199891279
1.0025895113821706,0.13475970805500284,0.025852980849442552,0.07564140824241966,0.023461031327687124,0.07535382527315725
1.002636593407301,0.07582916802294695,0.02556484561028567,0.025728531183742454,0.006437050075094096,0.025643441140339084
1.0026836754324313,0.03145358980808763,0.02347616103027883,-0.0040036080406334615,0.004986580382269025,-0.004068034414356822
1.0027307574575617,0.01779891286180085,0.02273232585852271,-0.006351274616742859,0.020565591654179368,-0.006619017616213992
1.002777839482692,0.04358985242398123,0.02302027755487267,0.006591376950054447,0.038982872034084494,0.006089571526941732
1.0028249215078224,0.1037077589167159,0.03186851943508603,0.04281328660270074,0.05413482075679873,0.04217076720033072
1.0028720035329528,0.18101238562213362,0.04317735489491908,0.0979436666785688,0.0630576341193705,0.09732065123397952
1.0029190855580832,0.25636899888384335,0.05140913974221481,0.15380629462607742,0.06408645834579697,0.1532988769595567
1.0029661675832136,0.31832235074100634,0.05620780198245262,0.19704252226634572,0.06299661526738397,0.19663148095433397
1.003013249608344,0.36361141655314383,0.05939482392785968,0.228525784613192,0.06279811069146964,0.22818234466536377
1.0030603316334743,0.39341420767750745,0.05972637711660065,0.24979870354304085,0.06140526911907636,0.24949686207376004
1.0031074136586047,0.4102870696014962,0.05806148375894325,0.26258314989231946,0.05945352380957544,0.26230132843915227
1.003154495683735,0.41662904201390033,0.05579060345627545,0.266777273312063,0.05650448231013193,0.266495378571444
1.0032015777088654,0.41405085665469693,0.052703228936845044,0.26326150551395927,0.05263577591486759,0.2629667487800317
1.0032486597339958,0.4030953535584088,0.048881779533073606,0.251751202986526,0.047878721817703175,0.2514381353601061
1.0032957417591262,0.38301151602067063,0.04412980052684627,0.2324239377319079,0.042013190621317704,0.23209756845240836
1.0033428237842565,0.3514583105172215,0.03806972200004807,0.2047530276495091,0.0351104539182637,0.20442992253795203
1.003389905809387,0.3042863356687068,0.03056144598886427,0.16911475512504195,0.027604866834258945,0.16882039963017642
1.0034369878345173,0.2364892670841809,0.02198099406483721,0.12615890065588273,0.019678863202989706,0.12592311623336194
1.0034840698596477,0.14805992805189566,0.013631787541256192,0.07745804013496241,0.011446679772498927,0.07730937100950645
1.003531151884778,0.05937981673678241,0.00923363444052411,0.035632586371168055,0.0063908718445151265,0.03554753288886107
1.0035782339099084,0.016571701488668728,0.010515153625835832,0.012038086514572617,0.006041639326545528,0.01195890122800934
1.0036253159350388,0.04141534161646615,0.018739088642392734,0.014399178728297872,0.012736493957949532,0.01423388059902661
1.0036723979601692,0.0978579156313711,0.03157355962552713,0.03595348541122598,0.026105490811259593,0.03562444737523867
1.0037194799852995,0.14599333246590304,0.04856466471068456,0.06503465797160808,0.03917118408553587,0.06457339988742092
1.00376656201043,0.17300879075255565,0.06149616620091105,0.0922030709843016,0.04983088728364035,0.09166977991324092
1.0038136440355603,0.18229222765708752,0.06980349166304392,0.11374971918924169,0.05528318873180012,0.11320751761162351
1.0038607260606907,0.18262972424027749,0.07261163051757824,0.12736778710133306,0.057618228956196386,0.1268348267061324
1.003907808085821,0.18292620727983336,0.07538177192614974,0.13485525602086357,0.05910131988962574,0.13432839543829436
1.0039548901109514,0.18798821740501145,0.07799214995994552,0.13913083302593265,0.059897231075755335,0.13860844474947662
1.0040019721360818,0.19658928748535154,0.07838792002905723,0.1397247738744464,0.059782700696563114,0.13920404302613792
1.0040490541612122,0.20361099360789395,0.07364067091376657,0.1356935801867525,0.06006384772131704,0.1351637640585562
1.0040961361863425,0.20356945018764083,0.06543298493077732,0.1287855413388881,0.05803419203835924,0.128252884888923
1.004143218211473,0.19261735903368254,0.05804838529712587,0.11776025800915435,0.056378197936015666,0.11721777027231593
1.0041903002366033,0.1692114287165738,0.04886320730114018,0.09836742477706704,0.051452450074606394,0.09782942945730164
1.0042373822617336,0.13469585530973552,0.038850787633821715,0.07519967777083232,0.04312413113567304,0.07470754334960347
1.004284464286864,0.094068350002802,0.028458655672305596,0.051842634052145065,0.03387368776116642,0.05142986838296187
1.0043315463119944,0.0558705414627791,0.018739686200842633,0.03082107495389939,0.023118787951024965,0.030527026978641073
1.0043786283371248,0.029785725493520713,0.013004674707773002,0.019809015244991575,0.013216670212424498,0.01963763984135199
1.0044257103622551,0.022326134922130727,0.010878882949630936,0.01684685304795892,0.0067069105115371746,0.01675880785783328
1.0044727923873855,0.03362727707623793,0.012032955966464257,0.01768087969631584,0.004563341174937111,0.0176203804101925
1.004519874412516,0.057935866130881315,0.015042144571722704,0.0238553638180855,0.005682310950468802,0.023780058888184675
1.0045669564376463,0.08691312585069338,0.02009478867771415,0.038233159934289905,0.011477606713860302,0.0380838215886963
1.0046140384627766,0.11302745450084833,0.025170835127333924,0.05542672474865837,0.022049395168271726,0.05515059804276225
1.004661120487907,0.13143773576861661,0.030636388809219345,0.07126698378066398,0.034525586494126646,0.07085836883088018
1.0047082025130374,0.140315951549541,0.0358215741745198,0.0817840112464661,0.04755664206120383,0.08125746030306882
1.0047552845381678,0.14016084842095028,0.03623007993873506,0.0846685751900148,0.058672107626181,0.08405193939365001
1.0048023665632981,0.13271042804166153,0.03385173771463391,0.08028160564993014,0.06641534622810528,0.07959583015199394
1.0048494485884285,0.1199532079956697,0.029001965942152694,0.06958311394397716,0.07172566787459286,0.06882954834488074
1.0048965306135589,0.10352759540252561,0.025796465490178694,0.05738407400153901,0.07384116858951058,0.05657958560912717
1.0049436126386893,0.08458770500586026,0.022127716355516303,0.04469505929439128,0.07087602600862036,0.04388434217206475
1.0049906946638196,0.06411017510052013,0.019434078602295842,0.03435472552873721,0.0643059044206645,0.03358817335528545
1.00503777668895,0.043500849939608656,0.01666868414656109,0.022887706523455283,0.05535735396913658,0.022201941231250157
1.0050848587140804,0.02497562650004661,0.013231945673281408,0.013888116903115118,0.044744977133357657,0.013319758154960082
1.0051319407392107,0.011013597455985432,0.009643283631822765,0.011624969459267675,0.03444936138114473,0.011183640267319968
1.0051790227643411,0.003334338693202587,0.008138783669775862,0.009001101837417943,0.022106955288659712,0.00871560919901693
1.0052261047894715,0.0027948227754708652,0.006578759738171853,0.005716764128480125,0.008799650882500358,0.00560230553509119
1.0052731868146019,0.010164673003053454,0.007744841714443752,0.005314070387151807,-0.0003925885413586282,0.0053187179836918265
1.0053202688397322,0.026566180290056158,0.011141532955353521,0.008193549268036414,-0.005214730861267823,0.00826064015056019
1.0053673508648626,0.05291846997433676,0.014488702228764774,0.011498759854167706,-0.00688423812155414,0.011587390151027608
1.005414432889993,0.08828034555015178,0.015798333708301766,0.017065936640710815,-0.0057441006257851505,0.01713929526544381
1.0054615149151234,0.12763762777320273,0.0177940324142841,0.025647230237824777,-0.0018230058329645373,0.025668749552709636
1.0055085969402537,0.16155770115500132,0.019799802992336087,0.038076850744054896,0.005279758996352579,0.03800580707359018
1.0055556789653841,0.18078890709766565,0.022403011812408218,0.05135766337998839,0.014517505511491342,0.05117106594349241
1.0056027609905145,0.18307418566708303,0.022739449096437974,0.06056084021799014,0.024142185411482105,0.06026166123236669
1.0056498430156449,0.1741533504439713,0.024387752892625812,0.06655908741414072,0.03354446461274212,0.0661581154239374
1.0056969250407752,0.16242605985016223,0.02472598726847718,0.07063087442771013,0.04262658727770992,0.07013929925859891
1.0057440070659056,0.15418810481596457,0.02262315458602723,0.07107575192890922,0.048666959238767724,0.0705261007964283
1.005791089091036,0.1523552110015489,0.018094069424179803,0.0660360559428213,0.051140462599792526,0.06545640957501898
1.0058381711161664,0.15691036178882456,0.01547069851296287,0.06130313889977103,0.051851771939248496,0.06071019235802287
1.0058852531412967,0.16538784679386007,0.013755399250346327,0.06307528196508604,0.0504176333081607,0.06249871914987768
1.005932335166427,0.17322460684996496,0.011437353746690667,0.06323184659303546,0.04705602003540535,0.06268865618400712
1.0059794171915575,0.17475929729964576,0.008222251399132822,0.05880087400333982,0.0411079313994164,0.05831431540510031
1.0060264992166879,0.16548577922015562,0.0050342624615303845,0.05204155960234529,0.03593384724594527,0.0516059648019108
1.0060735812418182,0.1445721481217929,0.002972471508477233,0.04234591607178599,0.029102086344837377,0.041983434309650944
1.0061206632669486,0.11538472372115638,0.0006100925114591557,0.03266210113426135,0.021877051163050675,0.032383631304165245
1.006167745292079,0.08342022676517998,6.125577341535565e-05,0.0259645785337829,0.01607416080453778,0.025757321940706998
1.0062148273172093,0.053714935068683495,0.001818143084211164,0.01794830890199036,0.012287940295521405,0.01778874718877125
1.0062619093423397,0.029620632829972474,0.004828449585314356,0.006428025048282717,0.010110699905517044,0.006296599525394698
1.00630899136747,0.012907514843990737,0.008590535521136622,-0.004503164505502606,0.009112170641397917,-0.004621228806817608
1.0063560733926005,0.004292560353454192,0.014053484144669177,-0.010519166817943732,0.009609050400560558,-0.010643455179446763
1.0064031554177308,0.0038095921685766332,0.020234857016942866,-0.007972360122875525,0.009802311413702856,-0.008099277380993117
1.0064502374428612,0.010924293923755681,0.027676976863758355,0.0013341291502741227,0.011794255268488329,0.001181036553620323
1.0064973194679916,0.02453035587728399,0.03539515190548591,0.011333716656649779,0.015905491212025162,0.011127791560362109
1.006544401493122,0.042966387475684646,0.04144393089942936,0.020787738978896356,0.019545095545708466,0.020536421642338976
1.0065914835182523,0.06411092062196938,0.0463248412804512,0.03329944681240632,0.023381777488453194,0.03300271578535115
1.0066385655433827,0.08556714248621351,0.05147315252865983,0.049462130528264495,0.02786241319981044,0.049116723212069495
1.006685647568513,0.10493697207975199,0.05328584988998309,0.06485229624100503,0.03155989807142566,0.06447182868390612
1.0067327295936435,0.12014720761669652,0.05264717902844885,0.07640706666955516,0.03375910094242358,0.07600943690941969
1.0067798116187738,0.12974860817624662,0.04829435754558564,0.08294186479002422,0.03392337716790717,0.08254637707558994
1.0068268936439042,0.1331160769266914,0.04364325561469927,0.08436945777741765,0.03252484953371852,0.08398890319900472
1.0068739756690346,0.13051634907150206,0.037913097498228666,0.08386978816652868,0.02993441507508231,0.08351553152711481
1.006921057694165,0.12301693370584733,0.031007332235058745,0.08185258015702256,0.02538838592300988,0.08154565182699668
1.0069681397192953,0.11219272060745543,0.02308898660641962,0.07585112215539112,0.0199049646340927,0.07560356123541671
1.0070152217444257,0.09964098937742749,0.015296571112600839,0.06985230351433948,0.01489328049672798,0.06966226617225542
1.007062303769556,0.08648287672211809,0.00953274900970672,0.06302251331950957,0.01184293963421201,0.06286883639704276
1.0071093857946865,0.07315337862299943,0.0055719356414167115,0.053521194673379444,0.009778945671581971,0.05339288097027316
1.0071564678198168,0.05967551136841471,0.0011094801518720498,0.042771215350936226,0.006840791914682747,0.042680081770343735
1.0072035498449472,0.046352747241279996,-0.0021845099386417193,0.029687677967592516,0.005816877327090673,0.029610290153147
1.0072506318700776,0.03458526276589038,-0.0038565257409633406,0.01916866027493343,0.006454272528758421,0.0190837280370746
1.007297713895208,0.02727830692374265,-0.0034579169638039075,0.01473006896934623,0.006477958507544057,0.014645093926701418
1.0073447959203383,0.0280866607277734,-0.002108123058539779,0.01711698325886342,0.006928335115560442,0.017026075894747972
1.0073918779454687,0.03925806445151868,0.0017956213262366259,0.028584290137595406,0.010125299315513925,0.028452098999276896
1.007438959970599,0.059562255279517966,0.007382186092776071,0.043832242766228824,0.014286820571111919,0.043648126000231935
1.0074860419957294,0.08449757331606145,0.012489417702443098,0.058037587268334905,0.019735694004678405,0.0577890964509341
1.0075331240208598,0.10858230355013457,0.016751928148884175,0.06858033205585247,0.024431846352788927,0.06828002407745543
1.0075802060459902,0.12742598805780986,0.019478682785530294,0.07621925524513734,0.02785739633556765,0.07588375872924735
1.0076272880711206,0.13840784538629322,0.021329305497338257,0.07904744927672683,0.029882386058465424,0.07869156356589073
1.007674370096251,0.14057521646913557,0.0205124336429496,0.0769603579802706,0.030193334433880375,0.0766002510483409
1.0077214521213813,0.1345761316442056,0.017455472314259368,0.07084930100861353,0.028928618540877846,0.0705001034783432
1.0077685341465117,0.12269802495893224,0.014052824703856602,0.062425783036096825,0.024605526503671402,0.0621218128678285
