freq,gls,usurper,pdc_unbiased,shape_periodogram,shift_periodogram
1.0,0.02176245538732735,0.020167222069779903,-0.007335655112181927,0.006828496898343111,-0.007564120385603022
1.0000470820251304,0.05134779247241603,0.029644477002079443,0.016081221596065367,0.011103114649339873,0.01569485711955118
1.0000941640502607,0.09689124580742478,0.04152851896612705,0.05094334186944231,0.021995406305224896,0.05017972664494434
1.0001412460753911,0.14848755125694818,0.05426090604774198,0.08456655871201842,0.03750597528521213,0.08331214857386914
1.0001883281005215,0.19664060203551523,0.0670257536794902,0.10917973127593883,0.056334660083416664,0.10740068579680917
1.0002354101256519,0.23592916525893703,0.07737589165770582,0.12678225514793529,0.07130914150760298,0.1246508422451281
1.0002824921507822,0.26363730657080775,0.08304430820360516,0.13936052532630389,0.0803062511122635,0.13705828579716564
1.0003295741759126,0.2780607972143743,0.08688405011633103,0.14663287491158739,0.08575603846687352,0.14424113433280888
1.000376656201043,0.27778293516045677,0.08849958654672908,0.14742341655727248,0.08886737135678359,0.14497081086956912
1.0004237382261734,0.2619162710265795,0.08591635341918478,0.139633635428265,0.08938876347344739,0.13713518333488242
1.0004708202513037,0.23107843684954268,0.07963822318224845,0.12167319492364326,0.08635457906359224,0.11916493558870775
1.0005179022764341,0.1884924826566669,0.07106304638375376,0.09811663264576473,0.08121238948311486,0.09564610733846067
1.0005649843015645,0.1401213853463462,0.06407871332145952,0.07552593926328457,0.07567035154152336,0.07313503464858921
1.0006120663266949,0.09311329616242185,0.05873680663447994,0.056936636782797936,0.06891215342958575,0.05469728686101994
1.0006591483518252,0.05338098213176131,0.055774731128773264,0.04656239048066332,0.05967516167829363,0.044588651969180416
1.0007062303769556,0.024158292773911582,0.051782202357223965,0.0379052596807291,0.047917218738496914,0.03629634648763266
1.000753312402086,0.006389706849983347,0.047440131503514116,0.024925530867037873,0.03401115963276594,0.023767505264872354
1.0008003944272164,4.4957735270936574e-05,0.0450568106124624,0.013623927240606612,0.02172191389152131,0.01287945704828312
1.0008474764523467,0.004476680458159687,0.042471540521869695,0.005279248516488982,0.017328621367360072,0.004686736522086377
1.000894558477477,0.016631009383087918,0.045829689635067034,0.00604487589630294,0.019792839367534305,0.005368352739427672
1.0009416405026075,0.030279800796216314,0.05519913788286294,0.01614856324889533,0.028368005897232082,0.015179507800047709
1.0009887225277379,0.04019506929021177,0.06805759779254962,0.031662352407458065,0.043652962668394274,0.030188157491958984
1.0010358045528682,0.045271217739530065,0.07909639661936436,0.049643587368788454,0.06232522309366144,0.04759201593779759
1.0010828865779986,0.04665854735345898,0.08665370002562023,0.06394396252727896,0.08018597660756542,0.061389008295615166
1.001129968603129,0.04557434040645729,0.09154364168931738,0.06951556918541625,0.093568457376865,0.06660161377791934
1.0011770506282593,0.04281463251624272,0.09117417347515679,0.06676401531502141,0.09986323856215511,0.06366285105977444
1.0012241326533897,0.03911406922799136,0.08537418925183016,0.05756222886158259,0.10021833633023387,0.05440477634731652
1.00127121467852,0.035734840091298535,0.07638148850395901,0.04469056838221148,0.09705361208705185,0.041564315979119866
1.0013182967036505,0.034632288517627896,0.06827214702199129,0.03354469161607427,0.0939397455339711,0.030465362075943078
1.0013653787287808,0.03686446430802818,0.06551000838016387,0.03235087082016887,0.09222546322691481,0.029320438587622295
1.0014124607539112,0.040499198873267514,0.06820472869387917,0.04235422606047071,0.09327793860186727,0.039331987034626065
1.0014595427790416,0.04245011553894062,0.073091100068876,0.05148956578485458,0.095700103832679,0.04843436178491349
1.001506624804172,0.04142424671447975,0.07528376023885866,0.057489670337512934,0.09330554719554468,0.054530705234744056
1.0015537068293023,0.03772147907862947,0.07474228063342397,0.05838903434484734,0.08540697813180867,0.055663381327402756
1.0016007888544327,0.032149333674356434,0.07026878485597822,0.05286952532393206,0.07226954657726667,0.05051919161075748
1.001647870879563,0.025799799790141527,0.061918763212921085,0.040386054375886556,0.05376803793353687,0.03859145615135929
1.0016949529046935,0.020580986012262138,0.04934071080200546,0.02276083148008517,0.03406563597351344,0.021600819212541877
1.0017420349298238,0.01993155776046648,0.04137037058376491,0.008396000375120035,0.019260979713328207,0.007736642031319797
1.0017891169549542,0.027489951613850306,0.04035104644096743,0.00883020356959996,0.016762803625819413,0.008255398999320906
1.0018361989800846,0.042074300128446054,0.04266887749776461,0.022145335055818467,0.023041026491205988,0.021353989685475815
1.001883281005215,0.05845891480384451,0.0514449548251381,0.04104344236602053,0.03639876912951236,0.039809381189355765
1.0019303630303453,0.07582159493280267,0.06190189260827562,0.05832937685591873,0.05242220273140084,0.05659665724747029
1.0019774450554757,0.09824195100672209,0.06994808577179482,0.07041397317164165,0.06975722027946198,0.06817990743306834
1.002024527080606,0.1303669711588208,0.07028689020869189,0.07896421651578898,0.08222966305973521,0.07640058009285983
1.0020716091057364,0.17464242099810953,0.06712229331819818,0.08832693698111686,0.0905646608793671,0.08557552341843226
1.0021186911308668,0.22917237164395338,0.07005101097639878,0.11355266104308831,0.09704737553834084,0.11076071162288076
1.0021657731559972,0.2864808872447173,0.07706914045324642,0.14880372324738836,0.10359998667716927,0.1460740669854972
1.0022128551811276,0.335488571803669,0.08389563844934167,0.17945522269565434,0.1094060658006842,0.1768317860711997
1.002259937206258,0.3667004160945303,0.08795339457313882,0.20044309409803335,0.1125711624862365,0.19793124674989163
1.0023070192313883,0.37630521047742305,0.08870361578384463,0.20989430295355302,0.11225619163862445,0.20745542456665925
1.0023541012565187,0.3658732131217113,0.08638058505399418,0.20800353236518512,0.10867881289874125,0.2055868334665791
1.002401183281649,0.3393357840705059,0.08295671074419449,0.19716291122807472,0.10215001076888001,0.19475172735611287
1.0024482653067794,0.30043566038503033,0.07838738762206585,0.1783931936762516,0.09063734201641936,0.1760520309203166
1.0024953473319098,0.25183659939415354,0.0706409375378096,0.15384153094853617,0.07314490665335627,0.15174684940500646
1.0025424293570402,0.1956066522565673,0.05709719695685858,0.12081929242955049,0.05087021139372501,0.11920707406694497
1.0025895113821706,0.13475970805500284,0.040486902060272174,0.07564140824241966,0.024591352661145146,0.07478983098791388
1.002636593407301,0.07582916802294695,0.02696907149304494,0.025728531183742454,0.003592559851941953,0.025591546043498368
1.0026836754324313,0.03145358980808763,0.023017642818677596,-0.0040036080406334615,-0.0002813364379192232,-0.003991704122453802
1.0027307574575617,0.01779891286180085,0.03029448559967165,-0.006351274616742859,0.015821672836515765,-0.006887268506339204
1.002777839482692,0.04358985242398123,0.038533229339912274,0.006591376950054447,0.043802449938415845,0.00510070944570125
1.0028249215078224,0.1037077589167159,0.05399657916815484,0.04281328660270074,0.06872353601254347,0.04054971444206909
1.0028720035329528,0.18101238562213362,0.07423612100816257,0.0979436666785688,0.08536430995744147,0.09536550260960026
1.0029190855580832,0.25636899888384335,0.09390880239772557,0.15380629462607742,0.0944296641675163,0.1512747604612481
1.0029661675832136,0.31832235074100634,0.10754821269459615,0.19704252226634572,0.09742637633445118,0.19469401075282183
1.003013249608344,0.36361141655314383,0.11451568343059935,0.228525784613192,0.09885692681110932,0.22634208491029004
1.0030603316334743,0.39341420767750745,0.11727422053068055,0.24979870354304085,0.09788831339085739,0.24774940926820654
1.0031074136586047,0.4102870696014962,0.11670988510980945,0.26258314989231946,0.0953588391025778,0.2606272180442573
1.003154495683735,0.41662904201390033,0.11431455237524228,0.266777273312063,0.09138028451678047,0.2648748005785655
1.0032015777088654,0.41405085665469693,0.11001842405929632,0.26326150551395927,0.08578832520191214,0.2613909285792322
1.0032486597339958,0.4030953535584088,0.10383737832122535,0.251751202986526,0.07839551618587486,0.24991288130225023
1.0032957417591262,0.38301151602067063,0.09559298463551111,0.2324239377319079,0.06918415777733611,0.23064987211876825
1.0033428237842565,0.3514583105172215,0.08491450894022073,0.2047530276495091,0.05793627363446481,0.20311471519565757
1.003389905809387,0.3042863356687068,0.07140067328609165,0.16911475512504195,0.04494704020112647,0.16771795738811457
1.0034369878345173,0.2364892670841809,0.0556763387338686,0.12615890065588273,0.030507357452550746,0.1251296736121944
1.0034840698596477,0.14805992805189566,0.039247585511787794,0.07745804013496241,0.01583872838104336,0.07688833714769396
1.003531151884778,0.05937981673678241,0.027657369294725325,0.035632586371168055,0.004703990491401242,0.03545242823372747
1.0035782339099084,0.016571701488668728,0.025554392377535907,0.012038086514572617,0.000792125940629696,0.01200413532552272
1.0036253159350388,0.04141534161646615,0.03572516543118686,0.014399178728297872,0.008382880290233763,0.01410590681501402
1.0036723979601692,0.0978579156313711,0.05380863589500799,0.03595348541122598,0.025288352068408803,0.035084222385781634
1.0037194799852995,0.14599333246590304,0.07631725172620138,0.06503465797160808,0.04482482539593204,0.06354350540450328
1.00376656201043,0.17300879075255565,0.0933486440998838,0.0922030709843016,0.06353412136088424,0.09019381652582134
1.0038136440355603,0.18229222765708752,0.10446969205374707,0.11374971918924169,0.0752862681460783,0.11148143112472668
1.0038607260606907,0.18262972424027749,0.11010522388763351,0.12736778710133306,0.08330173261847255,0.12495276281893304
1.003907808085821,0.18292620727983336,0.11227345228083818,0.13485525602086357,0.09102293617538969,0.13230027619653364
1.0039548901109514,0.18798821740501145,0.11383659370756012,0.13913083302593265,0.09620813026060919,0.136488898178643
1.0040019721360818,0.19658928748535154,0.11264786319020534,0.1397247738744464,0.09868086498476875,0.13703639656861372
1.0040490541612122,0.20361099360789395,0.10860378752188418,0.1356935801867525,0.09870070668188988,0.1329828200223236
1.0040961361863425,0.20356945018764083,0.10088913190508095,0.1287855413388881,0.0965094820813039,0.12608376178300618
1.004143218211473,0.19261735903368254,0.09058143781732325,0.11776025800915435,0.09259485209011764,0.11509084887414223
1.0041903002366033,0.1692114287165738,0.07753852238429118,0.09836742477706704,0.0841235205964781,0.09582266274364165
1.0042373822617336,0.13469585530973552,0.06259061167292235,0.07519967777083232,0.07137126334901961,0.07293046304271936
1.004284464286864,0.094068350002802,0.04728788794488822,0.051842634052145065,0.05596689243003912,0.04999208252277151
1.0043315463119944,0.0558705414627791,0.03341144069387054,0.03082107495389939,0.038421677413600815,0.029518213839716773
1.0043786283371248,0.029785725493520713,0.024212968688731712,0.019809015244991575,0.021776925479168638,0.01906079160206062
1.0044257103622551,0.022326134922130727,0.01999548155213318,0.01684685304795892,0.009071742501762204,0.01652892750935515
1.0044727923873855,0.03362727707623793,0.02060439862360157,0.01768087969631584,0.0030584860550434924,0.017566590849595387
1.004519874412516,0.057935866130881315,0.025345291535662794,0.0238553638180855,0.0036017225085081856,0.023719123310388283
1.0045669564376463,0.08691312585069338,0.03384558861535152,0.038233159934289905,0.011569661803516573,0.03782035598068643
1.0046140384627766,0.11302745450084833,0.044766430638812076,0.05542672474865837,0.02667291022291125,0.05450969369174121
1.004661120487907,0.13143773576861661,0.05547480709314774,0.07126698378066398,0.04423789106489166,0.06979841344649725
1.0047082025130374,0.140315951549541,0.06501867395169207,0.0817840112464661,0.06194592413811731,0.07979999462137079
1.0047552845381678,0.14016084842095028,0.0690434657702422,0.0846685751900148,0.07661640961574753,0.0822777665218391
1.0048023665632981,0.13271042804166153,0.06886378049496324,0.08028160564993014,0.08672965050907874,0.07759961527563848
1.0048494485884285,0.1199532079956697,0.06589424033149006,0.06958311394397716,0.09417972045549369,0.06665252795268439
1.0048965306135589,0.10352759540252561,0.06291010773282275,0.05738407400153901,0.09775163881820752,0.054296440827953145
1.0049436126386893,0.08458770500586026,0.05759528444611503,0.04469505929439128,0.09662795091867422,0.041581628185215096
1.0049906946638196,0.06411017510052013,0.053128985790769884,0.03435472552873721,0.09140783908922825,0.03135783720492536
1.00503777668895,0.043500849939608656,0.046981134589035904,0.022887706523455283,0.08347724004882685,0.020103487361447448
1.0050848587140804,0.02497562650004661,0.03978863749020307,0.013888116903115118,0.07223607747872464,0.01145035986225906
1.0051319407392107,0.011013597455985432,0.03336731986781182,0.011624969459267675,0.05872094485901155,0.009635282825310641
1.0051790227643411,0.003334338693202587,0.028212350816651768,0.009001101837417943,0.04313750291804263,0.007533874369747232
1.0052261047894715,0.0027948227754708652,0.01970651277705505,0.005716764128480125,0.026691745381054,0.004806135169540634
1.0052731868146019,0.010164673003053454,0.012553742085848578,0.005314070387151807,0.012759953386211786,0.004876825318873601
1.0053202688397322,0.026566180290056158,0.008716079943741293,0.008193549268036414,0.0015229408785482066,0.00813694278583108
1.0053673508648626,0.05291846997433676,0.008389940430344361,0.011498759854167706,-0.0036858884611712427,0.011617676990845233
1.005414432889993,0.08828034555015178,0.01003555286539664,0.017065936640710815,-0.004165615243048842,0.017197997490464134
1.0054615149151234,0.12763762777320273,0.013124944308199354,0.025647230237824777,-0.0004961456195111824,0.02564924527027034
1.0055085969402537,0.16155770115500132,0.01755509239318317,0.038076850744054896,0.009338834627662128,0.03773906092280835
1.0055556789653841,0.18078890709766565,0.023497523764716956,0.05135766337998839,0.022946469264266415,0.0505627599272458
1.0056027609905145,0.18307418566708303,0.027569236482531408,0.06056084021799014,0.0374255672752933,0.0592994527018771
1.0056498430156449,0.1741533504439713,0.03179628061796768,0.06655908741414072,0.05011194427396004,0.06490617612288359
1.0056969250407752,0.16242605985016223,0.03457108871250948,0.07063087442771013,0.06091095584186363,0.06865753197268194
1.0057440070659056,0.15418810481596457,0.0346373605914411,0.07107575192890922,0.06690163565509663,0.06892657828170198
1.005791089091036,0.1523552110015489,0.032457074087673655,0.0660360559428213,0.06852435697507153,0.06382824849947563
1.0058381711161664,0.15691036178882456,0.03125725265415419,0.06130313889977103,0.06789861531187803,0.05910367911754421
1.0058852531412967,0.16538784679386007,0.03170597956738721,0.06307528196508604,0.06519834255093647,0.06096031070374532
1.005932335166427,0.17322460684996496,0.030243726822251113,0.06323184659303546,0.05965722024273226,0.06128403301690958
1.0059794171915575,0.17475929729964576,0.026632436890511795,0.05880087400333982,0.05151017586100967,0.057096919558662786
1.0060264992166879,0.16548577922015562,0.022523653937337716,0.05204155960234529,0.04284654677213704,0.05060429657683829
1.0060735812418182,0.1445721481217929,0.018281579584745817,0.04234591607178599,0.03285782688306657,0.04122747791730566
1.0061206632669486,0.11538472372115638,0.014430177973806762,0.03266210113426135,0.022908057143400433,0.031872547181591125
1.006167745292079,0.08342022676517998,0.012360885215352977,0.0259645785337829,0.014833895597999212,0.025447614023313886
1.0062148273172093,0.053714935068683495,0.013350545287147684,0.01794830890199036,0.009973113771167915,0.017599273097679675
1.0062619093423397,0.029620632829972474,0.01542929034203678,0.006428025048282717,0.007899018113338353,0.006155480721032993
1.00630899136747,0.012907514843990737,0.01776430246792595,-0.004503164505502606,0.008259918757219313,-0.0047820209869311415
1.0063560733926005,0.004292560353454192,0.021148494164759647,-0.010519166817943732,0.010615057547229226,-0.010875141311096279
1.0064031554177308,0.0038095921685766332,0.02584386633854753,-0.007972360122875525,0.012866646571634232,-0.008406597090392062
1.0064502374428612,0.010924293923755681,0.034388494771497094,0.0013341291502741227,0.020311251150753266,0.0006417316463979158
1.0064973194679916,0.02453035587728399,0.04218291728674691,0.011333716656649779,0.029755901307643967,0.010318467915857695
1.006544401493122,0.042966387475684646,0.04854491613918713,0.020787738978896356,0.03880310580753737,0.019469594993680336
1.0065914835182523,0.06411092062196938,0.05228116807599521,0.03329944681240632,0.04551718433291178,0.03176528052626972
1.0066385655433827,0.08556714248621351,0.05723294183902848,0.049462130528264495,0.05053082980022085,0.04777952344669392
1.006685647568513,0.10493697207975199,0.059975929464083505,0.06485229624100503,0.05311432073931078,0.06310567116148402
1.0067327295936435,0.12014720761669652,0.06035911947405427,0.07640706666955516,0.05341362701021761,0.07466535786493209
1.0067798116187738,0.12974860817624662,0.05713810265347368,0.08294186479002422,0.05137109683482386,0.08126871687320499
1.0068268936439042,0.1331160769266914,0.05421592473337796,0.08436945777741765,0.04698376824695835,0.08282825804567578
1.0068739756690346,0.13051634907150206,0.048782898177902365,0.08386978816652868,0.04203592634217402,0.08247703741027373
1.006921057694165,0.12301693370584733,0.04120574730443988,0.08185258015702256,0.035062007587816114,0.08067235164061733
1.0069681397192953,0.11219272060745543,0.032113162280978914,0.07585112215539112,0.026777492913772804,0.07492986273918693
1.0070152217444257,0.09964098937742749,0.02330002164307729,0.06985230351433948,0.01886138645170331,0.06918649607587395
1.007062303769556,0.08648287672211809,0.01660180996992832,0.06302251331950957,0.012862476877928464,0.06255576988167225
1.0071093857946865,0.07315337862299943,0.012547356301303787,0.053521194673379444,0.008541096153595313,0.053202518773749645
1.0071564678198168,0.05967551136841471,0.009309372167366058,0.042771215350936226,0.004928627327644527,0.042579563573301525
1.0072035498449472,0.046352747241279996,0.0069008102033899935,0.029687677967592516,0.003387361070065881,0.02955542524014745
1.0072506318700776,0.03458526276589038,0.00637151281842403,0.01916866027493343,0.003991810938676977,0.01902181735059908
1.007297713895208,0.02727830692374265,0.0076291552226184865,0.01473006896934623,0.004910126839237358,0.014554526315833781
1.0073447959203383,0.0280866607277734,0.011261530029246692,0.01711698325886342,0.007864639498068208,0.0168398398966964
1.0073918779454687,0.03925806445151868,0.019746865168517234,0.028584290137595406,0.014954434825652512,0.02806215330594929
1.007438959970599,0.059562255279517966,0.030609978760008354,0.043832242766228824,0.023886216595749105,0.04300789615532868
1.0074860419957294,0.08449757331606145,0.040826783953928594,0.058037587268334905,0.03415713652456,0.0568795463846982
1.0075331240208598,0.10858230355013457,0.04901409731585644,0.06858033205585247,0.04370092189655972,0.06712646679888461
1.0075802060459902,0.12742598805780986,0.05462051049630253,0.07621925524513734,0.050411354446296595,0.07456726836791368
1.0076272880711206,0.13840784538629322,0.05733010930512159,0.07904744927672683,0.05414087082870474,0.07728747932661452
1.007674370096251,0.14057521646913557,0.055902310826911154,0.0769603579802706,0.05512589303392479,0.0751684001666677
1.0077214521213813,0.1345761316442056,0.05150107642858493,0.07084930100861353,0.053016999219604656,0.06911272032083983
1.0077685341465117,0.12269802495893224,0.04452996032818036,0.062425783036096825,0.04703287027058658,0.06086408541060227
