freq,gls,usurper,pdc_unbiased,shape_periodogram,shift_periodogram
1.0,0.02176245538732735,0.009675788869407963,-0.007335655112181927,0.010662111648725874,-0.007442191959260885
1.0000470820251304,0.05134779247241603,0.010862700465048579,0.016081221596065367,0.010332183262120181,0.01597811891457889
1.0000941640502607,0.09689124580742478,0.012870254500572458,0.05094334186944231,0.01175929591292081,0.050827322040880606
1.0001412460753911,0.14848755125694818,0.01437770616579504,0.08456655871201842,0.01676526800862164,0.08440849510218795
1.0001883281005215,0.19664060203551523,0.01611973052799482,0.10917973127593883,0.026235773520315267,0.10895403807298873
1.0002354101256519,0.23592916525893703,0.019029657257357134,0.12678225514793529,0.035468379177156714,0.12650860014843807
1.0002824921507822,0.26363730657080775,0.023440409151188567,0.13936052532630389,0.04279309782824882,0.139063591681736
1.0003295741759126,0.2780607972143743,0.025895806016189966,0.14663287491158739,0.046736316115283325,0.1463303455197811
1.000376656201043,0.27778293516045677,0.0261414963958804,0.14742341655727248,0.0496338382641882,0.14711392526505312
1.0004237382261734,0.2619162710265795,0.025907656323272823,0.139633635428265,0.050349508439604146,0.1393117930834643
1.0004708202513037,0.23107843684954268,0.02469765610219322,0.12167319492364326,0.049258368669065536,0.12133120924265543
1.0005179022764341,0.1884924826566669,0.02285396750938908,0.09811663264576473,0.047535797092580316,0.09775327818513786
1.0005649843015645,0.1401213853463462,0.0223221755582594,0.07552593926328457,0.046211826336180574,0.07514439681466999
1.0006120663266949,0.09311329616242185,0.023140137603834668,0.056936636782797936,0.04474225471842333,0.05654554050034506
1.0006591483518252,0.05338098213176131,0.025545209812738508,0.04656239048066332,0.042212114443210484,0.046180909889975065
1.0007062303769556,0.024158292773911582,0.027562354643079854,0.0379052596807291,0.03750596796451961,0.03755596493730073
1.000753312402086,0.006389706849983347,0.029797325575360075,0.024925530867037873,0.03164649159928148,0.02462083264096749
1.0008003944272164,4.4957735270936574e-05,0.031023035117098013,0.013623927240606612,0.02702598365543679,0.01335827651268312
1.0008474764523467,0.004476680458159687,0.03109807252668379,0.005279248516488982,0.02574322759300018,0.0050235483755508865
1.000894558477477,0.016631009383087918,0.03491143325901806,0.00604487589630294,0.027313467202269712,0.005773948036531339
1.0009416405026075,0.030279800796216314,0.039764896780492866,0.01614856324889533,0.031921722279962185,0.015837129344840085
1.0009887225277379,0.04019506929021177,0.04455495120797042,0.031662352407458065,0.0385881412480998,0.031299234789799846
1.0010358045528682,0.045271217739530065,0.04753725816122945,0.049643587368788454,0.04735082449436512,0.049225010055665694
1.0010828865779986,0.04665854735345898,0.05191372736901378,0.06394396252727896,0.05480600520506308,0.06349177624715062
1.001129968603129,0.04557434040645729,0.05338260299505797,0.06951556918541625,0.060967909667128374,0.0690353825983543
1.0011770506282593,0.04281463251624272,0.05254422585530191,0.06676401531502141,0.06382784283654976,0.06626195475683412
1.0012241326533897,0.03911406922799136,0.051338715295035454,0.05756222886158259,0.0626775521921308,0.05704824939242468
1.00127121467852,0.035734840091298535,0.0481081742963225,0.04469056838221148,0.05859785438612821,0.044180593114725365
1.0013182967036505,0.034632288517627896,0.04541773955360814,0.03354469161607427,0.05506248160981405,0.03304406981654393
1.0013653787287808,0.03686446430802818,0.04290829400157362,0.03235087082016887,0.05347775869859379,0.03186151770740505
1.0014124607539112,0.040499198873267514,0.040883043541618154,0.04235422606047071,0.054197652627964374,0.041873689759233
1.0014595427790416,0.04245011553894062,0.04159250630543248,0.05148956578485458,0.05752540610021346,0.05099895710490679
1.001506624804172,0.04142424671447975,0.04356056032518979,0.057489670337512934,0.05946632472927836,0.056996339758020605
1.0015537068293023,0.03772147907862947,0.04577498573841115,0.05838903434484734,0.058187085656284526,0.05790570686801799
1.0016007888544327,0.032149333674356434,0.045065395220035734,0.05286952532393206,0.05344828527071679,0.05241000059288345
1.001647870879563,0.025799799790141527,0.04073916946058136,0.040386054375886556,0.04588158313453534,0.03996893115478443
1.0016949529046935,0.020580986012262138,0.03533758038144024,0.02276083148008517,0.036629129113115395,0.022409171700866544
1.0017420349298238,0.01993155776046648,0.0326466008759081,0.008396000375120035,0.030299396942541218,0.008096712831700886
1.0017891169549542,0.027489951613850306,0.03145370170640092,0.00883020356959996,0.03065618002720099,0.008527625277578586
1.0018361989800846,0.042074300128446054,0.03114593959103379,0.022145335055818467,0.03347617830423282,0.021822353374762387
1.001883281005215,0.05845891480384451,0.03479384217976061,0.04104344236602053,0.03921197266182595,0.040681982863380005
1.0019303630303453,0.07582159493280267,0.035751906814342746,0.05832937685591873,0.0465355339630422,0.05792659768230834
1.0019774450554757,0.09824195100672209,0.03339607981963676,0.07041397317164165,0.0548967173738366,0.06997123398414823
1.002024527080606,0.1303669711588208,0.028390367124672983,0.07896421651578898,0.058159327016852044,0.07851690483850061
1.0020716091057364,0.17464242099810953,0.024632245473986004,0.08832693698111686,0.05977651735664555,0.08788842317859571
1.0021186911308668,0.22917237164395338,0.023462240284046462,0.11355266104308831,0.06118714121225,0.1131569926150191
1.0021657731559972,0.2864808872447173,0.024543821274525934,0.14880372324738836,0.06311101263846207,0.1484763531622712
1.0022128551811276,0.335488571803669,0.02568037092297437,0.17945522269565434,0.06499213926657472,0.17919517156775588
1.002259937206258,0.3667004160945303,0.0258311417831752,0.20044309409803335,0.06579799904285723,0.20023198555470026
1.0023070192313883,0.37630521047742305,0.024917650908610704,0.20989430295355302,0.06501992474955351,0.20970149928759124
1.0023541012565187,0.3658732131217113,0.023490662599102062,0.20800353236518512,0.06308962503723638,0.20779996719424032
1.002401183281649,0.3393357840705059,0.021378643653435458,0.19716291122807472,0.06122947532222173,0.19693234072996205
1.0024482653067794,0.30043566038503033,0.0192583034576547,0.1783931936762516,0.05703834264303941,0.178122605009883
1.0024953473319098,0.25183659939415354,0.018735186255589502,0.15384153094853617,0.048158610174931886,0.15354393800044056
1.0025424293570402,0.1956066522565673,0.017608592942060373,0.12081929242955049,0.036549763927222645,0.12053561987001606
1.0025895113821706,0.13475970805500284,0.017722500876882995,0.07564140824241966,0.020843867224660657,0.0754475551369494
1.002636593407301,0.07582916802294695,0.01840351218890389,0.025728531183742454,0.006825919641261287,0.025659739423414808
1.0026836754324313,0.03145358980808763,0.014137284451987845,-0.0040036080406334615,0.0058803615322964515,-0.0040622075875008535
1.0027307574575617,0.01779891286180085,0.010719384761011226,-0.006351274616742859,0.01975478589145444,-0.00654952558898454
1.002777839482692,0.04358985242398123,0.014953546517486446,0.006591376950054447,0.03505912352489504,0.006244753800304415
1.0028249215078224,0.1037077589167159,0.025470152383609047,0.04281328660270074,0.047870066198363315,0.04238285124448884
1.0028720035329528,0.18101238562213362,0.03661909182500615,0.0979436666785688,0.05121805696844473,0.09756142356831213
1.0029190855580832,0.25636899888384335,0.04268152297167008,0.15380629462607742,0.05180999762889248,0.15350085130043237
1.0029661675832136,0.31832235074100634,0.042697579498975693,0.19704252226634572,0.05414814388667063,0.19680093908754184
1.003013249608344,0.36361141655314383,0.04458320868598284,0.228525784613192,0.05416999466924702,0.22833349871820638
1.0030603316334743,0.39341420767750745,0.04481929300175479,0.24979870354304085,0.05175741021698307,0.24963139438668464
1.0031074136586047,0.4102870696014962,0.04404490870107474,0.26258314989231946,0.05023235757390711,0.26242867502093403
1.003154495683735,0.41662904201390033,0.04262116442131958,0.266777273312063,0.0480188161780969,0.26662125360505184
1.0032015777088654,0.41405085665469693,0.04075705600790732,0.26326150551395927,0.04516130480015815,0.26309410801181343
1.0032486597339958,0.4030953535584088,0.03840579512611963,0.251751202986526,0.04162656470876587,0.25156679079074645
1.0032957417591262,0.38301151602067063,0.03551663211717973,0.2324239377319079,0.03747728164843365,0.23222288785807463
1.0033428237842565,0.3514583105172215,0.03207037832700536,0.2047530276495091,0.032655061850928764,0.2045418861857447
1.003389905809387,0.3042863356687068,0.027848386813596505,0.16911475512504195,0.027443948530772394,0.16890592406796956
1.0034369878345173,0.2364892670841809,0.02318305389897839,0.12615890065588273,0.02198807495263381,0.12596828583205982
1.0034840698596477,0.14805992805189566,0.018710794847632717,0.07745804013496241,0.016338677084745908,0.077302736817178
1.003531151884778,0.05937981673678241,0.0165167713579565,0.035632586371168055,0.011918904946139983,0.03551451604838898
1.0035782339099084,0.016571701488668728,0.018573722713195392,0.012038086514572617,0.010681807220237554,0.011931504650635265
1.0036253159350388,0.04141534161646615,0.025615370078021674,0.014399178728297872,0.016199303189915904,0.014238586984820795
1.0036723979601692,0.0978579156313711,0.03580081346095085,0.03595348541122598,0.028836540944604947,0.035679060309698925
1.0037194799852995,0.14599333246590304,0.049600823919660364,0.06503465797160808,0.04098907958485299,0.06467875460451429
1.00376656201043,0.17300879075255565,0.06097799715550987,0.0922030709843016,0.04987236651188683,0.09182001169049345
1.0038136440355603,0.18229222765708752,0.0669725941610648,0.11374971918924169,0.05428694753221232,0.11337740906620034
1.0038607260606907,0.18262972424027749,0.0671656784139374,0.12736778710133306,0.055942276343768395,0.12701199153684456
1.003907808085821,0.18292620727983336,0.06898026341930677,0.13485525602086357,0.054489089631412,0.1345153906842256
1.0039548901109514,0.18798821740501145,0.07025679688114336,0.13913083302593265,0.05409172505293094,0.13879863316525823
1.0040019721360818,0.19658928748535154,0.06728513301888382,0.1397247738744464,0.05319620099516611,0.1393956111674838
1.0040490541612122,0.20361099360789395,0.06227615876782801,0.1356935801867525,0.05509333216853793,0.13535357154189798
1.0040961361863425,0.20356945018764083,0.05575597683369494,0.1287855413388881,0.054104443726345555,0.12843721303534147
1.004143218211473,0.19261735903368254,0.05069110701729546,0.11776025800915435,0.052672040389934484,0.11739998283509998
1.0041903002366033,0.1692114287165738,0.04411269631314884,0.09836742477706704,0.04919086826356643,0.09799584434437296
1.0042373822617336,0.13469585530973552,0.036820029964793256,0.07519967777083232,0.04287256247120106,0.07483978905846674
1.004284464286864,0.094068350002802,0.02906011223294802,0.051842634052145065,0.03549322881553883,0.051519358418785834
1.0043315463119944,0.0558705414627791,0.021580295410597077,0.03082107495389939,0.027243583602480675,0.030559158772666364
1.0043786283371248,0.029785725493520713,0.01706688293541899,0.019809015244991575,0.019505840727082554,0.019617056341282513
1.0044257103622551,0.022326134922130727,0.015070263608864081,0.01684685304795892,0.013787636599968019,0.016709954286505912
1.0044727923873855,0.03362727707623793,0.01503546197601899,0.01768087969631584,0.011212420611920479,0.017569169691090947
1.004519874412516,0.057935866130881315,0.016881518540210173,0.0238553638180855,0.011590071782441126,0.02374011015659504
1.0045669564376463,0.08691312585069338,0.020135283987474203,0.038233159934289905,0.016239353740026958,0.038074431787727514
1.0046140384627766,0.11302745450084833,0.023536007018092935,0.05542672474865837,0.02524565389898846,0.0551905189437749
1.004661120487907,0.13143773576861661,0.026592122991075964,0.07126698378066398,0.0363499353995937,0.0709498017594221
1.0047082025130374,0.140315951549541,0.030667901117983343,0.0817840112464661,0.046949029756692746,0.08140489541330503
1.0047552845381678,0.14016084842095028,0.030575704204698444,0.0846685751900148,0.05524078555878601,0.0842462734785976
1.0048023665632981,0.13271042804166153,0.028658048586480574,0.08028160564993014,0.06144415232861238,0.0798196877539083
1.0048494485884285,0.1199532079956697,0.02430128067082966,0.06958311394397716,0.06470685032814832,0.06908212696552364
1.0048965306135589,0.10352759540252561,0.022264726857760098,0.05738407400153901,0.06518666063416197,0.05685387628310309
1.0049436126386893,0.08458770500586026,0.0208063965402167,0.04469505929439128,0.061726621732386425,0.04416220685398207
1.0049906946638196,0.06411017510052013,0.01822460671376554,0.03435472552873721,0.05641545053913787,0.03384438218697347
1.00503777668895,0.043500849939608656,0.015114421989129203,0.022887706523455283,0.05063545659993921,0.02240996279004683
1.0050848587140804,0.02497562650004661,0.01136721679065047,0.013888116903115118,0.04472836773601798,0.013454285251860392
1.0051319407392107,0.011013597455985432,0.00676856637191378,0.011624969459267675,0.03973954201175493,0.01123644146306865
1.0051790227643411,0.003334338693202587,0.004285968440873822,0.009001101837417943,0.03270815445975535,0.008678659932459861
1.0052261047894715,0.0027948227754708652,0.0031755593250938356,0.005716764128480125,0.021499104386620338,0.005503037552526174
1.0052731868146019,0.010164673003053454,0.005371235841365307,0.005314070387151807,0.011176445879368118,0.005202509543565182
1.0053202688397322,0.026566180290056158,0.008354178872822316,0.008193549268036414,0.005278149803221374,0.008140543478131888
1.0053673508648626,0.05291846997433676,0.010389581580797443,0.011498759854167706,0.0025418119274213833,0.011472842002890522
1.005414432889993,0.08828034555015178,0.009778230404415639,0.017065936640710815,0.0010126186045655674,0.017054985266059187
1.0054615149151234,0.12763762777320273,0.010024135623011358,0.025647230237824777,0.0012043615371499113,0.025633953687411896
1.0055085969402537,0.16155770115500132,0.01186643958099306,0.038076850744054896,0.005385629302802069,0.03802183245596535
1.0055556789653841,0.18078890709766565,0.014149604781497307,0.05135766337998839,0.012613598947855603,0.051233691579286325
1.0056027609905145,0.18307418566708303,0.014574850890633696,0.06056084021799014,0.020624817361165754,0.060365761370374776
1.0056498430156449,0.1741533504439713,0.016206142609295197,0.06655908741414072,0.028762514002721323,0.06629772231332465
1.0056969250407752,0.16242605985016223,0.01700792815644703,0.07063087442771013,0.035681942787997516,0.07031820135370598
1.0057440070659056,0.15418810481596457,0.01497242309999672,0.07107575192890922,0.040506210715313816,0.07072846875705653
1.005791089091036,0.1523552110015489,0.011274238265478659,0.0660360559428213,0.04234324912383697,0.06567126199815096
1.0058381711161664,0.15691036178882456,0.009707972694946344,0.06130313889977103,0.04187817991548369,0.060937432257738275
1.0058852531412967,0.16538784679386007,0.009453293961812392,0.06307528196508604,0.038553331797133224,0.06273583444359596
1.005932335166427,0.17322460684996496,0.009905906584981722,0.06323184659303546,0.03410287201423938,0.06292658852947361
1.0059794171915575,0.17475929729964576,0.007831811064612244,0.05880087400333982,0.028986746598950324,0.058534449512588786
1.0060264992166879,0.16548577922015562,0.005444328578812259,0.05204155960234529,0.025103894399639986,0.05180554020037264
1.0060735812418182,0.1445721481217929,0.0035906881400224197,0.04234591607178599,0.021450528036835902,0.04213982119301721
1.0061206632669486,0.11538472372115638,0.0021514353625867754,0.03266210113426135,0.019396593229258234,0.03247316010054509
1.006167745292079,0.08342022676517998,0.002806706649267564,0.0259645785337829,0.01835018270314815,0.025784533587062498
1.0062148273172093,0.053714935068683495,0.0054123187289636995,0.01794830890199036,0.017864458619951236,0.017771912261621715
1.0062619093423397,0.029620632829972474,0.00925508014507756,0.006428025048282717,0.0205678059733225,0.00622361118558524
1.00630899136747,0.012907514843990737,0.012374174705914225,-0.004503164505502606,0.02127052848084682,-0.004716440738161695
1.0063560733926005,0.004292560353454192,0.01641968273073987,-0.010519166817943732,0.0215287214398354,-0.010736113094002872
1.0064031554177308,0.0038095921685766332,0.019638292846550418,-0.007972360122875525,0.023085551489757498,-0.008204694555681919
1.0064502374428612,0.010924293923755681,0.02350783384520553,0.0013341291502741227,0.02450247965796534,0.0010896704491688259
1.0064973194679916,0.02453035587728399,0.029258031570850673,0.011333716656649779,0.027079513939374304,0.011066802078828417
1.006544401493122,0.042966387475684646,0.03383107553293566,0.020787738978896356,0.02933907151099285,0.020502686613230247
1.0065914835182523,0.06411092062196938,0.0385108210563997,0.03329944681240632,0.03158742984093099,0.03299927515767579
1.0066385655433827,0.08556714248621351,0.04290301385504168,0.049462130528264495,0.03370838749967902,0.04915209661431003
1.006685647568513,0.10493697207975199,0.04489903335245197,0.06485229624100503,0.03621215709563291,0.06453181952380166
1.0067327295936435,0.12014720761669652,0.043686874611744295,0.07640706666955516,0.03729580081333349,0.07608665495927129
1.0067798116187738,0.12974860817624662,0.04061254142830938,0.08294186479002422,0.035101710304222974,0.08264135276267179
1.0068268936439042,0.1331160769266914,0.036791913992935896,0.08436945777741765,0.03153037066491127,0.08409522922440534
1.0068739756690346,0.13051634907150206,0.03421087494768303,0.08386978816652868,0.027380624409421944,0.08362617365815468
1.006921057694165,0.12301693370584733,0.030843912618861446,0.08185258015702256,0.02077893410615704,0.08166058436338113
1.0069681397192953,0.11219272060745543,0.02579146830313388,0.07585112215539112,0.014653641750064561,0.07571034781469524
1.0070152217444257,0.09964098937742749,0.01966888682570793,0.06985230351433948,0.009468296826922849,0.06975807336380893
1.007062303769556,0.08648287672211809,0.014892024166312816,0.06302251331950957,0.005887478555789651,0.06296201743405669
1.0071093857946865,0.07315337862299943,0.010054041108073194,0.053521194673379444,0.0038395999841538326,0.053480742252334464
1.0071564678198168,0.05967551136841471,0.004631834534991655,0.042771215350936226,0.0026557269744950547,0.042742784894586515
1.0072035498449472,0.046352747241279996,0.00155816454104656,0.029687677967592516,0.0036075827730611314,0.02965040795166536
1.0072506318700776,0.03458526276589038,-0.0011184209530643613,0.01916866027493343,0.005091914071838937,0.01911712447532861
1.007297713895208,0.02727830692374265,-0.0017354458927011003,0.01473006896934623,0.006505282437069804,0.014664693857373425
1.0073447959203383,0.0280866607277734,-0.001002175599324277,0.01711698325886342,0.009338041928261842,0.01702364834675646
1.0073918779454687,0.03925806445151868,0.0014199861940247368,0.028584290137595406,0.013799294074534256,0.02844791892573181
1.007438959970599,0.059562255279517966,0.006164268603285376,0.043832242766228824,0.01869097913424805,0.043651530000829726
1.0074860419957294,0.08449757331606145,0.01078666593549836,0.058037587268334905,0.02568852349402469,0.05779843622000655
1.0075331240208598,0.10858230355013457,0.014481292098491784,0.06858033205585247,0.031485087095075304,0.06829837714612011
1.0075802060459902,0.12742598805780986,0.015640213543777932,0.07621925524513734,0.035551228575435946,0.07591119158349173
1.0076272880711206,0.13840784538629322,0.016938917809490143,0.07904744927672683,0.038714542480382724,0.07871911782543711
1.007674370096251,0.14057521646913557,0.01639433066844129,0.0769603579802706,0.040936172893161295,0.07661514262146678
1.0077214521213813,0.1345761316442056,0.013528105750079586,0.07084930100861353,0.04155616187298548,0.07049443630841232
