freq,gls,usurper,pdc_unbiased,shape_periodogram,shift_periodogram
1.0,0.02176245538732735,0.014088678690715459,-0.007335655112181927,0.009851716205939179,-0.007535941201255318
1.0000470820251304,0.05134779247241603,0.018095081821377233,0.016081221596065367,0.010217906337860032,0.01586980777685706
1.0000941640502607,0.09689124580742478,0.02451924629926129,0.05094334186944231,0.013697825213104446,0.05065841419475868
1.0001412460753911,0.14848755125694818,0.030034084711291927,0.08456655871201842,0.022090430685248318,0.08412243506970893
1.0001883281005215,0.19664060203551523,0.035597207631909655,0.10917973127593883,0.034727790717937725,0.10852424035559605
1.0002354101256519,0.23592916525893703,0.0411808782336244,0.12678225514793529,0.04598072180510618,0.1259693771436293
1.0002824921507822,0.26363730657080775,0.04562715208707783,0.13936052532630389,0.053305747149867466,0.138466276113131
1.0003295741759126,0.2780607972143743,0.04834580921710307,0.14663287491158739,0.056992835521139165,0.14570624835667806
1.000376656201043,0.27778293516045677,0.04856551482363503,0.14742341655727248,0.059741244366031974,0.1464668139299694
1.0004237382261734,0.2619162710265795,0.04651965225707392,0.139633635428265,0.060305590667064736,0.13865482271627766
1.0004708202513037,0.23107843684954268,0.04233458690711656,0.12167319492364326,0.05836127250486047,0.1206834731757911
1.0005179022764341,0.1884924826566669,0.036840505253230245,0.09811663264576473,0.05527437724455448,0.09712911635831487
1.0005649843015645,0.1401213853463462,0.03269271173624359,0.07552593926328457,0.0518567469923181,0.07455843655362326
1.0006120663266949,0.09311329616242185,0.03005352358213455,0.056936636782797936,0.04753032336810939,0.056020513379424625
1.0006591483518252,0.05338098213176131,0.029915214140893775,0.04656239048066332,0.04154592599267536,0.045745169471734154
1.0007062303769556,0.024158292773911582,0.029592433463363238,0.0379052596807291,0.03348793715356924,0.03723480727284311
1.000753312402086,0.006389706849983347,0.029984340281864065,0.024925530867037873,0.024485334356300514,0.024427363850304196
1.0008003944272164,4.4957735270936574e-05,0.030845051531080695,0.013623927240606612,0.017402754651883064,0.013267291333766983
1.0008474764523467,0.004476680458159687,0.03041694957973298,0.005279248516488982,0.015678435119688604,0.004958136889015526
1.000894558477477,0.016631009383087918,0.03517931241323348,0.00604487589630294,0.01872947431544331,0.005661600075268907
1.0009416405026075,0.030279800796216314,0.04262610922723766,0.01614856324889533,0.025937546695437474,0.015620209395378426
1.0009887225277379,0.04019506929021177,0.051174334296101465,0.031662352407458065,0.037257921412170714,0.030916362617326058
1.0010358045528682,0.045271217739530065,0.05713832469554139,0.049643587368788454,0.05139097013489364,0.04865020104174979
1.0010828865779986,0.04665854735345898,0.06354175656221997,0.06394396252727896,0.06463523635552015,0.06274745373869117
1.001129968603129,0.04557434040645729,0.06806123593936472,0.06951556918541625,0.07516325253324374,0.06816680298544235
1.0011770506282593,0.04281463251624272,0.06974181758442433,0.06676401531502141,0.08033871160014769,0.06532813058964758
1.0012241326533897,0.03911406922799136,0.06742489208344858,0.05756222886158259,0.08009738034199493,0.05609979531880723
1.00127121467852,0.035734840091298535,0.06176498648678749,0.04469056838221148,0.07665591382881874,0.04324513725173378
1.0013182967036505,0.034632288517627896,0.05675272143289441,0.03354469161607427,0.07316232462469525,0.03212991961405338
1.0013653787287808,0.03686446430802818,0.05298990631222724,0.03235087082016887,0.07076627173817458,0.03097667380588013
1.0014124607539112,0.040499198873267514,0.05201403282377394,0.04235422606047071,0.07048766927424442,0.04100946565509911
1.0014595427790416,0.04245011553894062,0.053380388596522305,0.05148956578485458,0.07241688772658147,0.05013489323099556
1.001506624804172,0.04142424671447975,0.05390632544298212,0.057489670337512934,0.07119086319186237,0.05617091102720565
1.0015537068293023,0.03772147907862947,0.05422003913085935,0.05838903434484734,0.06529838511981811,0.057169771250317844
1.0016007888544327,0.032149333674356434,0.051076692373866764,0.05286952532393206,0.0556020934689718,0.05180600677814325
1.001647870879563,0.025799799790141527,0.04432727650154517,0.040386054375886556,0.04227753574240344,0.039550406714256324
1.0016949529046935,0.020580986012262138,0.03516323679130273,0.02276083148008517,0.028047578969073023,0.02219165140877679
1.0017420349298238,0.01993155776046648,0.030756811298001587,0.008396000375120035,0.018157527407385268,0.008024277041003624
1.0017891169549542,0.027489951613850306,0.030092362495243476,0.00883020356959996,0.01738905459479893,0.008474065766880843
1.0018361989800846,0.042074300128446054,0.030902896892520612,0.022145335055818467,0.022067284987500612,0.021695027776743706
1.001883281005215,0.05845891480384451,0.03689192331021866,0.04104344236602053,0.03165078620112777,0.04040942463467762
1.0019303630303453,0.07582159493280267,0.0414440452319875,0.05832937685591873,0.04339217157935723,0.057488257932128646
1.0019774450554757,0.09824195100672209,0.042395346013584814,0.07041397317164165,0.056455336090316624,0.06936331701659697
1.002024527080606,0.1303669711588208,0.038401707314056725,0.07896421651578898,0.0643660866762793,0.0778039459480245
1.0020716091057364,0.17464242099810953,0.03410604193832988,0.08832693698111686,0.0692652504571256,0.08711603325155574
1.0021186911308668,0.22917237164395338,0.03426359261539356,0.11355266104308831,0.07300537638856729,0.11236069537757952
1.0021657731559972,0.2864808872447173,0.0378556614309784,0.14880372324738836,0.07727864796386695,0.1476765958380296
1.0022128551811276,0.335488571803669,0.041499446245344816,0.17945522269565434,0.08149726161913087,0.1784060387519615
1.002259937206258,0.3667004160945303,0.04340394133792376,0.20044309409803335,0.08411733898565685,0.19946333873486996
1.0023070192313883,0.37630521047742305,0.04333613082334329,0.20989430295355302,0.0844707039558902,0.20895123371438737
1.0023541012565187,0.3658732131217113,0.041863689409169264,0.20800353236518512,0.08274204388621778,0.20705727860913442
1.002401183281649,0.3393357840705059,0.04078111187802134,0.19716291122807472,0.0796662176424686,0.1961870576652277
1.0024482653067794,0.30043566038503033,0.03935511121795783,0.1783931936762516,0.07218580178320234,0.17739846759532013
1.0024953473319098,0.25183659939415354,0.03608657021205131,0.15384153094853617,0.05890169691125266,0.15290701939545612
1.0025424293570402,0.1956066522565673,0.02989269720609263,0.12081929242955049,0.041695632077694486,0.12006307901750472
1.0025895113821706,0.13475970805500284,0.024661356983601328,0.07564140824241966,0.020428820348098564,0.07522707281731483
1.002636593407301,0.07582916802294695,0.02176860789305159,0.025728531183742454,0.002861559626162438,0.02566479715518779
1.0026836754324313,0.03145358980808763,0.018426771087826536,-0.0040036080406334615,0.0016567813074915034,-0.0040366572682008425
1.0027307574575617,0.01779891286180085,0.018371099137383086,-0.006351274616742859,0.017583180006452644,-0.006710543133126169
1.002777839482692,0.04358985242398123,0.020967762966420837,0.006591376950054447,0.03862884285749998,0.005804402506671845
1.0028249215078224,0.1037077589167159,0.03299095332713535,0.04281328660270074,0.05607297470434394,0.04172623871040764
1.0028720035329528,0.18101238562213362,0.04883154673577898,0.0979436666785688,0.06345193632193823,0.09683745624326093
1.0029190855580832,0.25636899888384335,0.06115758416837769,0.15380629462607742,0.06631396593031762,0.15279466295351238
1.0029661675832136,0.31832235074100634,0.06635495404158312,0.19704252226634572,0.06835613063621222,0.1961262150024855
1.003013249608344,0.36361141655314383,0.07037187089918852,0.228525784613192,0.06817167260637193,0.22769582387042742
1.0030603316334743,0.39341420767750745,0.07141891468808342,0.24979870354304085,0.0655261788925636,0.2490346181487542
1.0031074136586047,0.4102870696014962,0.0701979784995733,0.26258314989231946,0.06314258171906534,0.26185813936045826
1.003154495683735,0.41662904201390033,0.0679667093931324,0.266777273312063,0.059961827305463,0.266072136549384
1.0032015777088654,0.41405085665469693,0.06457481919764947,0.26326150551395927,0.055747853520531215,0.2625663883042118
1.0032486597339958,0.4030953535584088,0.05999934737698571,0.251751202986526,0.05036929133283151,0.2510664257199626
1.0032957417591262,0.38301151602067063,0.0542086100186054,0.2324239377319079,0.0439483247100211,0.23176266834107248
1.0033428237842565,0.3514583105172215,0.046939869993530135,0.2047530276495091,0.03643819520239061,0.2041429446848853
1.003389905809387,0.3042863356687068,0.03793557444273373,0.16911475512504195,0.028172789401849394,0.16859372435757589
1.0034369878345173,0.2364892670841809,0.027904684367639977,0.12615890065588273,0.019310961583437144,0.12577046099077768
1.0034840698596477,0.14805992805189566,0.018118541447046613,0.07745804013496241,0.010392008456750383,0.077235467632821
1.003531151884778,0.05937981673678241,0.012275446523739847,0.035632586371168055,0.0037987505145683415,0.03554786184898456
1.0035782339099084,0.016571701488668728,0.01303571922443346,0.012038086514572617,0.0019289977395098427,0.011996151512609245
1.0036253159350388,0.04141534161646615,0.02249963906524807,0.014399178728297872,0.008599641565662001,0.014220882045364395
1.0036723979601692,0.0978579156313711,0.03802642385783869,0.03595348541122598,0.02374655891531923,0.03547126874964625
1.0037194799852995,0.14599333246590304,0.05793531013550038,0.06503465797160808,0.038693205500445305,0.06428271748070019
1.00376656201043,0.17300879075255565,0.0731176364080761,0.0922030709843016,0.05122050312004775,0.09126845558972112
1.0038136440355603,0.18229222765708752,0.0831816394505383,0.11374971918924169,0.05885684224443267,0.11273859263260815
1.0038607260606907,0.18262972424027749,0.0874595744739143,0.12736778710133306,0.06274259519381037,0.12633420360601558
1.003907808085821,0.18292620727983336,0.09089386371497853,0.13485525602086357,0.06513293492016206,0.1338104465451126
1.0039548901109514,0.18798821740501145,0.09306208993455334,0.13913083302593265,0.06796735607644892,0.13806530735253333
1.0040019721360818,0.19658928748535154,0.09106967042415602,0.1397247738744464,0.06956169218544421,0.13864400505122254
1.0040490541612122,0.20361099360789395,0.08484055208133288,0.1356935801867525,0.07114936811257336,0.13458519369640284
1.0040961361863425,0.20356945018764083,0.07597670481533812,0.1287855413388881,0.06940326794387147,0.12767737701676496
1.004143218211473,0.19261735903368254,0.06749865269964432,0.11776025800915435,0.06756605874144618,0.1166454690970599
1.0041903002366033,0.1692114287165738,0.0566875331577656,0.09836742477706704,0.06235245990060632,0.09727764034332802
1.0042373822617336,0.13469585530973552,0.04467208471864454,0.07519967777083232,0.05270549464831138,0.07421777932078245
1.004284464286864,0.094068350002802,0.03202401414706228,0.051842634052145065,0.04147588510987869,0.05103078254299845
1.0043315463119944,0.0558705414627791,0.020331355290335605,0.03082107495389939,0.02865335517332888,0.0302418884511859
1.0043786283371248,0.029785725493520713,0.012934799243298713,0.019809015244991575,0.016321103331425276,0.019473887756445273
1.0044257103622551,0.022326134922130727,0.009374153566669235,0.01684685304795892,0.00697645570255819,0.016701126355429793
1.0044727923873855,0.03362727707623793,0.009380028551628651,0.01768087969631584,0.0024321743681434355,0.017627519771832877
1.004519874412516,0.057935866130881315,0.012429040447941225,0.0238553638180855,0.0028048934394211845,0.023793159059250654
1.0045669564376463,0.08691312585069338,0.018160175002902113,0.038233159934289905,0.009259431290163208,0.038037858342613716
1.0046140384627766,0.11302745450084833,0.02491133148185973,0.05542672474865837,0.021689850473009895,0.05498652573030794
1.004661120487907,0.13143773576861661,0.03196725556480543,0.07126698378066398,0.03635455013933906,0.07056069981309185
1.0047082025130374,0.140315951549541,0.03866690261204934,0.0817840112464661,0.050778054193813135,0.08084246899084559
1.0047552845381678,0.14016084842095028,0.04062039272913916,0.0846685751900148,0.06268808153956654,0.08354572872795064
1.0048023665632981,0.13271042804166153,0.03985370091346539,0.08028160564993014,0.07157502287594412,0.0790164581621006
1.0048494485884285,0.1199532079956697,0.0361059894193905,0.06958311394397716,0.07765455729199719,0.06819680379399842
1.0048965306135589,0.10352759540252561,0.03431646587980577,0.05738407400153901,0.08058447148248242,0.055913307842453804
1.0049436126386893,0.08458770500586026,0.03147120527117852,0.04469505929439128,0.07842083838042949,0.04321948173608516
1.0049906946638196,0.06411017510052013,0.02886478986576807,0.03435472552873721,0.07239550642628008,0.032955926175601315
1.00503777668895,0.043500849939608656,0.02442715923001536,0.022887706523455283,0.06499524426363514,0.021600382090460286
1.0050848587140804,0.02497562650004661,0.01935824418521722,0.013888116903115118,0.05652714875945681,0.012749902819876405
1.0051319407392107,0.011013597455985432,0.014388237966460625,0.011624969459267675,0.046889656813684094,0.010675548034717429
1.0051790227643411,0.003334338693202587,0.011933512247226856,0.009001101837417943,0.03455117774791286,0.008297668836573438
1.0052261047894715,0.0027948227754708652,0.008049431388115001,0.005716764128480125,0.020195288887551472,0.005303668161324558
1.0052731868146019,0.010164673003053454,0.00646331665445189,0.005314070387151807,0.008427286652700285,0.005140807661048789
1.0053202688397322,0.026566180290056158,0.006746022380689962,0.008193549268036414,0.001086630373516607,0.00816962093539031
1.0053673508648626,0.05291846997433676,0.0077823787191002355,0.011498759854167706,-0.002611311210216981,0.011549786419162596
1.005414432889993,0.08828034555015178,0.00810395800158157,0.017065936640710815,-0.002878254169125877,0.0171212751101917
1.0054615149151234,0.12763762777320273,0.009839492187621804,0.025647230237824777,0.0007336550537325718,0.02562688831777499
1.0055085969402537,0.16155770115500132,0.012576083967030555,0.038076850744054896,0.009058965176190916,0.037885593140798764
1.0055556789653841,0.18078890709766565,0.016295415638366718,0.05135766337998839,0.01982504537807502,0.05095309982696032
1.0056027609905145,0.18307418566708303,0.017789287816174327,0.06056084021799014,0.03103931962436673,0.05994568783607555
1.0056498430156449,0.1741533504439713,0.02040060687589209,0.06655908741414072,0.041499907038938744,0.06575850746039197
1.0056969250407752,0.16242605985016223,0.02142709942957307,0.07063087442771013,0.05026541878223659,0.06968346060654579
1.0057440070659056,0.15418810481596457,0.019945888326257554,0.07107575192890922,0.05545956087484579,0.07004251224093988
1.005791089091036,0.1523552110015489,0.016272680554427012,0.0660360559428213,0.05710537838573536,0.06496754531206009
1.0058381711161664,0.15691036178882456,0.014404058694232513,0.06130313889977103,0.05644173642459085,0.06023816836044074
1.0058852531412967,0.16538784679386007,0.014100787117346091,0.06307528196508604,0.05334635230341545,0.0620656191165709
1.005932335166427,0.17322460684996496,0.013702870343090054,0.06323184659303546,0.048067472809393746,0.06231322455486461
1.0059794171915575,0.17475929729964576,0.011257025715477096,0.05880087400333982,0.04085987136178407,0.05800556613690189
1.0060264992166879,0.16548577922015562,0.008250732094446529,0.05204155960234529,0.03437767056172253,0.05136076331717886
1.0060735812418182,0.1445721481217929,0.005543372276588767,0.04234591607178599,0.027593492529957964,0.04179016055103546
1.0061206632669486,0.11538472372115638,0.0025974805446266837,0.03266210113426135,0.021661777408056245,0.032220538019645056
1.006167745292079,0.08342022676517998,0.0019235579047610185,0.0259645785337829,0.016864251018585574,0.025618257000365213
1.0062148273172093,0.053714935068683495,0.0035162458366957655,0.01794830890199036,0.014212947263998977,0.017655817668126322
1.0062619093423397,0.029620632829972474,0.0061625669593269065,0.006428025048282717,0.013565822580279017,0.006149837216268086
1.00630899136747,0.012907514843990737,0.009057983285951875,-0.004503164505502606,0.01331734907861803,-0.004774981981447589
1.0063560733926005,0.004292560353454192,0.013606538944845556,-0.010519166817943732,0.014282234823139667,-0.010810096651085576
1.0064031554177308,0.0038095921685766332,0.018793964272693163,-0.007972360122875525,0.015476110484011023,-0.008288146136800944
1.0064502374428612,0.010924293923755681,0.026084583043813604,0.0013341291502741227,0.019012295451616777,0.0009452134984627655
1.0064973194679916,0.02453035587728399,0.03350278925409694,0.011333716656649779,0.024421904849913023,0.010835233367817826
1.006544401493122,0.042966387475684646,0.03937846171776427,0.020787738978896356,0.029096566629782224,0.02019728079889933
1.0065914835182523,0.06411092062196938,0.04392601339658388,0.03329944681240632,0.03342811300711294,0.032628202546027836
1.0066385655433827,0.08556714248621351,0.049403432829451484,0.049462130528264495,0.037415970482957306,0.04872344022488703
1.006685647568513,0.10493697207975199,0.05176497557574305,0.06485229624100503,0.0402288094547756,0.06407286934089738
1.0067327295936435,0.12014720761669652,0.05158311027503498,0.07640706666955516,0.04131588140986193,0.07561775958567218
1.0067798116187738,0.12974860817624662,0.047927472127983144,0.08294186479002422,0.04006167487067866,0.0821792445469758
1.0068268936439042,0.1331160769266914,0.04376447212009405,0.08436945777741765,0.03653560759750431,0.08366813383396483
1.0068739756690346,0.13051634907150206,0.03912517656947669,0.08386978816652868,0.032343556128787414,0.08324109348082837
1.006921057694165,0.12301693370584733,0.033364412925703774,0.08185258015702256,0.025475431979903287,0.08134601357170733
1.0069681397192953,0.11219272060745543,0.026100678635536678,0.07585112215539112,0.01820783026255607,0.07547862720247783
1.0070152217444257,0.09964098937742749,0.01802946595823062,0.06985230351433948,0.011701927827465137,0.06960494336868146
1.007062303769556,0.08648287672211809,0.011523713332487355,0.06302251331950957,0.007153602185321205,0.06286556255056576
1.0071093857946865,0.07315337862299943,0.006163109860175462,0.053521194673379444,0.004266463793713944,0.053423641807373384
1.0071564678198168,0.05967551136841471,0.0006472520238668997,0.042771215350936226,0.001899482567279907,0.04272362518373045
1.0072035498449472,0.046352747241279996,-0.00285140884464153,0.029687677967592516,0.0016659046021265831,0.029647492556828192
1.0072506318700776,0.03458526276589038,-0.004814919615192557,0.01916866027493343,0.0030196511656080563,0.019103021018811023
1.007297713895208,0.02727830692374265,-0.004717072714204954,0.01473006896934623,0.004392304989343845,0.014637335127601136
1.0073447959203383,0.0280866607277734,-0.0029410482969883995,0.01711698325886342,0.007210464112275026,0.016966453194825575
1.0073918779454687,0.03925806445151868,0.002233589022305402,0.028584290137595406,0.012863207956344493,0.028317920199169098
1.007438959970599,0.059562255279517966,0.00973913740045071,0.043832242766228824,0.019136274583929424,0.04344080651010543
1.0074860419957294,0.08449757331606145,0.01650365052619323,0.058037587268334905,0.02657059947866953,0.0575050646428415
1.0075331240208598,0.10858230355013457,0.021994662984118618,0.06858033205585247,0.032386470079125394,0.06794384042775345
1.0075802060459902,0.12742598805780986,0.02540325520506418,0.07621925524513734,0.03631762874801597,0.07551663201442214
1.0076272880711206,0.13840784538629322,0.027800711438547367,0.07904744927672683,0.03880285441535845,0.07830344869334022
1.007674370096251,0.14057521646913557,0.0277267913626829,0.0769603579802706,0.039867283998550045,0.07619643850462446
1.0077214521213813,0.1345761316442056,0.024888144456954125,0.07084930100861353,0.03872402328888533,0.07010084696295546
1.0077685341465117,0.12269802495893224,0.02111315071108864,0.062425783036096825,0.033566998373397626,0.061764958846958685
