freq,gls,usurper,pdc_unbiased,shape_periodogram,shift_periodogram
1.0,0.02176245538732735,0.014931452287464366,-0.007335655112181927,-0.003930428437192866,-0.007210344761563199
1.0000470820251304,0.05134779247241603,0.02405707826756602,0.016081221596065367,0.0021215257210168577,0.016007784409038234
1.0000941640502607,0.09689124580742478,0.03153512886524685,0.05094334186944231,0.013280467144715511,0.05051323245869584
1.0001412460753911,0.14848755125694818,0.04009061243557696,0.08456655871201842,0.02354283070189205,0.08382714636109005
1.0001883281005215,0.19664060203551523,0.046310258797213975,0.10917973127593883,0.0320184950780332,0.10820760328210234
1.0002354101256519,0.23592916525893703,0.049172696266865386,0.12678225514793529,0.037809184574511906,0.12566645123551634
1.0002824921507822,0.26363730657080775,0.050102121379532585,0.13936052532630389,0.040224490915519134,0.13819332939970833
1.0003295741759126,0.2780607972143743,0.050747496488501145,0.14663287491158739,0.041903369057006506,0.14543114961500853
1.000376656201043,0.27778293516045677,0.05129256794877647,0.14742341655727248,0.0430010897357279,0.14619613683538316
1.0004237382261734,0.2619162710265795,0.05019488784812995,0.139633635428265,0.04356527536898617,0.13838500548768887
1.0004708202513037,0.23107843684954268,0.046666464133507835,0.12167319492364326,0.04277918735654819,0.1204270007147155
1.0005179022764341,0.1884924826566669,0.041616848298013216,0.09811663264576473,0.040670347807329456,0.09690641972692503
1.0005649843015645,0.1401213853463462,0.03762724816004734,0.07552593926328457,0.0376857468627268,0.07438388978366782
1.0006120663266949,0.09311329616242185,0.034980265810005996,0.056936636782797936,0.03300221849217252,0.05592147815929189
1.0006591483518252,0.05338098213176131,0.035202318692399176,0.04656239048066332,0.0260352797890475,0.04575097245927857
1.0007062303769556,0.024158292773911582,0.035037232163044406,0.0379052596807291,0.01713183141552881,0.03736255340712937
1.000753312402086,0.006389706849983347,0.033503412490058726,0.024925530867037873,0.007649263296169209,0.02467735758020938
1.0008003944272164,4.4957735270936574e-05,0.03453984868864023,0.013623927240606612,-0.00022679900131355532,0.0136244094186377
1.0008474764523467,0.004476680458159687,0.03168921645276953,0.005279248516488982,-0.0025778116658312857,0.005356641923530736
1.000894558477477,0.016631009383087918,0.03166395857058198,0.00604487589630294,-0.000709632648562994,0.006063970548206206
1.0009416405026075,0.030279800796216314,0.03670062281797546,0.01614856324889533,0.004777288258554376,0.01599293901876529
1.0009887225277379,0.04019506929021177,0.04539688842202295,0.031662352407458065,0.013833751241227774,0.031221899264050963
1.0010358045528682,0.045271217739530065,0.053632060283452146,0.049643587368788454,0.02429678840763962,0.048883677663121565
1.0010828865779986,0.04665854735345898,0.054752884530557426,0.06394396252727896,0.0351485617219499,0.06286893897095992
1.001129968603129,0.04557434040645729,0.05352055093784879,0.06951556918541625,0.04451482502599018,0.06817933956508244
1.0011770506282593,0.04281463251624272,0.048109476908447954,0.06676401531502141,0.05098006907859585,0.0652463799549202
1.0012241326533897,0.03911406922799136,0.04149108837473168,0.05756222886158259,0.055291113284758185,0.055914055764532414
1.00127121467852,0.035734840091298535,0.03521470313517577,0.04469056838221148,0.057712404092095035,0.042956556060783635
1.0013182967036505,0.034632288517627896,0.02994901859921674,0.03354469161607427,0.05953634629180245,0.031742052244464525
1.0013653787287808,0.03686446430802818,0.032091928895041956,0.03235087082016887,0.06009105041790827,0.030530289780385828
1.0014124607539112,0.040499198873267514,0.03809764751043071,0.04235422606047071,0.06010142356881819,0.040548629861758785
1.0014595427790416,0.04245011553894062,0.04273687260400017,0.05148956578485458,0.05806208403354529,0.04975549210645787
1.001506624804172,0.04142424671447975,0.045066290617036354,0.057489670337512934,0.052419233278318246,0.05592150481577673
1.0015537068293023,0.03772147907862947,0.04433152533550119,0.05838903434484734,0.04489358775746816,0.057033540972233766
1.0016007888544327,0.032149333674356434,0.04261048621193182,0.05286952532393206,0.03446117702274732,0.051810903067451695
1.001647870879563,0.025799799790141527,0.03925012412412815,0.040386054375886556,0.022126767367056606,0.03969205689344576
1.0016949529046935,0.020580986012262138,0.03365089290035661,0.02276083148008517,0.009286230127350236,0.022463196753601804
1.0017420349298238,0.01993155776046648,0.029387159765438882,0.008396000375120035,-0.00015430710162022302,0.008396748347797394
1.0017891169549542,0.027489951613850306,0.028477360102049386,0.00883020356959996,-0.0016079932891303558,0.008875815616625952
1.0018361989800846,0.042074300128446054,0.02804810690123499,0.022145335055818467,0.0029834047302371106,0.02204237090005379
1.001883281005215,0.05845891480384451,0.031561307386695076,0.04104344236602053,0.011749150431906188,0.04066321701342001
1.0019303630303453,0.07582159493280267,0.03760673337266445,0.05832937685591873,0.02157372087129813,0.05764935471548354
1.0019774450554757,0.09824195100672209,0.044679805881477956,0.07041397317164165,0.030236996689150097,0.06948137889017975
1.002024527080606,0.1303669711588208,0.04579873421301474,0.07896421651578898,0.03790796602733166,0.07781768460836085
1.0020716091057364,0.17464242099810953,0.04206199190021901,0.08832693698111686,0.04336076743279557,0.08703724751779512
1.0021186911308668,0.22917237164395338,0.04399777499623416,0.11355266104308831,0.04637333032024922,0.11220767859474275
1.0021657731559972,0.2864808872447173,0.049484047800173944,0.14880372324738836,0.049086487262119914,0.14743561285283036
1.0022128551811276,0.335488571803669,0.05486062859061697,0.17945522269565434,0.050910844887383136,0.17809198636599155
1.002259937206258,0.3667004160945303,0.05836463446943023,0.20044309409803335,0.05148274398244963,0.19910257500978065
1.0023070192313883,0.37630521047742305,0.05954124694170418,0.20989430295355302,0.05045493739752437,0.20858922608795
1.0023541012565187,0.3658732131217113,0.05811762887650258,0.20800353236518512,0.047712314768015615,0.206748365292249
1.002401183281649,0.3393357840705059,0.053874908333116,0.19716291122807472,0.04299482851288456,0.19598959819888537
1.0024482653067794,0.30043566038503033,0.047961977421960844,0.1783931936762516,0.03567851088900133,0.17736547884495749
1.0024953473319098,0.25183659939415354,0.04172069144531052,0.15384153094853617,0.0258002996575161,0.15304729462440034
1.0025424293570402,0.1956066522565673,0.03411702942389241,0.12081929242955049,0.01605838084669472,0.12029032213411796
1.0025895113821706,0.13475970805500284,0.022399884498684335,0.07564140824241966,0.0068635103230427355,0.07539605994441978
1.002636593407301,0.07582916802294695,0.010538822653142719,0.025728531183742454,0.00039910093837216187,0.025703814005104957
1.0026836754324313,0.03145358980808763,0.011022554108081065,-0.0040036080406334615,-0.00017080777459334913,-0.003996388524256615
1.0027307574575617,0.01779891286180085,0.022857343271712877,-0.006351274616742859,0.008722818815915287,-0.006618878669914278
1.002777839482692,0.04358985242398123,0.02710021638155254,0.006591376950054447,0.02315925873568047,0.005871849587251521
1.0028249215078224,0.1037077589167159,0.03028465137934376,0.04281328660270074,0.034831949560958975,0.041741072323479136
1.0028720035329528,0.18101238562213362,0.037274823059308675,0.0979436666785688,0.042945627852537416,0.09667284947028681
1.0029190855580832,0.25636899888384335,0.05091943600797698,0.15380629462607742,0.04823877081266454,0.15246421666349225
1.0029661675832136,0.31832235074100634,0.06536541614602162,0.19704252226634572,0.04690607691738455,0.19578778144035197
1.003013249608344,0.36361141655314383,0.07178307864526123,0.228525784613192,0.04531571690227854,0.22734620223673827
1.0030603316334743,0.39341420767750745,0.07608054238783647,0.24979870354304085,0.04450020064884557,0.24866401498784177
1.0031074136586047,0.4102870696014962,0.07718454876696941,0.26258314989231946,0.04288103264892199,0.26149472012734537
1.003154495683735,0.41662904201390033,0.07690247222457511,0.266777273312063,0.04089027115965094,0.2657292871219478
1.0032015777088654,0.41405085665469693,0.07530576423254773,0.26326150551395927,0.037956957335653026,0.2622626152216069
1.0032486597339958,0.4030953535584088,0.07228143603298878,0.251751202986526,0.034016612969112604,0.2508175134025631
1.0032957417591262,0.38301151602067063,0.06782084285791448,0.2324239377319079,0.029039854968013604,0.2315820395462998
1.0033428237842565,0.3514583105172215,0.0615071206506748,0.2047530276495091,0.02293689663921158,0.20404315929697203
1.003389905809387,0.3042863356687068,0.053069183220190316,0.16911475512504195,0.015817193251080112,0.1685867299126282
1.0034369878345173,0.2364892670841809,0.04309296528261555,0.12615890065588273,0.008115033228129034,0.12585768855667065
1.0034840698596477,0.14805992805189566,0.03179889818405425,0.07745804013496241,0.0005353448970657262,0.07740459518485927
1.003531151884778,0.05937981673678241,0.02321081162216181,0.035632586371168055,-0.0053902239559060015,0.0357827864913935
1.0035782339099084,0.016571701488668728,0.019638159127252103,0.012038086514572617,-0.007599445364484292,0.012268198641208867
1.0036253159350388,0.04141534161646615,0.023682331383208084,0.014399178728297872,-0.003665906065692153,0.014505970051624503
1.0036723979601692,0.0978579156313711,0.03144087605362531,0.03595348541122598,0.003004261390428804,0.03584343035016915
1.0037194799852995,0.14599333246590304,0.040107098249564606,0.06503465797160808,0.01247143890027625,0.06462433297853147
1.00376656201043,0.17300879075255565,0.04663998772878589,0.0922030709843016,0.022649289258384855,0.09148909530363002
1.0038136440355603,0.18229222765708752,0.05181856279156675,0.11374971918924169,0.030502619947145003,0.1128200751193454
1.0038607260606907,0.18262972424027749,0.05564745380229581,0.12736778710133306,0.03918107700254657,0.1262173934819975
1.003907808085821,0.18292620727983336,0.05761191847388121,0.13485525602086357,0.0482589357399268,0.13348842465709673
1.0039548901109514,0.18798821740501145,0.05888196591953724,0.13913083302593265,0.05362415407357734,0.1376445511331801
1.0040019721360818,0.19658928748535154,0.05875514650613302,0.1397247738744464,0.05608657774103825,0.13818353036287012
1.0040490541612122,0.20361099360789395,0.061189290048907184,0.1356935801867525,0.055746879228620094,0.13415306529602705
1.0040961361863425,0.20356945018764083,0.06102185278473232,0.1287855413388881,0.05442616118815239,0.12726417891796687
1.004143218211473,0.19261735903368254,0.05491275506139018,0.11776025800915435,0.05066273889369185,0.11631326416174308
1.0041903002366033,0.1692114287165738,0.04681393013506449,0.09836742477706704,0.04556105713885108,0.09702808630113277
1.0042373822617336,0.13469585530973552,0.03741426740178525,0.07519967777083232,0.038973098994593565,0.07402149639915247
1.004284464286864,0.094068350002802,0.029131104725173888,0.051842634052145065,0.029543402662308177,0.050927681123375326
1.0043315463119944,0.0558705414627791,0.022500441751469202,0.03082107495389939,0.01843063776911051,0.030240823792096996
1.0043786283371248,0.029785725493520713,0.018559700448722433,0.019809015244991575,0.0073634374438407415,0.01957188157957941
1.0044257103622551,0.022326134922130727,0.017563314714519072,0.01684685304795892,-0.0014867575677057043,0.01688484859036909
1.0044727923873855,0.03362727707623793,0.018629742512678123,0.01768087969631584,-0.006258352276111772,0.017866661054591216
1.004519874412516,0.057935866130881315,0.02146387850114511,0.0238553638180855,-0.0069967412920372415,0.0240612165468824
1.0045669564376463,0.08691312585069338,0.026743270182242828,0.038233159934289905,-0.0030584816320286556,0.038309598179917415
1.0046140384627766,0.11302745450084833,0.03330874647751791,0.05542672474865837,0.004984065978330419,0.05524704322581014
1.004661120487907,0.13143773576861661,0.03816868412775201,0.07126698378066398,0.013969647176883973,0.0708099666907782
1.0047082025130374,0.140315951549541,0.04111547164909651,0.0817840112464661,0.02270793657659139,0.08106873051160822
1.0047552845381678,0.14016084842095028,0.04074988949710673,0.0846685751900148,0.03020527314606132,0.08373962876663152
1.0048023665632981,0.13271042804166153,0.037831302933364265,0.08028160564993014,0.03479291754865105,0.07922255517116532
1.0048494485884285,0.1199532079956697,0.03392660085140526,0.06958311394397716,0.039802628348739266,0.0683785998765135
1.0048965306135589,0.10352759540252561,0.02929398337158095,0.05738407400153901,0.042417316812286235,0.056098241960913356
1.0049436126386893,0.08458770500586026,0.02340190913188964,0.04469505929439128,0.04254521433224314,0.04339769800152458
1.0049906946638196,0.06411017510052013,0.018153366654662387,0.03435472552873721,0.040979658753250346,0.03309773025981882
1.00503777668895,0.043500849939608656,0.013727217068387334,0.022887706523455283,0.03781850102208162,0.02172067891226263
1.0050848587140804,0.02497562650004661,0.010039797422952546,0.013888116903115118,0.032734144125990704,0.012873799570073025
1.0051319407392107,0.011013597455985432,0.008892894848756232,0.011624969459267675,0.026570238811267567,0.010799628080901043
1.0051790227643411,0.003334338693202587,0.007767270270468179,0.009001101837417943,0.019994189017368724,0.008378667209447554
1.0052261047894715,0.0027948227754708652,0.006222785621063196,0.005716764128480125,0.014815905134585144,0.005255295959920934
1.0052731868146019,0.010164673003053454,0.004942373921446705,0.005314070387151807,0.008514593421633456,0.005047743060446068
1.0053202688397322,0.026566180290056158,0.0049640532627072,0.008193549268036414,0.0018325577439070827,0.008132818121808823
1.0053673508648626,0.05291846997433676,0.006241455886309087,0.011498759854167706,-0.0012511075654868663,0.01153202125239017
1.005414432889993,0.08828034555015178,0.01025181508567673,0.017065936640710815,-0.0020041354144665876,0.017119874706730896
1.0054615149151234,0.12763762777320273,0.01456020566719352,0.025647230237824777,-0.0015001865221354418,0.02568140181034917
1.0055085969402537,0.16155770115500132,0.018660269828536635,0.038076850744054896,0.0031731859252289462,0.03796060480681521
1.0055556789653841,0.18078890709766565,0.022202846364483136,0.05135766337998839,0.011258273675207433,0.050988609506648686
1.0056027609905145,0.18307418566708303,0.024355424098736516,0.06056084021799014,0.021025653462102778,0.05989674131060138
1.0056498430156449,0.1741533504439713,0.025267557199512722,0.06655908741414072,0.02767880932827756,0.06569982762423954
1.0056969250407752,0.16242605985016223,0.025099556601607446,0.07063087442771013,0.0327100042134546,0.0696275712374642
1.0057440070659056,0.15418810481596457,0.024227875516539602,0.07107575192890922,0.03480624276916787,0.07001295946364605
1.005791089091036,0.1523552110015489,0.022374768502651722,0.0660360559428213,0.03408636924127221,0.06499211537392106
1.0058381711161664,0.15691036178882456,0.020647324787467138,0.06130313889977103,0.032829166607973484,0.06029403797071252
1.0058852531412967,0.16538784679386007,0.02164403830977503,0.06307528196508604,0.031576545673862436,0.06210274845392283
1.005932335166427,0.17322460684996496,0.020198630241273597,0.06323184659303546,0.02866506503547028,0.06234367390561811
1.0059794171915575,0.17475929729964576,0.018090816627100312,0.05880087400333982,0.02502880003140405,0.05801885195386535
1.0060264992166879,0.16548577922015562,0.016077433308719805,0.05204155960234529,0.020861783194601732,0.051383606217365506
1.0060735812418182,0.1445721481217929,0.014001194928053738,0.04234591607178599,0.015480161050960803,0.04185196788255302
1.0061206632669486,0.11538472372115638,0.012793829454932612,0.03266210113426135,0.008290392918706632,0.032390921685997304
1.006167745292079,0.08342022676517998,0.010455505732362189,0.0259645785337829,0.0017423935059269551,0.025898183220381014
1.0062148273172093,0.053714935068683495,0.009446077949635832,0.01794830890199036,-0.0033227928987986884,0.018042746231101428
1.0062619093423397,0.029620632829972474,0.008093253649812915,0.006428025048282717,-0.006177982038424157,0.006616577300621745
1.00630899136747,0.012907514843990737,0.007594776909472143,-0.004503164505502606,-0.0048650011895935204,-0.0043502327279817754
1.0063560733926005,0.004292560353454192,0.008421784419480001,-0.010519166817943732,-0.001208908346903342,-0.010476646812344026
1.0064031554177308,0.0038095921685766332,0.011077466501995063,-0.007972360122875525,0.004102424259925023,-0.00809576616704452
1.0064502374428612,0.010924293923755681,0.01675026700031009,0.0013341291502741227,0.01413808025851652,0.0008952739520170223
1.0064973194679916,0.02453035587728399,0.022088543083333932,0.011333716656649779,0.02412785350075365,0.010583481016283995
1.006544401493122,0.042966387475684646,0.02613766231655871,0.020787738978896356,0.03365191746873376,0.019746307207343123
1.0065914835182523,0.06411092062196938,0.028734755308183774,0.03329944681240632,0.03860319001803352,0.03211252385695834
1.0066385655433827,0.08556714248621351,0.030860185968129134,0.049462130528264495,0.039045530586400895,0.04826898740075946
1.006685647568513,0.10493697207975199,0.03242472938813357,0.06485229624100503,0.03664747249166325,0.06373479082252921
1.0067327295936435,0.12014720761669652,0.03289134763664514,0.07640706666955516,0.03310941788621475,0.0753940564598373
1.0067798116187738,0.12974860817624662,0.03250938113155925,0.08294186479002422,0.02861110150336167,0.0820576782824275
1.0068268936439042,0.1331160769266914,0.03340471694568685,0.08436945777741765,0.0234612733175791,0.08363239187908916
1.0068739756690346,0.13051634907150206,0.031540384080526576,0.08386978816652868,0.018024844131043046,0.0832902365473501
1.006921057694165,0.12301693370584733,0.026910488114271946,0.08185258015702256,0.013997152030046209,0.0813918119157217
1.0069681397192953,0.11219272060745543,0.021336088257163637,0.07585112215539112,0.010109521828781429,0.07550798436230183
1.0070152217444257,0.09964098937742749,0.017109809054267868,0.06985230351433948,0.006774551433001228,0.06961198794092227
1.007062303769556,0.08648287672211809,0.013871186107122449,0.06302251331950957,0.0039860223532908225,0.06286999811765635
1.0071093857946865,0.07315337862299943,0.012423501241513587,0.053521194673379444,0.0015070131165073638,0.053449083226923634
1.0071564678198168,0.05967551136841471,0.011404657757831999,0.042771215350936226,-0.0006172744281588528,0.04276978641297729
1.0072035498449472,0.046352747241279996,0.008110433075312475,0.029687677967592516,-0.002390566743410875,0.029747519033752105
1.0072506318700776,0.03458526276589038,0.0057833435899033005,0.01916866027493343,-0.00274466238215367,0.019244564451294157
1.007297713895208,0.02727830692374265,0.004551066894665674,0.01473006896934623,-0.0029598270639438567,0.014814784706687364
1.0073447959203383,0.0280866607277734,0.00536340250321479,0.01711698325886342,-0.002662921980078156,0.017191337658530155
1.0073918779454687,0.03925806445151868,0.009450613529011965,0.028584290137595406,-0.0007658715939095034,0.028594284408890797
1.007438959970599,0.059562255279517966,0.014527293443823596,0.043832242766228824,0.0009700102638243773,0.04378124956815028
1.0074860419957294,0.08449757331606145,0.018928006789163974,0.058037587268334905,0.0027581802502179825,0.05792492637964703
1.0075331240208598,0.10858230355013457,0.02190310061220003,0.06858033205585247,0.006078590328329416,0.06836165622069015
1.0075802060459902,0.12742598805780986,0.02427230919715074,0.07621925524513734,0.008705183517383665,0.07591815434665732
1.0076272880711206,0.13840784538629322,0.024621490764878656,0.07904744927672683,0.010705489275588074,0.0786853740113188
1.007674370096251,0.14057521646913557,0.022821131718717427,0.0769603579802706,0.013483894588029195,0.07651616163103944
1.0077214521213813,0.1345761316442056,0.0207579489590311,0.07084930100861353,0.015190051813134292,0.07035609157602267
