freq,gls,usurper,pdc_unbiased,shape_periodogram,shift_periodogram
1.0,0.02176245538732735,0.017485156910688273,-0.007335655112181927,-0.005553843762275676,-0.0072311559413264625
1.0000470820251304,0.05134779247241603,0.02446398214621324,0.016081221596065367,-0.0024598885135236046,0.01612424364229031
1.0000941640502607,0.09689124580742478,0.029476743345622603,0.05094334186944231,0.006796494389175815,0.050809732201253496
1.0001412460753911,0.14848755125694818,0.03357508335504742,0.08456655871201842,0.014015515536576106,0.08430221728145135
1.0001883281005215,0.19664060203551523,0.03746900778328387,0.10917973127593883,0.021895379178119793,0.10878661681973935
1.0002354101256519,0.23592916525893703,0.03989177553023662,0.12678225514793529,0.02788767415548692,0.12630245542566457
1.0002824921507822,0.26363730657080775,0.03917238696748857,0.13936052532630389,0.030194117014258663,0.1388533050111945
1.0003295741759126,0.2780607972143743,0.039565736318516974,0.14663287491158739,0.031523572436022114,0.14611122908309054
1.000376656201043,0.27778293516045677,0.04069881119367394,0.14742341655727248,0.03206918360584208,0.14689487730659284
1.0004237382261734,0.2619162710265795,0.039704370042465124,0.139633635428265,0.0322754905991664,0.13909779811534798
1.0004708202513037,0.23107843684954268,0.03686669854036095,0.12167319492364326,0.0313488656432837,0.12114059151219772
1.0005179022764341,0.1884924826566669,0.0329092152838314,0.09811663264576473,0.029321383269567264,0.0976035604800751
1.0005649843015645,0.1401213853463462,0.030100938667717316,0.07552593926328457,0.026695841698436373,0.07504697767497433
1.0006120663266949,0.09311329616242185,0.02795607444286957,0.056936636782797936,0.022266574837722552,0.05652843042224409
1.0006591483518252,0.05338098213176131,0.02800111943198421,0.04656239048066332,0.016996462283523934,0.04624575323588946
1.0007062303769556,0.024158292773911582,0.0274467566755674,0.0379052596807291,0.01085992366616771,0.037699271545862695
1.000753312402086,0.006389706849983347,0.02671923254663458,0.024925530867037873,0.004028645562029731,0.024846521619744
1.0008003944272164,4.4957735270936574e-05,0.028225901077090672,0.013623927240606612,-0.0021968367100216376,0.01366247006881743
1.0008474764523467,0.004476680458159687,0.027067902450121955,0.005279248516488982,-0.003617035797785979,0.005345674206375182
1.000894558477477,0.016631009383087918,0.029308606115887804,0.00604487589630294,-0.0017290373066635213,0.006076011370295841
1.0009416405026075,0.030279800796216314,0.03577165732462207,0.01614856324889533,0.002857525751263987,0.016092679895947315
1.0009887225277379,0.04019506929021177,0.04437577251121078,0.031662352407458065,0.012696732044098461,0.031423491009808555
1.0010358045528682,0.045271217739530065,0.05143132814345463,0.049643587368788454,0.023739773673244608,0.04920870257053197
1.0010828865779986,0.04665854735345898,0.05214025922932322,0.06394396252727896,0.0348852204031581,0.06332610014980848
1.001129968603129,0.04557434040645729,0.05238336148377289,0.06951556918541625,0.043803698566843706,0.06875998686166881
1.0011770506282593,0.04281463251624272,0.04910202605192059,0.06676401531502141,0.04949860556995354,0.06591792886015643
1.0012241326533897,0.03911406922799136,0.04293405984975065,0.05756222886158259,0.05211306442599839,0.056664030802598214
1.00127121467852,0.035734840091298535,0.0363650681575715,0.04469056838221148,0.05233719516896441,0.04377165609300996
1.0013182967036505,0.034632288517627896,0.030793411411930757,0.03354469161607427,0.05188237115060719,0.032618902477064254
1.0013653787287808,0.03686446430802818,0.030403074961863365,0.03235087082016887,0.05120554733484886,0.03143506511550115
1.0014124607539112,0.040499198873267514,0.03271305671115097,0.04235422606047071,0.0508733972938224,0.04145630532598633
1.0014595427790416,0.04245011553894062,0.03521337467243994,0.05148956578485458,0.04924239165165449,0.0506291855157187
1.001506624804172,0.04142424671447975,0.03567982923293797,0.057489670337512934,0.04397369972966919,0.0567201480928644
1.0015537068293023,0.03772147907862947,0.034750566053969895,0.05838903434484734,0.036996256420336375,0.057733380949836474
1.0016007888544327,0.032149333674356434,0.03381425257231417,0.05286952532393206,0.02732372865601334,0.05237355236647634
1.001647870879563,0.025799799790141527,0.03270579951188532,0.040386054375886556,0.015657601833131543,0.04009332231463523
1.0016949529046935,0.020580986012262138,0.028821568524855564,0.02276083148008517,0.004363633379568428,0.022675970292929514
1.0017420349298238,0.01993155776046648,0.02711873242357469,0.008396000375120035,-0.0039032821082036445,0.008467237719032529
1.0017891169549542,0.027489951613850306,0.027019465154765047,0.00883020356959996,-0.005374167180980344,0.008928797085182896
1.0018361989800846,0.042074300128446054,0.025791657831818176,0.022145335055818467,-0.0004561642830716082,0.022149986995144023
1.001883281005215,0.05845891480384451,0.026991951938179274,0.04104344236602053,0.006964699484616396,0.04090806152879304
1.0019303630303453,0.07582159493280267,0.03315158171223626,0.05832937685591873,0.014533724764076605,0.05805634374192789
1.0019774450554757,0.09824195100672209,0.040170112104126174,0.07041397317164165,0.022825734428200527,0.06999837142321942
1.002024527080606,0.1303669711588208,0.04065033576270012,0.07896421651578898,0.030768752971654496,0.07842027623329055
1.0020716091057364,0.17464242099810953,0.03625361536012071,0.08832693698111686,0.036366423476803,0.08770044471090105
1.0021186911308668,0.22917237164395338,0.0362253533024493,0.11355266104308831,0.03980442101563201,0.11289506691177573
1.0021657731559972,0.2864808872447173,0.039040218618984664,0.14880372324738836,0.04252617924245695,0.1481442550801267
1.0022128551811276,0.335488571803669,0.0422518975066242,0.17945522269565434,0.04442085050971628,0.1788088314787017
1.002259937206258,0.3667004160945303,0.044171637748103836,0.20044309409803335,0.04507948945789046,0.19981578471879322
1.0023070192313883,0.37630521047742305,0.04461421598814593,0.20989430295355302,0.044463161750490234,0.20928394623411437
1.0023541012565187,0.3658732131217113,0.04336567155623649,0.20800353236518512,0.042791916253818604,0.20740551745259853
1.002401183281649,0.3393357840705059,0.04148354096647077,0.19716291122807472,0.039625709092365895,0.19658357431394916
1.0024482653067794,0.30043566038503033,0.03874544954264643,0.1783931936762516,0.03380367255739368,0.17786236612615744
1.0024953473319098,0.25183659939415354,0.03431301612840808,0.15384153094853617,0.024117416530472925,0.15342609848285374
1.0025424293570402,0.1956066522565673,0.027516837132042143,0.12081929242955049,0.013437517815631333,0.12056479474552825
1.0025895113821706,0.13475970805500284,0.019111612321887236,0.07564140824241966,0.0028053047048910433,0.07557692565086556
1.002636593407301,0.07582916802294695,0.011530704794020939,0.025728531183742454,-0.004973754322638995,0.02581686026879577
1.0026836754324313,0.03145358980808763,0.013876234295154563,-0.0040036080406334615,-0.005020644090754774,-0.003909539548390402
1.0027307574575617,0.01779891286180085,0.022583337051517924,-0.006351274616742859,0.004925809401934129,-0.006441909439610704
1.002777839482692,0.04358985242398123,0.021010690134605332,0.006591376950054447,0.019672029143552438,0.0062253956244493515
1.0028249215078224,0.1037077589167159,0.020553515208049773,0.04281328660270074,0.030388087491041438,0.04226142540813099
1.0028720035329528,0.18101238562213362,0.023944830147840657,0.0979436666785688,0.04179423797115439,0.09724438066258358
1.0029190855580832,0.25636899888384335,0.033636124164483416,0.15380629462607742,0.04454931625600503,0.15312884574581515
1.0029661675832136,0.31832235074100634,0.04785255139115458,0.19704252226634572,0.03784830774368888,0.1964812457173126
1.003013249608344,0.36361141655314383,0.053492057505490694,0.228525784613192,0.03496958606955868,0.2280199237469916
1.0030603316334743,0.39341420767750745,0.05641790320817109,0.24979870354304085,0.03302480117122601,0.24932762947602455
1.0031074136586047,0.4102870696014962,0.05677014561316397,0.26258314989231946,0.029754382470456163,0.26215137391819937
1.003154495683735,0.41662904201390033,0.05623038539555437,0.266777273312063,0.02656419178285106,0.26637910241538293
1.0032015777088654,0.41405085665469693,0.054842974013193345,0.26326150551395927,0.022879834226916154,0.2629007964729102
1.0032486597339958,0.4030953535584088,0.052611069000035524,0.251751202986526,0.018544318906016766,0.25143802698408174
1.0032957417591262,0.38301151602067063,0.04945406219903902,0.2324239377319079,0.013737293831547884,0.232171367604624
1.0033428237842565,0.3514583105172215,0.0451786356338821,0.2047530276495091,0.008200071024487563,0.20458254406784654
1.003389905809387,0.3042863356687068,0.03944154828764881,0.16911475512504195,0.0022173045128466317,0.16904720889767522
1.0034369878345173,0.2364892670841809,0.033080496267278776,0.12615890065588273,-0.00371233790199265,0.12620569731745304
1.0034840698596477,0.14805992805189566,0.02638794652484611,0.07745804013496241,-0.008969391631246076,0.07761321623892319
1.003531151884778,0.05937981673678241,0.021923196125936663,0.035632586371168055,-0.011647986597418678,0.0358451896072212
1.0035782339099084,0.016571701488668728,0.0223447738872468,0.012038086514572617,-0.010280449783543557,0.012227910143945423
1.0036253159350388,0.04141534161646615,0.02853518498980592,0.014399178728297872,-0.0030615621070701348,0.014453707046190391
1.0036723979601692,0.0978579156313711,0.035944643008809465,0.03595348541122598,0.0061712442254044176,0.03583333358003679
1.0037194799852995,0.14599333246590304,0.04374046091995761,0.06503465797160808,0.015773618329275447,0.06473979286557416
1.00376656201043,0.17300879075255565,0.04725833917290631,0.0922030709843016,0.0252067122522043,0.09175302703286226
1.0038136440355603,0.18229222765708752,0.0506868574316509,0.11374971918924169,0.03142088617135324,0.11321201587907107
1.0038607260606907,0.18262972424027749,0.05195151094523952,0.12736778710133306,0.03787301341769539,0.12674778700774844
1.003907808085821,0.18292620727983336,0.04952918974801045,0.13485525602086357,0.044997540354892035,0.1341510259916624
1.0039548901109514,0.18798821740501145,0.04852327314138666,0.13913083302593265,0.04737791762020879,0.13840333586607304
1.0040019721360818,0.19658928748535154,0.04830335395363304,0.1397247738744464,0.046799744452113476,0.13900476614043877
1.0040490541612122,0.20361099360789395,0.04803242053326165,0.1356935801867525,0.043520409843713324,0.13500838185559935
1.0040961361863425,0.20356945018764083,0.045739555411210164,0.1287855413388881,0.04029040294629377,0.12813466838577744
1.004143218211473,0.19261735903368254,0.04050741676587873,0.11776025800915435,0.03611508586175843,0.1171573316676014
1.0041903002366033,0.1692114287165738,0.0341264161558837,0.09836742477706704,0.030443009507796524,0.09783712423777138
1.0042373822617336,0.13469585530973552,0.02729637278248335,0.07519967777083232,0.023992635912452546,0.0747654233581371
1.004284464286864,0.094068350002802,0.021176089806208102,0.051842634052145065,0.015778106641549702,0.05154764983362275
1.0043315463119944,0.0558705414627791,0.016680578252695494,0.03082107495389939,0.006847804768325116,0.030689215364289035
1.0043786283371248,0.029785725493520713,0.014545716741248509,0.019809015244991575,-0.0012883272697998332,0.019829562777820647
1.0044257103622551,0.022326134922130727,0.014273175660753102,0.01684685304795892,-0.007809364652400602,0.01698971301769473
1.0044727923873855,0.03362727707623793,0.016426943063870374,0.01768087969631584,-0.011364215167425388,0.017890344903187225
1.004519874412516,0.057935866130881315,0.02009337767886106,0.0238553638180855,-0.011619191104782845,0.02406888910419708
1.0045669564376463,0.08691312585069338,0.025264788486391108,0.038233159934289905,-0.007403017959645921,0.038365055407422154
1.0046140384627766,0.11302745450084833,0.030731209459359168,0.05542672474865837,0.001137287528901452,0.05539612676048431
1.004661120487907,0.13143773576861661,0.03473826268888066,0.07126698378066398,0.011025616729390689,0.07105538929831615
1.0047082025130374,0.140315951549541,0.0368107534798698,0.0817840112464661,0.021238675523645514,0.08139690167084716
1.0047552845381678,0.14016084842095028,0.03609169982646386,0.0846685751900148,0.030596792379834304,0.08412983786462513
1.0048023665632981,0.13271042804166153,0.03297743268826542,0.08028160564993014,0.036940555568483205,0.07964097530761831
1.0048494485884285,0.1199532079956697,0.029586309859424488,0.06958311394397716,0.04323134030491144,0.06883647106477477
1.0048965306135589,0.10352759540252561,0.0249675410363637,0.05738407400153901,0.04719559782710984,0.056563026494657526
1.0049436126386893,0.08458770500586026,0.0190901504449699,0.04469505929439128,0.048365028377997846,0.043841182817947744
1.0049906946638196,0.06411017510052013,0.014446577808604054,0.03435472552873721,0.047261451061082226,0.033508236741671804
1.00503777668895,0.043500849939608656,0.010851425489306218,0.022887706523455283,0.0429426562803088,0.022105634053493275
1.0050848587140804,0.02497562650004661,0.008165335359217556,0.013888116903115118,0.03622209569286937,0.013220533072202043
1.0051319407392107,0.011013597455985432,0.006133168545764047,0.011624969459267675,0.028416624319423624,0.011098749492953676
1.0051790227643411,0.003334338693202587,0.004585307947271682,0.009001101837417943,0.019091364919079003,0.008645898572074989
1.0052261047894715,0.0027948227754708652,0.0014158645696066184,0.005716764128480125,0.011176423317827942,0.0055081514850656614
1.0052731868146019,0.010164673003053454,-0.0016475362625860196,0.005314070387151807,0.004004284516255431,0.005238681584090879
1.0053202688397322,0.026566180290056158,-0.0033416603172845456,0.008193549268036414,-0.004279570190172766,0.008271834717584945
1.0053673508648626,0.05291846997433676,-0.0026250506630257015,0.011498759854167706,-0.00903310275480803,0.011665303753876392
1.005414432889993,0.08828034555015178,0.0019436691600013072,0.017065936640710815,-0.010681810151068208,0.0172626518643766
1.0054615149151234,0.12763762777320273,0.005851916528935032,0.025647230237824777,-0.010345157832077494,0.025836490661322285
1.0055085969402537,0.16155770115500132,0.009311969927572309,0.038076850744054896,-0.006020672922894827,0.03818274978360556
1.0055556789653841,0.18078890709766565,0.012066307115562138,0.05135766337998839,0.002071910498097657,0.05131050101363465
1.0056027609905145,0.18307418566708303,0.013217988138127714,0.06056084021799014,0.011927522836540829,0.060333930203891675
1.0056498430156449,0.1741533504439713,0.013554274278425617,0.06655908741414072,0.01967996199735974,0.06619657951058672
1.0056969250407752,0.16242605985016223,0.012850349469796733,0.07063087442771013,0.02630334522699556,0.07015702547846651
1.0057440070659056,0.15418810481596457,0.011787309937673787,0.07107575192890922,0.030148695435939482,0.07053860155020727
1.005791089091036,0.1523552110015489,0.010233871817072079,0.0660360559428213,0.03159581116554801,0.0654730756740748
1.0058381711161664,0.15691036178882456,0.009525246454792921,0.06130313889977103,0.03309741595894034,0.06071324349763133
1.0058852531412967,0.16538784679386007,0.010441598193930276,0.06307528196508604,0.034128058369464795,0.06246932684390588
1.005932335166427,0.17322460684996496,0.008734589091618623,0.06323184659303546,0.03343795213928808,0.06263729110620436
1.0059794171915575,0.17475929729964576,0.006790589825886619,0.05880087400333982,0.03094273315467583,0.058245678891149816
1.0060264992166879,0.16548577922015562,0.005688648005900551,0.05204155960234529,0.027353195990419184,0.05154485137478421
1.0060735812418182,0.1445721481217929,0.005270209276852069,0.04234591607178599,0.021412168687931204,0.04195081008458628
1.0061206632669486,0.11538472372115638,0.0049297375598942265,0.03266210113426135,0.013811504768367556,0.03240293527570682
1.006167745292079,0.08342022676517998,0.0035309892825820884,0.0259645785337829,0.006372394220007543,0.02584214856632807
1.0062148273172093,0.053714935068683495,0.003197126096156621,0.01794830890199036,2.3239343084197627e-05,0.017944769856057613
1.0062619093423397,0.029620632829972474,0.0031799315030111085,0.006428025048282717,-0.0044438517453601846,0.0065096646261377615
1.00630899136747,0.012907514843990737,0.004498694086698859,-0.004503164505502606,-0.005244659770307277,-0.0044048529361193625
1.0063560733926005,0.004292560353454192,0.0059881617700224005,-0.010519166817943732,-0.003821912199030964,-0.010446313485889048
1.0064031554177308,0.0038095921685766332,0.009345226065023426,-0.007972360122875525,-0.0016883525470056677,-0.007939576333038618
1.0064502374428612,0.010924293923755681,0.015610777701506528,0.0013341291502741227,0.0050707801843065834,0.001239554622505595
1.0064973194679916,0.02453035587728399,0.020333753092698432,0.011333716656649779,0.013465491808313804,0.01108223346605176
1.006544401493122,0.042966387475684646,0.023698976709869965,0.020787738978896356,0.02209605211859923,0.02037820073689608
1.0065914835182523,0.06411092062196938,0.02403514297292417,0.03329944681240632,0.027655018402306008,0.03279243950397196
1.0066385655433827,0.08556714248621351,0.024635288982626395,0.049462130528264495,0.03004770324691353,0.048918506314833535
1.006685647568513,0.10493697207975199,0.024916423924038436,0.06485229624100503,0.029496211734903702,0.06432353424221869
1.0067327295936435,0.12014720761669652,0.024661291747746925,0.07640706666955516,0.027617079198718534,0.07591325169414621
1.0067798116187738,0.12974860817624662,0.02338388737644063,0.08294186479002422,0.02486606620807753,0.08249495469679582
1.0068268936439042,0.1331160769266914,0.02424310911132798,0.08436945777741765,0.0213133167328953,0.08398149210979841
1.0068739756690346,0.13051634907150206,0.022303290591121495,0.08386978816652868,0.01716204856030453,0.08355157712162818
1.006921057694165,0.12301693370584733,0.01803074553128147,0.08185258015702256,0.014271935272738323,0.08158383155583393
1.0069681397192953,0.11219272060745543,0.01314614702818582,0.07585112215539112,0.011508838440639354,0.07563072150664436
1.0070152217444257,0.09964098937742749,0.009472989014011612,0.06985230351433948,0.00897984097606713,0.06967717977146065
1.007062303769556,0.08648287672211809,0.006700766329723887,0.06302251331950957,0.0064388777896130685,0.06289383629784273
1.0071093857946865,0.07315337862299943,0.006511607324975695,0.053521194673379444,0.004003583129660909,0.05343819947958585
1.0071564678198168,0.05967551136841471,0.0070349631271562916,0.042771215350936226,0.0011839151343401941,0.04274188228594482
1.0072035498449472,0.046352747241279996,0.005938428478150407,0.029687677967592516,-0.001302268914712183,0.02970676838765903
1.0072506318700776,0.03458526276589038,0.005617790030704409,0.01916866027493343,-0.002145026476478874,0.019205280263849624
1.007297713895208,0.02727830692374265,0.005607635202245105,0.01473006896934623,-0.002903103488351221,0.014781586042651642
1.0073447959203383,0.0280866607277734,0.00685364583635476,0.01711698325886342,-0.003288527863288102,0.017175280747634428
1.0073918779454687,0.03925806445151868,0.010864887718224199,0.028584290137595406,-0.0007949579968506545,0.028594128599404856
1.007438959970599,0.059562255279517966,0.015761311571750408,0.043832242766228824,0.0028883271553817626,0.04377125697011917
1.0074860419957294,0.08449757331606145,0.019235502142749328,0.058037587268334905,0.007463862029890432,0.057890986718637495
1.0075331240208598,0.10858230355013457,0.021265992674669738,0.06858033205585247,0.012231197364205875,0.06834759534870824
1.0075802060459902,0.12742598805780986,0.02262759896502317,0.07621925524513734,0.01449950494031297,0.07594659646943742
1.0076272880711206,0.13840784538629322,0.021775944292785194,0.07904744927672683,0.015417295659627142,0.07875893141387226
1.007674370096251,0.14057521646913557,0.019795339053309047,0.0769603579802706,0.01564347225906608,0.07666790747991867
1.0077214521213813,0.1345761316442056,0.018072189649977217,0.07084930100861353,0.014566088773109404,0.07057552153168953
