freq,gls,usurper,pdc_unbiased,shape_periodogram,shift_periodogram
1.0,0.02176245538732735,0.008561001519674805,-0.007335655112181927,-0.00011247680881117972,-0.0073342155258901195
1.0000470820251304,0.05134779247241603,0.0139928284448057,0.016081221596065367,0.0032209767813446847,0.01604925092086394
1.0000941640502607,0.09689124580742478,0.019698568187249573,0.05094334186944231,0.010533952326398548,0.05084176701327885
1.0001412460753911,0.14848755125694818,0.02543551590497777,0.08456655871201842,0.015743044560671573,0.08442159976856582
1.0001883281005215,0.19664060203551523,0.030640788252277132,0.10917973127593883,0.021238535597374486,0.10899617183723903
1.0002354101256519,0.23592916525893703,0.033503599516334616,0.12678225514793529,0.02495416032353527,0.12657841691561642
1.0002824921507822,0.26363730657080775,0.0315921982646704,0.13936052532630389,0.02613605953142347,0.1391540047477735
1.0003295741759126,0.2780607972143743,0.030459790766662692,0.14663287491158739,0.026494476222520685,0.14642712783576478
1.000376656201043,0.27778293516045677,0.030456616214992346,0.14742341655727248,0.0260295325551073,0.14722059758463463
1.0004237382261734,0.2619162710265795,0.028231880615845622,0.139633635428265,0.025713317195563343,0.1394297109601187
1.0004708202513037,0.23107843684954268,0.024438491708316634,0.12167319492364326,0.024418899599783665,0.12147111796472444
1.0005179022764341,0.1884924826566669,0.019545034613554606,0.09811663264576473,0.023211630340148465,0.0979158054448949
1.0005649843015645,0.1401213853463462,0.015556346948484305,0.07552593926328457,0.021183793298650836,0.07533505775781552
1.0006120663266949,0.09311329616242185,0.012538686726364132,0.056936636782797936,0.018078422531171267,0.056768339702111814
1.0006591483518252,0.05338098213176131,0.012419592244031543,0.04656239048066332,0.01284218194479822,0.04643960088420181
1.0007062303769556,0.024158292773911582,0.01232949960153433,0.0379052596807291,0.006422233473207302,0.037841963748418424
1.000753312402086,0.006389706849983347,0.012568150944955272,0.024925530867037873,-0.0008283255355232561,0.024932406242306755
1.0008003944272164,4.4957735270936574e-05,0.01466470435979621,0.013623927240606612,-0.007904463086903863,0.013700518452093875
1.0008474764523467,0.004476680458159687,0.015349616322404072,0.005279248516488982,-0.00855904323944131,0.005362382500658006
1.000894558477477,0.016631009383087918,0.017300087367683847,0.00604487589630294,-0.0055019551975844525,0.006098156507288307
1.0009416405026075,0.030279800796216314,0.02317686284505181,0.01614856324889533,0.00013364994220104666,0.016146502275855446
1.0009887225277379,0.04019506929021177,0.029663823245230796,0.031662352407458065,0.010554398827136534,0.03156018360394851
1.0010358045528682,0.045271217739530065,0.03455253772853103,0.049643587368788454,0.023007724078545153,0.0494314978932108
1.0010828865779986,0.04665854735345898,0.035369909583124595,0.06394396252727896,0.033675016827701534,0.06365159654363058
1.001129968603129,0.04557434040645729,0.03654618287679193,0.06951556918541625,0.04237406124666408,0.06916523285067637
1.0011770506282593,0.04281463251624272,0.03535331136256382,0.06676401531502141,0.04802542989312515,0.06637343402524608
1.0012241326533897,0.03911406922799136,0.030328768664650476,0.05756222886158259,0.050529904163892574,0.05714356674897928
1.00127121467852,0.035734840091298535,0.023296729008037566,0.04469056838221148,0.051365459410565306,0.04424898603756671
1.0013182967036505,0.034632288517627896,0.017905511719582462,0.03354469161607427,0.051545263424632615,0.033086878020604345
1.0013653787287808,0.03686446430802818,0.01758409249426833,0.03235087082016887,0.05095962352298169,0.031896202845641396
1.0014124607539112,0.040499198873267514,0.02101032070206242,0.04235422606047071,0.05015696370441571,0.04191868803477078
1.0014595427790416,0.04245011553894062,0.024563376997247227,0.05148956578485458,0.04765292603246555,0.05108367902379329
1.001506624804172,0.04142424671447975,0.025013687091219747,0.057489670337512934,0.04120760330828455,0.05713678581863352
1.0015537068293023,0.03772147907862947,0.023253291970244293,0.05838903434484734,0.032920569040790944,0.05809932210796335
1.0016007888544327,0.032149333674356434,0.02142045225207754,0.05286952532393206,0.02241320366137414,0.05266328924074807
1.001647870879563,0.025799799790141527,0.02064965783857406,0.040386054375886556,0.009974097359383866,0.04028944290743714
1.0016949529046935,0.020580986012262138,0.016850498680895058,0.02276083148008517,-0.001202181789132411,0.02277144898574444
1.0017420349298238,0.01993155776046648,0.014882776543164404,0.008396000375120035,-0.009027963316876511,0.008483688324479963
1.0017891169549542,0.027489951613850306,0.01623721500431853,0.00883020356959996,-0.00984078879168036,0.008925855879459535
1.0018361989800846,0.042074300128446054,0.0161235896653399,0.022145335055818467,-0.005357357127577613,0.022196640860035904
1.001883281005215,0.05845891480384451,0.017415425498404885,0.04104344236602053,0.0025475254677024186,0.04101694133169942
1.0019303630303453,0.07582159493280267,0.02104349001482629,0.05832937685591873,0.010802695290356693,0.05822555347383999
1.0019774450554757,0.09824195100672209,0.025141270959544184,0.07041397317164165,0.022571403130198398,0.0702107021710563
1.002024527080606,0.1303669711588208,0.02423406279605956,0.07896421651578898,0.031953907270726646,0.07869275570837882
1.0020716091057364,0.17464242099810953,0.020192545993321143,0.08832693698111686,0.03858655491984275,0.08801715560799468
1.0021186911308668,0.22917237164395338,0.020929778580379907,0.11355266104308831,0.04307478452974483,0.11324049654277986
1.0021657731559972,0.2864808872447173,0.024991560371386945,0.14880372324738836,0.04602438456327701,0.1485181587496204
1.0022128551811276,0.335488571803669,0.028663114698744108,0.17945522269565434,0.04742826086858499,0.17920326901921332
1.002259937206258,0.3667004160945303,0.031008908035519082,0.20044309409803335,0.04737533314645349,0.20021676022320783
1.0023070192313883,0.37630521047742305,0.03202148943850347,0.20989430295355302,0.045997968260635486,0.20967909560168485
1.0023541012565187,0.3658732131217113,0.03180901158593606,0.20800353236518512,0.043446362809774396,0.2077866449725473
1.002401183281649,0.3393357840705059,0.032240142865077245,0.19716291122807472,0.03928272651182297,0.19694027333930478
1.0024482653067794,0.30043566038503033,0.03152442241361139,0.1783931936762516,0.03268447713984389,0.1781745474388355
1.0024953473319098,0.25183659939415354,0.027187255458692522,0.15384153094853617,0.023100277407737117,0.15365785765108525
1.0025424293570402,0.1956066522565673,0.02036287321193183,0.12081929242955049,0.012553604759783414,0.12070368451705007
1.0025895113821706,0.13475970805500284,0.014076547835190308,0.07564140824241966,0.0009989568247029366,0.07562826690815935
1.002636593407301,0.07582916802294695,0.008416525069408529,0.025728531183742454,-0.0070292653939949944,0.025796207190363993
1.0026836754324313,0.03145358980808763,0.01242450291957657,-0.0040036080406334615,-0.007931838308912012,-0.003926449972412464
1.0027307574575617,0.01779891286180085,0.020823320679626944,-0.006351274616742859,0.0007884468300350135,-0.006358639516525147
1.002777839482692,0.04358985242398123,0.018574727416534476,0.006591376950054447,0.01524785553526073,0.006443621085143644
1.0028249215078224,0.1037077589167159,0.01838242587953455,0.04281328660270074,0.025678209104419945,0.04257638160898482
1.0028720035329528,0.18101238562213362,0.024118931473091645,0.0979436666785688,0.035696790518092165,0.09765873695494998
1.0029190855580832,0.25636899888384335,0.03476111420158171,0.15380629462607742,0.03693553301958927,0.15355514661581673
1.0029661675832136,0.31832235074100634,0.04504662469362321,0.19704252226634572,0.033399223570256334,0.1968332036238432
1.003013249608344,0.36361141655314383,0.04913426951891437,0.228525784613192,0.03266753907791647,0.22833807107998286
1.0030603316334743,0.39341420767750745,0.050832887937057786,0.24979870354304085,0.030646491836794246,0.24962712961689196
1.0031074136586047,0.4102870696014962,0.05049411737744649,0.26258314989231946,0.028103417948744755,0.2624226953166841
1.003154495683735,0.41662904201390033,0.0493667381083754,0.266777273312063,0.025614336113508114,0.2666239466534121
1.0032015777088654,0.41405085665469693,0.04711812907802862,0.26326150551395927,0.022788340697417597,0.26311464141375884
1.0032486597339958,0.4030953535584088,0.04392097143236951,0.251751202986526,0.01893558823239572,0.2516154802537308
1.0032957417591262,0.38301151602067063,0.03998874160282605,0.2324239377319079,0.014586410755629912,0.23230648306349477
1.0033428237842565,0.3514583105172215,0.03517925279506806,0.2047530276495091,0.009584822836759847,0.2046654019571557
1.003389905809387,0.3042863356687068,0.029103030685185695,0.16911475512504195,0.004126806528580861,0.16906999066777434
1.0034369878345173,0.2364892670841809,0.022409933467349843,0.12615890065588273,-0.0014351996438319262,0.12616678192939018
1.0034840698596477,0.14805992805189566,0.015736640648690136,0.07745804013496241,-0.006271693430415606,0.07751632881030467
1.003531151884778,0.05937981673678241,0.01204256605004495,0.035632586371168055,-0.009496954377874681,0.03572464477981632
1.0035782339099084,0.016571701488668728,0.013019389393357672,0.012038086514572617,-0.009054246561879439,0.012125999317386288
1.0036253159350388,0.04141534161646615,0.01892593791218093,0.014399178728297872,-0.004076444704295474,0.014438227695355932
1.0036723979601692,0.0978579156313711,0.026092577632861578,0.03595348541122598,0.00469236667152135,0.035906664448731244
1.0037194799852995,0.14599333246590304,0.034250503914809736,0.06503465797160808,0.01293354898708065,0.06491209162630039
1.00376656201043,0.17300879075255565,0.03729840128058069,0.0922030709843016,0.021905549157451455,0.09201043396017035
1.0038136440355603,0.18229222765708752,0.04041868611465349,0.11374971918924169,0.02690258542412783,0.11352854114099445
1.0038607260606907,0.18262972424027749,0.04296056213134588,0.12736778710133306,0.03231010415415106,0.12712071787080018
1.003907808085821,0.18292620727983336,0.04148912139888043,0.13485525602086357,0.03977047673096165,0.13457746128013537
1.0039548901109514,0.18798821740501145,0.0410088861843822,0.13913083302593265,0.04380245672125003,0.13884160360898895
1.0040019721360818,0.19658928748535154,0.03847022510054715,0.1397247738744464,0.04431784810252828,0.13943440223241782
1.0040490541612122,0.20361099360789395,0.03522580267181839,0.1356935801867525,0.04242796327957733,0.135405904999286
1.0040961361863425,0.20356945018764083,0.0306636275216508,0.1287855413388881,0.04105960246985031,0.12849690727557564
1.004143218211473,0.19261735903368254,0.024949830215665034,0.11776025800915435,0.039417522480200494,0.11746960167399316
1.0041903002366033,0.1692114287165738,0.018556501465375304,0.09836742477706704,0.03525047802185374,0.09808551944640921
1.0042373822617336,0.13469585530973552,0.011422389718997375,0.07519967777083232,0.029439037685890488,0.0749447248071924
1.004284464286864,0.094068350002802,0.005360099524248612,0.051842634052145065,0.021993014996952078,0.05163974317968388
1.0043315463119944,0.0558705414627791,0.0005399928091449705,0.03082107495389939,0.013398061334901776,0.030692333679453964
1.0043786283371248,0.029785725493520713,-0.0011323416685505145,0.019809015244991575,0.00459098906700199,0.01976369173423984
1.0044257103622551,0.022326134922130727,-0.0013843363607247557,0.01684685304795892,-0.0031821462283925894,0.016877058909643985
1.0044727923873855,0.03362727707623793,-0.0002256367481120766,0.01768087969631584,-0.007516055384480057,0.017753564736625684
1.004519874412516,0.057935866130881315,0.0024609835491962153,0.0238553638180855,-0.008421617239712456,0.023936870637578236
1.0045669564376463,0.08691312585069338,0.006139988137596154,0.038233159934289905,-0.004684774486617582,0.03827721021627026
1.0046140384627766,0.11302745450084833,0.010695224582594153,0.05542672474865837,0.0037386483053178984,0.05538832957731768
1.004661120487907,0.13143773576861661,0.014620980478408761,0.07126698378066398,0.013579856700951244,0.07113917265864186
1.0047082025130374,0.140315951549541,0.017199129012616395,0.0817840112464661,0.023089134978847046,0.08157960185226376
1.0047552845381678,0.14016084842095028,0.0175996058680841,0.0846685751900148,0.030895083746848212,0.08440753476715186
1.0048023665632981,0.13271042804166153,0.016542269054157475,0.08028160564993014,0.03593562074859861,0.07998324498833669
1.0048494485884285,0.1199532079956697,0.01559487704995741,0.06958311394397716,0.04082486093771999,0.06924335408428314
1.0048965306135589,0.10352759540252561,0.0131699888501095,0.05738407400153901,0.04507398938800273,0.057003163934387605
1.0049436126386893,0.08458770500586026,0.007412129894198018,0.04469505929439128,0.04579594314604809,0.04429553703249961
1.0049906946638196,0.06411017510052013,0.003470332817509204,0.03435472552873721,0.042948842046243316,0.03396769575540461
1.00503777668895,0.043500849939608656,-0.0006438016288053439,0.022887706523455283,0.03894266609140052,0.02252548945003349
1.0050848587140804,0.02497562650004661,-0.0030042862527016353,0.013888116903115118,0.03295608740746085,0.013574603951258594
1.0051319407392107,0.011013597455985432,-0.0034870170393027406,0.011624969459267675,0.02509319779492639,0.01138415721877994
1.0051790227643411,0.003334338693202587,-0.003959605336915414,0.009001101837417943,0.01712984901211667,0.008835497590436812
1.0052261047894715,0.0027948227754708652,-0.006406718032981925,0.005716764128480125,0.01017273121987329,0.005617914674773467
1.0052731868146019,0.010164673003053454,-0.009697156656563427,0.005314070387151807,0.00388142780819595,0.005276134784147994
1.0053202688397322,0.026566180290056158,-0.013397686211866463,0.008193549268036414,-0.0027388959518596483,0.008219811369876453
1.0053673508648626,0.05291846997433676,-0.01478891097451747,0.011498759854167706,-0.006478579739707003,0.01156141600507834
1.005414432889993,0.08828034555015178,-0.012308138920387358,0.017065936640710815,-0.006332154529977528,0.01712699303066995
1.0054615149151234,0.12763762777320273,-0.009674589846689658,0.025647230237824777,-0.0037141579942160602,0.02568226104462611
1.0055085969402537,0.16155770115500132,-0.007618819864997283,0.038076850744054896,0.0026525942995802945,0.03804946226079447
1.0055556789653841,0.18078890709766565,-0.0053798043023671254,0.05135766337998839,0.01188721115581156,0.05124377179598962
1.0056027609905145,0.18307418566708303,-0.004463930907052836,0.06056084021799014,0.022158466380744604,0.06035856390202558
1.0056498430156449,0.1741533504439713,-0.003913934515358241,0.06655908741414072,0.03017724292753396,0.06629464529130583
1.0056969250407752,0.16242605985016223,-0.0036543697394043053,0.07063087442771013,0.03573677374986173,0.0703274913065236
1.0057440070659056,0.15418810481596457,-0.0031929165979995896,0.07107575192890922,0.038110802633998776,0.07075592419919255
1.005791089091036,0.1523552110015489,-0.002744816670082152,0.0660360559428213,0.03776838764134429,0.0657149258436913
1.0058381711161664,0.15691036178882456,-0.0004731572101955481,0.06130313889977103,0.036742462349491044,0.06098615829325264
1.0058852531412967,0.16538784679386007,0.0032791812096282045,0.06307528196508604,0.03609806241583436,0.06276428116691202
1.005932335166427,0.17322460684996496,0.003142191063955569,0.06323184659303546,0.03266945374036877,0.06294669775403808
1.0059794171915575,0.17475929729964576,0.0016185217593134098,0.05880087400333982,0.026491218838375605,0.05856243261927926
1.0060264992166879,0.16548577922015562,0.00010590338515080267,0.05204155960234529,0.01966631464557728,0.05185873496650784
1.0060735812418182,0.1445721481217929,-0.001440374379109875,0.04234591607178599,0.012614341251055795,0.04222499530223926
1.0061206632669486,0.11538472372115638,-0.0026667422025683455,0.03266210113426135,0.004966101014568682,0.0326127702529114
1.006167745292079,0.08342022676517998,-0.004905606866251497,0.0259645785337829,-0.0022654575729821034,0.02598541658370211
1.0062148273172093,0.053714935068683495,-0.006316332855591603,0.01794830890199036,-0.008282732617511779,0.01802854535376135
1.0062619093423397,0.029620632829972474,-0.006772757661831311,0.006428025048282717,-0.012032923073848286,0.006545143066711295
1.00630899136747,0.012907514843990737,-0.0059921720211560175,-0.004503164505502606,-0.011687238666153173,-0.004389659691557241
1.0063560733926005,0.004292560353454192,-0.00533245016200256,-0.010519166817943732,-0.009602892251337937,-0.010425829746926608
1.0064031554177308,0.0038095921685766332,-0.0034187772891161395,-0.007972360122875525,-0.006890236018363619,-0.007905207202418043
1.0064502374428612,0.010924293923755681,0.0013415558758160294,0.0013341291502741227,-0.0004148793694839386,0.001338098696366175
1.0064973194679916,0.02453035587728399,0.0039673348773501095,0.011333716656649779,0.007746865023630483,0.011258237137617647
1.006544401493122,0.042966387475684646,0.0058361630630903135,0.020787738978896356,0.016243834142130046,0.020631696437960704
1.0065914835182523,0.06411092062196938,0.005544578921633978,0.03329944681240632,0.022159305684677208,0.03309096835367728
1.0066385655433827,0.08556714248621351,0.006686295843319705,0.049462130528264495,0.02543338791467006,0.04922938571766339
1.006685647568513,0.10493697207975199,0.007597158192516379,0.06485229624100503,0.025918130981332457,0.06462053066391414
1.0067327295936435,0.12014720761669652,0.00800946574500384,0.07640706666955516,0.02406288105220528,0.0761935697839146
1.0067798116187738,0.12974860817624662,0.007274851635040022,0.08294186479002422,0.022040069176006878,0.08274591652942637
1.0068268936439042,0.1331160769266914,0.008882400624367816,0.08436945777741765,0.018587214415865052,0.08420120510057116
1.0068739756690346,0.13051634907150206,0.007521156395145217,0.08386978816652868,0.015934752280965053,0.08372315859898805
1.006921057694165,0.12301693370584733,0.004013987765300036,0.08185258015702256,0.012551131953997756,0.08173436477954243
1.0069681397192953,0.11219272060745543,-0.0002727738683062524,0.07585112215539112,0.007640809246308533,0.07577613285796025
1.0070152217444257,0.09964098937742749,-0.004637224770374057,0.06985230351433948,0.0031538796955853333,0.06981893511357296
1.007062303769556,0.08648287672211809,-0.008635656661304477,0.06302251331950957,-0.001487029943341662,0.0630339848995755
1.0071093857946865,0.07315337862299943,-0.010528078236214718,0.053521194673379444,-0.005703055803863353,0.053574735713363436
1.0071564678198168,0.05967551136841471,-0.010896457705813593,0.042771215350936226,-0.008714840334853381,0.04285529511353946
1.0072035498449472,0.046352747241279996,-0.011209087424233176,0.029687677967592516,-0.010234119519505442,0.02978717506715509
1.0072506318700776,0.03458526276589038,-0.010854602937218618,0.01916866027493343,-0.011009546284737643,0.019275872043382932
1.007297713895208,0.02727830692374265,-0.010539834744594481,0.01473006896934623,-0.011524216967552696,0.014842332767275184
1.0073447959203383,0.0280866607277734,-0.008740258285356234,0.01711698325886342,-0.010381539963048024,0.017217962350320335
1.0073918779454687,0.03925806445151868,-0.00449639522802912,0.028584290137595406,-0.006851902999559384,0.028650128980621685
1.007438959970599,0.059562255279517966,0.00018834888704191217,0.043832242766228824,-0.0026188300147461457,0.04385570698542058
1.0074860419957294,0.08449757331606145,0.004172219475350375,0.058037587268334905,0.002148986869151701,0.05801420662933601
1.0075331240208598,0.10858230355013457,0.006685765962943316,0.06858033205585247,0.0066909815643999134,0.06851405841481263
1.0075802060459902,0.12742598805780986,0.009106266506791322,0.07621925524513734,0.010013444087069638,0.07612298927425384
1.0076272880711206,0.13840784538629322,0.01012142278256854,0.07904744927672683,0.012519053649373597,0.07892934224238116
1.007674370096251,0.14057521646913557,0.009915571152733192,0.0769603579802706,0.01433050411520821,0.07682653326064884
