freq,gls,usurper,pdc_unbiased,shape_periodogram,shift_periodogram
1.0,0.02176245538732735,0.0190385288517144,-0.007335655112181927,0.007465945332625821,-0.007631731378293713
1.0000470820251304,0.05134779247241603,0.030350208411018983,0.016081221596065367,0.013574001008909039,0.015520838769321402
1.0000941640502607,0.09689124580742478,0.04548756930712504,0.05094334186944231,0.027335951475894044,0.04981921990431709
1.0001412460753911,0.14848755125694818,0.062022553892521405,0.08456655871201842,0.04618598393275245,0.0827375667649993
1.0001883281005215,0.19664060203551523,0.0783345540641556,0.10917973127593883,0.06857939932752723,0.1066147717339108
1.0002354101256519,0.23592916525893703,0.09139886788207274,0.12678225514793529,0.0865777966578766,0.12371860622697209
1.0002824921507822,0.26363730657080775,0.0995354763077284,0.13936052532630389,0.09807160415859636,0.1360385924378925
1.0003295741759126,0.2780607972143743,0.1050090763259646,0.14663287491158739,0.10532043928473063,0.14316954039817012
1.000376656201043,0.27778293516045677,0.10725361916272391,0.14742341655727248,0.10966609003997346,0.14386040141335582
1.0004237382261734,0.2619162710265795,0.10486697856038454,0.139633635428265,0.11053470604659048,0.13599611608042114
1.0004708202513037,0.23107843684954268,0.09819260734400073,0.12167319492364326,0.10711111604953802,0.11800597460449541
1.0005179022764341,0.1884924826566669,0.08888156124809451,0.09811663264576473,0.10119844974937114,0.09448238659528815
1.0005649843015645,0.1401213853463462,0.08100618689158304,0.07552593926328457,0.09487990514633197,0.07198218794965862
1.0006120663266949,0.09311329616242185,0.07435902759470765,0.056936636782797936,0.08703488825300648,0.053589758247199096
1.0006591483518252,0.05338098213176131,0.06946973608516539,0.04656239048066332,0.07627985388647926,0.043576074177701256
1.0007062303769556,0.024158292773911582,0.06279970263676649,0.0379052596807291,0.06208995121030966,0.0354370145634147
1.000753312402086,0.006389706849983347,0.0552417904519528,0.024925530867037873,0.04531215176955353,0.023098240590154154
1.0008003944272164,4.4957735270936574e-05,0.049978735956575614,0.013623927240606612,0.030579115007156526,0.012382413448105322
1.0008474764523467,0.004476680458159687,0.045517009319657714,0.005279248516488982,0.02442213055450483,0.004288727114601106
1.000894558477477,0.016631009383087918,0.048352103174159146,0.00604487589630294,0.026095036808101817,0.004986517004559619
1.0009416405026075,0.030279800796216314,0.0580526527913997,0.01614856324889533,0.03491818169316072,0.014732918386205619
1.0009887225277379,0.04019506929021177,0.0715306772975508,0.031662352407458065,0.05042436415589301,0.029638095069390365
1.0010358045528682,0.045271217739530065,0.08358981652970379,0.049643587368788454,0.06923661420663492,0.04692559937058399
1.0010828865779986,0.04665854735345898,0.09252060054923539,0.06394396252727896,0.0867367298446602,0.06063262934152449
1.001129968603129,0.04557434040645729,0.09780733247078209,0.06951556918541625,0.09941436957019131,0.06579107785615904
1.0011770506282593,0.04281463251624272,0.09706535655877077,0.06676401531502141,0.10450998526586731,0.06285304742848917
1.0012241326533897,0.03911406922799136,0.09085237897237042,0.05756222886158259,0.10330310864069589,0.053643640123641215
1.00127121467852,0.035734840091298535,0.08156410838703625,0.04469056838221148,0.09873902973768453,0.04087184384220432
1.0013182967036505,0.034632288517627896,0.07365209639810275,0.03354469161607427,0.09480684367667394,0.029823707091412428
1.0013653787287808,0.03686446430802818,0.07134552342292669,0.03235087082016887,0.0931933820335299,0.028686117981042102
1.0014124607539112,0.040499198873267514,0.07446266595191242,0.04235422606047071,0.09505564602608813,0.03866025183153924
1.0014595427790416,0.04245011553894062,0.07996577896016645,0.05148956578485458,0.0987817369040077,0.047700719964419186
1.001506624804172,0.04142424671447975,0.08310755277104147,0.057489670337512934,0.09811499480308505,0.05375240541425084
1.0015537068293023,0.03772147907862947,0.08299164703931844,0.05838903434484734,0.0914420382764117,0.05489093495138196
1.0016007888544327,0.032149333674356434,0.07792213377690095,0.05286952532393206,0.0788544134373891,0.049805157968431935
1.001647870879563,0.025799799790141527,0.06767910431130811,0.040386054375886556,0.06022612599303805,0.037992276116539846
1.0016949529046935,0.020580986012262138,0.05312826270979067,0.02276083148008517,0.039784553177535396,0.021151424816334006
1.0017420349298238,0.01993155776046648,0.043983889434494876,0.008396000375120035,0.024844324077361223,0.007386919490745705
1.0017891169549542,0.027489951613850306,0.043328030321182515,0.00883020356959996,0.02350803503471798,0.007874702633022108
1.0018361989800846,0.042074300128446054,0.04722045991662423,0.022145335055818467,0.03157764856719473,0.020861663451255282
1.001883281005215,0.05845891480384451,0.05827185374077407,0.04104344236602053,0.047125543227953044,0.03915241326213656
1.0019303630303453,0.07582159493280267,0.07078243605811115,0.05832937685591873,0.06558076477114913,0.05576262281469073
1.0019774450554757,0.09824195100672209,0.08069221913049836,0.07041397317164165,0.08510167360757605,0.0671824829469859
1.002024527080606,0.1303669711588208,0.08312697990798226,0.07896421651578898,0.09895952230136254,0.07530158301138465
1.0020716091057364,0.17464242099810953,0.0820627488213675,0.08832693698111686,0.10821108735882196,0.08442049714256947
1.0021186911308668,0.22917237164395338,0.08634932304906484,0.11355266104308831,0.1154418782025893,0.10960340438508322
1.0021657731559972,0.2864808872447173,0.09419051143613635,0.14880372324738836,0.12245184057664035,0.1449596680138598
1.0022128551811276,0.335488571803669,0.10134465131370862,0.17945522269565434,0.128315894008321,0.17577488351430015
1.002259937206258,0.3667004160945303,0.1052568943818966,0.20044309409803335,0.13106336830843635,0.1969277360118541
1.0023070192313883,0.37630521047742305,0.10539049116753336,0.20989430295355302,0.1298246765764364,0.206489263327169
1.0023541012565187,0.3658732131217113,0.10207070522954305,0.20800353236518512,0.12488235207669576,0.20464321882583986
1.002401183281649,0.3393357840705059,0.09694375910051636,0.19716291122807472,0.11677732663216003,0.19382898409250102
1.0024482653067794,0.30043566038503033,0.09003619587315644,0.1783931936762516,0.10321111242456732,0.175178596557176
1.0024953473319098,0.25183659939415354,0.07961373965035852,0.15384153094853617,0.0828923722049524,0.15099039440976375
1.0025424293570402,0.1956066522565673,0.06291952086302514,0.12081929242955049,0.057363868213109216,0.11864459953220982
1.0025895113821706,0.13475970805500284,0.04277640472494556,0.07564140824241966,0.02693770798977314,0.07452674568629564
1.002636593407301,0.07582916802294695,0.02650906494261525,0.025728531183742454,0.0026494225603945105,0.025600568446251887
1.0026836754324313,0.03145358980808763,0.021683017968890647,-0.0040036080406334615,-0.0010441457287220116,-0.0039581165484100095
1.0027307574575617,0.01779891286180085,0.03088290339908878,-0.006351274616742859,0.018595402045240732,-0.007099168253466821
1.002777839482692,0.04358985242398123,0.04473606530491707,0.006591376950054447,0.05096699991362058,0.004531103982870824
1.0028249215078224,0.1037077589167159,0.06642583406969557,0.04281328660270074,0.08095240889171183,0.03964321855161686
1.0028720035329528,0.18101238562213362,0.0905716509430616,0.0979436666785688,0.10104483885756158,0.0943131794854132
1.0029190855580832,0.25636899888384335,0.11126163365378437,0.15380629462607742,0.11215668443859411,0.15023029731059356
1.0029661675832136,0.31832235074100634,0.12455261054138227,0.19704252226634572,0.11658533461988049,0.1937107650461578
1.003013249608344,0.36361141655314383,0.13148864814012695,0.228525784613192,0.11839941204007068,0.22542951197122763
1.0030603316334743,0.39341420767750745,0.134175750642008,0.24979870354304085,0.11737466647738494,0.24689382436537413
1.0031074136586047,0.4102870696014962,0.13343054386910344,0.26258314989231946,0.11474750352510121,0.2598081613573721
1.003154495683735,0.41662904201390033,0.13059908493361908,0.266777273312063,0.11034669810545672,0.26407406333665784
1.0032015777088654,0.41405085665469693,0.12568556167335154,0.26326150551395927,0.10405634940561144,0.26059595274847763
1.0032486597339958,0.4030953535584088,0.11866000519132235,0.251751202986526,0.09568682704695752,0.24911826961356498
1.0032957417591262,0.38301151602067063,0.10929751648014452,0.2324239377319079,0.08517253976034897,0.22986265517769566
1.0033428237842565,0.3514583105172215,0.0972277911321154,0.2047530276495091,0.0723224868516836,0.2023557703239615
1.003389905809387,0.3042863356687068,0.08196531185405126,0.16911475512504195,0.057398098860033206,0.1670245954225469
1.0034369878345173,0.2364892670841809,0.0642299732237428,0.12615890065588273,0.04081435655736131,0.12454787610486927
1.0034840698596477,0.14805992805189566,0.04576861634215806,0.07745804013496241,0.023959738708981507,0.0764566563340467
1.003531151884778,0.05937981673678241,0.03256537333837566,0.035632586371168055,0.01103647710574581,0.035160194253494904
1.0035782339099084,0.016571701488668728,0.02952955276418853,0.012038086514572617,0.005917277023687155,0.011789232858529246
1.0036253159350388,0.04141534161646615,0.03930495905060671,0.014399178728297872,0.012943230920144292,0.013865358904429482
1.0036723979601692,0.0978579156313711,0.05772272402583506,0.03595348541122598,0.03009567863051843,0.03472517724955673
1.0037194799852995,0.14599333246590304,0.08110904343160255,0.06503465797160808,0.04990850219982315,0.06305427339285484
1.00376656201043,0.17300879075255565,0.09891619805231018,0.0922030709843016,0.06813865323455191,0.0896136839014756
1.0038136440355603,0.18229222765708752,0.10983216767470452,0.11374971918924169,0.07932967001631287,0.11085552636686967
1.0038607260606907,0.18262972424027749,0.11474612199324616,0.12736778710133306,0.08674663599625707,0.12430166263110196
1.003907808085821,0.18292620727983336,0.11675402010603975,0.13485525602086357,0.09314620358318793,0.13164240966150184
1.0039548901109514,0.18798821740501145,0.1182281665734474,0.13913083302593265,0.0974682425444795,0.1358235531457099
1.0040019721360818,0.19658928748535154,0.11675609363403938,0.1397247738744464,0.09952393829325745,0.136366838045319
1.0040490541612122,0.20361099360789395,0.11277329173469461,0.1356935801867525,0.10018536348013847,0.13229566440975243
1.0040961361863425,0.20356945018764083,0.10552212781208781,0.1287855413388881,0.09849851962208814,0.12539497424827864
1.004143218211473,0.19261735903368254,0.09609918373373479,0.11776025800915435,0.09507261933808563,0.11440953654081065
1.0041903002366033,0.1692114287165738,0.08357679400120621,0.09836742477706704,0.08726391852861645,0.0951682104570418
1.0042373822617336,0.13469585530973552,0.06875589718846092,0.07519967777083232,0.07489752767131047,0.07233673756580182
1.004284464286864,0.094068350002802,0.052983759099393644,0.051842634052145065,0.059599480250473263,0.04948743039567841
1.0043315463119944,0.0558705414627791,0.0381455202929671,0.03082107495389939,0.04206178111933199,0.029123149630827284
1.0043786283371248,0.029785725493520713,0.028108808697905305,0.019809015244991575,0.025627481929093362,0.018763303075202072
1.0044257103622551,0.022326134922130727,0.023406759011024954,0.01684685304795892,0.013428718652176923,0.01629177616401059
1.0044727923873855,0.03362727707623793,0.023706046442574832,0.01768087969631584,0.00782382158199722,0.017350741522121526
1.004519874412516,0.057935866130881315,0.028468104723014784,0.0238553638180855,0.00878945045847913,0.023481665489161037
1.0045669564376463,0.08691312585069338,0.03743920404018698,0.038233159934289905,0.017436268590618517,0.03750410357518411
1.0046140384627766,0.11302745450084833,0.0494782456435738,0.05542672474865837,0.03381925116496993,0.054051002901895705
1.004661120487907,0.13143773576861661,0.06164283995796557,0.07126698378066398,0.05308862809405701,0.0691752470060937
1.0047082025130374,0.140315951549541,0.0730300874650368,0.0817840112464661,0.0723049050358772,0.07902767519765956
1.0047552845381678,0.14016084842095028,0.07854177119512366,0.0846685751900148,0.08809376097726965,0.08138867193897256
1.0048023665632981,0.13271042804166153,0.07949272619005529,0.08028160564993014,0.09905345783805056,0.07662245678660295
1.0048494485884285,0.1199532079956697,0.07726043197171666,0.06958311394397716,0.10676907915595087,0.06561206523482778
1.0048965306135589,0.10352759540252561,0.07507632391846622,0.05738407400153901,0.11022640267858305,0.053223972265984854
1.0049436126386893,0.08458770500586026,0.07089942460106773,0.04469505929439128,0.10876291526294624,0.0405125560751945
1.0049906946638196,0.06411017510052013,0.06678031511563914,0.03435472552873721,0.10320648523063498,0.03032176018490808
1.00503777668895,0.043500849939608656,0.06002018577418459,0.022887706523455283,0.09425875741307947,0.019145341756526907
1.0050848587140804,0.02497562650004661,0.051262754835490434,0.013888116903115118,0.0817927878555197,0.010605719654344953
1.0051319407392107,0.011013597455985432,0.04261224739837505,0.011624969459267675,0.06727620643260353,0.008915757022534833
1.0051790227643411,0.003334338693202587,0.03471158786706999,0.009001101837417943,0.05011027531845448,0.006976473913940945
1.0052261047894715,0.0027948227754708652,0.02401945395508453,0.005716764128480125,0.031339950950195886,0.004447081129450517
1.0052731868146019,0.010164673003053454,0.015298198498242946,0.005314070387151807,0.015093312379051772,0.004699979596618036
1.0053202688397322,0.026566180290056158,0.010228663413034814,0.008193549268036414,0.002826636365806719,0.008072596269924423
1.0053673508648626,0.05291846997433676,0.008877804933195706,0.011498759854167706,-0.0030437135844771277,0.011612459654508805
1.005414432889993,0.08828034555015178,0.009487644815996203,0.017065936640710815,-0.004192064382695613,0.01722156759644609
1.0054615149151234,0.12763762777320273,0.012165301080388375,0.025647230237824777,-0.0009741932061405685,0.02566563376395361
1.0055085969402537,0.16155770115500132,0.017603548906330684,0.038076850744054896,0.009394489293304926,0.037668361844907704
1.0055556789653841,0.18078890709766565,0.025231496524141406,0.05135766337998839,0.02438574082150031,0.05034847872544894
1.0056027609905145,0.18307418566708303,0.031213619875935378,0.06056084021799014,0.04080348795258683,0.058919298687962814
1.0056498430156449,0.1741533504439713,0.037536183131472556,0.06655908741414072,0.055674231905568465,0.0643675325038898
1.0056969250407752,0.16242605985016223,0.04227214557641904,0.07063087442771013,0.06841282491680765,0.06798550059427048
1.0057440070659056,0.15418810481596457,0.04357964717882952,0.07107575192890922,0.07611392033053022,0.06815930078818419
1.005791089091036,0.1523552110015489,0.04188317151590553,0.0660360559428213,0.07884619629505214,0.06300931356795288
1.0058381711161664,0.15691036178882456,0.040837226593652264,0.06130313889977103,0.0786297143836617,0.058270544582861405
1.0058852531412967,0.16538784679386007,0.041424936589061476,0.06307528196508604,0.07575418513618425,0.060150339391840675
1.005932335166427,0.17322460684996496,0.04001560871615626,0.06323184659303546,0.06986731057524062,0.0605187409734118
1.0059794171915575,0.17475929729964576,0.03584823325175345,0.05880087400333982,0.06112748060679533,0.05639863252897107
1.0060264992166879,0.16548577922015562,0.03082932406386688,0.05204155960234529,0.051772811028882135,0.049980673954004844
1.0060735812418182,0.1445721481217929,0.02553477160845962,0.04234591607178599,0.04095423489246362,0.04069370594479958
1.0061206632669486,0.11538472372115638,0.020935215937421727,0.03266210113426135,0.03058388708341165,0.031415330281489934
1.006167745292079,0.08342022676517998,0.018926742082442608,0.0259645785337829,0.022658691439369123,0.02503446203238373
1.0062148273172093,0.053714935068683495,0.019986885095653988,0.01794830890199036,0.01761334518753211,0.01722443447789034
1.0062619093423397,0.029620632829972474,0.022125141769190462,0.006428025048282717,0.015554032712109206,0.005794571792657734
1.00630899136747,0.012907514843990737,0.02383885529110605,-0.004503164505502606,0.014978870929731027,-0.005105709195833258
1.0063560733926005,0.004292560353454192,0.026523000543834285,-0.010519166817943732,0.01610957407208208,-0.011163294479223582
1.0064031554177308,0.0038095921685766332,0.03005061629328434,-0.007972360122875525,0.01749185803291462,-0.008674383119825475
1.0064502374428612,0.010924293923755681,0.0373981233124393,0.0013341291502741227,0.02385716485371187,0.00036847159560297486
1.0064973194679916,0.02453035587728399,0.044740567297404686,0.011333716656649779,0.03243083210180164,0.010018590647987479
1.006544401493122,0.042966387475684646,0.05087476238778493,0.020787738978896356,0.04090278874267356,0.01913382114768702
1.0065914835182523,0.06411092062196938,0.05498140366016326,0.03329944681240632,0.047564967043595724,0.0313874410834648
1.0066385655433827,0.08556714248621351,0.06011069979867059,0.049462130528264495,0.05275949781741653,0.047361724928917596
1.006685647568513,0.10493697207975199,0.06281453520323267,0.06485229624100503,0.055653685019075264,0.06265951454889379
1.0067327295936435,0.12014720761669652,0.06296392777014119,0.07640706666955516,0.05622833994295868,0.07420735543288363
1.0067798116187738,0.12974860817624662,0.05959429449799781,0.08294186479002422,0.05402752901194987,0.08082904937627412
1.0068268936439042,0.1331160769266914,0.05623191819516676,0.08436945777741765,0.0493630390593106,0.0824254862999693
1.0068739756690346,0.13051634907150206,0.05107991260746076,0.08386978816652868,0.04402145001716099,0.0821190548396128
1.006921057694165,0.12301693370584733,0.04396358645332293,0.08185258015702256,0.03669558334637631,0.08037066619851253
1.0069681397192953,0.11219272060745543,0.0354658273105859,0.07585112215539112,0.02861638815987268,0.0746725472014182
1.0070152217444257,0.09964098937742749,0.027232210377387957,0.06985230351433948,0.02125062934422555,0.06895787036583532
1.007062303769556,0.08648287672211809,0.021351486814433142,0.06302251331950957,0.016115445682349426,0.06233143732858572
1.0071093857946865,0.07315337862299943,0.017571094103808974,0.053521194673379444,0.01249682539703352,0.05297850587404618
1.0071564678198168,0.05967551136841471,0.014440455787029372,0.042771215350936226,0.009605343906086148,0.042350908024492775
1.0072035498449472,0.046352747241279996,0.012316871097909503,0.029687677967592516,0.008742850077938668,0.029311479686115104
1.0072506318700776,0.03458526276589038,0.011990944845810146,0.01916866027493343,0.009806466185823355,0.018757576643320742
1.007297713895208,0.02727830692374265,0.01360867966857218,0.01473006896934623,0.011078543419706351,0.01427107686130526
1.0073447959203383,0.0280866607277734,0.018071464270730524,0.01711698325886342,0.014804847596699623,0.016506411501567286
1.0073918779454687,0.03925806445151868,0.02777130544438299,0.028584290137595406,0.023070007812151544,0.02763654240496524
1.007438959970599,0.059562255279517966,0.04016808207458287,0.043832242766228824,0.03318183308148221,0.042481838245832015
1.0074860419957294,0.08449757331606145,0.052147731542268407,0.058037587268334905,0.04511713396077655,0.05623194498459668
1.0075331240208598,0.10858230355013457,0.06186463789821249,0.06858033205585247,0.05609886316203093,0.06637563892347015
1.0075802060459902,0.12742598805780986,0.06813772916239591,0.07621925524513734,0.06379508173277974,0.07374878261024079
1.0076272880711206,0.13840784538629322,0.07104769982624315,0.07904744927672683,0.06808237518539946,0.0764314254645745
1.007674370096251,0.14057521646913557,0.06910189682873963,0.0769603579802706,0.06905209433719478,0.07430588360194454
1.0077214521213813,0.1345761316442056,0.06332057238961,0.07084930100861353,0.0663216634756252,0.06827892780716206
1.0077685341465117,0.12269802495893224,0.054753608222164074,0.062425783036096825,0.05889119907828657,0.060110957659133595
