freq,gls,usurper,pdc_unbiased,shape_periodogram,shift_periodogram
1.0,0.02176245538732735,0.004473520406426327,-0.007335655112181927,-0.003938499032319799,-0.007268794834504434
1.0000470820251304,0.05134779247241603,0.00818144901138126,0.016081221596065367,0.0024230877830976804,0.0160384932100207
1.0000941640502607,0.09689124580742478,0.008694953692048089,0.05094334186944231,0.009258780563543276,0.050784092456896635
1.0001412460753911,0.14848755125694818,0.011119897843999062,0.08456655871201842,0.015142771705926606,0.08431375469388559
1.0001883281005215,0.19664060203551523,0.013212933405715535,0.10917973127593883,0.019997406524124163,0.10885750887468401
1.0002354101256519,0.23592916525893703,0.014063675388029625,0.12678225514793529,0.023398338502720262,0.12641674297079608
1.0002824921507822,0.26363730657080775,0.016070366236781607,0.13936052532630389,0.025505259358296433,0.1389713351735581
1.0003295741759126,0.2780607972143743,0.017130268458145678,0.14663287491158739,0.027223330934571004,0.14622491606706162
1.000376656201043,0.27778293516045677,0.017936328277719602,0.14742341655727248,0.029180144486827816,0.14699203215689055
1.0004237382261734,0.2619162710265795,0.01878900881877998,0.139633635428265,0.03057977987927175,0.13918150447810304
1.0004708202513037,0.23107843684954268,0.01931108630680097,0.12167319492364326,0.030810307581612163,0.121208981313329
1.0005179022764341,0.1884924826566669,0.019012698434926513,0.09811663264576473,0.030529489776350612,0.09764464136214959
1.0005649843015645,0.1401213853463462,0.020353475061950503,0.07552593926328457,0.028321279882459294,0.07507555108784382
1.0006120663266949,0.09311329616242185,0.022623975241791404,0.056936636782797936,0.02529660257457262,0.05652552620896781
1.0006591483518252,0.05338098213176131,0.02562019101767271,0.04656239048066332,0.019578037178026534,0.046238226604732306
1.0007062303769556,0.024158292773911582,0.028380700584491207,0.0379052596807291,0.01382636967704005,0.037672723246951346
1.000753312402086,0.006389706849983347,0.02998433218588184,0.024925530867037873,0.007137705269486286,0.024803365055351342
1.0008003944272164,4.4957735270936574e-05,0.034083840956336285,0.013623927240606612,-0.0013716623695971266,0.013644976375282346
1.0008474764523467,0.004476680458159687,0.036292835353264136,0.005279248516488982,-0.004010506944766716,0.005345649675330325
1.000894558477477,0.016631009383087918,0.03434183130501298,0.00604487589630294,-0.002220714682653492,0.0060811976121781615
1.0009416405026075,0.030279800796216314,0.03597059224554295,0.01614856324889533,0.002280967729108079,0.016108197288041953
1.0009887225277379,0.04019506929021177,0.039003308050213306,0.031662352407458065,0.007609462976258698,0.03153171333158511
1.0010358045528682,0.045271217739530065,0.04248530404682996,0.049643587368788454,0.014432016203140127,0.04940121302611125
1.0010828865779986,0.04665854735345898,0.0394481866640722,0.06394396252727896,0.02059044133925325,0.0636060783770864
1.001129968603129,0.04557434040645729,0.03482576090717785,0.06951556918541625,0.026172631817917236,0.06909469648440046
1.0011770506282593,0.04281463251624272,0.028074427358589428,0.06676401531502141,0.030744917776658602,0.06627491877090076
1.0012241326533897,0.03911406922799136,0.022716191850574316,0.05756222886158259,0.034234238830036186,0.0570175526021761
1.00127121467852,0.035734840091298535,0.018273507948690277,0.04469056838221148,0.036074487917550975,0.044111200316130604
1.0013182967036505,0.034632288517627896,0.014489879467543588,0.03354469161607427,0.03580306548784018,0.032963082524189065
1.0013653787287808,0.03686446430802818,0.015431595167160824,0.03235087082016887,0.03461226323573274,0.03178716780014419
1.0014124607539112,0.040499198873267514,0.019390091289750208,0.04235422606047071,0.033363244487742534,0.04181482577307962
1.0014595427790416,0.04245011553894062,0.023176363047833565,0.05148956578485458,0.030728782167584297,0.050994294662918854
1.001506624804172,0.04142424671447975,0.026929293545592564,0.057489670337512934,0.026278818450816168,0.057063781477720975
1.0015537068293023,0.03772147907862947,0.029250662902635463,0.05838903434484734,0.02146675383192537,0.05803688047772944
1.0016007888544327,0.032149333674356434,0.03087277748268525,0.05286952532393206,0.015188842881133867,0.0526151326517459
1.001647870879563,0.025799799790141527,0.030730020707613468,0.040386054375886556,0.008576601670756585,0.04023874232170617
1.0016949529046935,0.020580986012262138,0.029685304048660374,0.02276083148008517,0.0013510449684594854,0.02273508110899049
1.0017420349298238,0.01993155776046648,0.02817653622966224,0.008396000375120035,-0.004692531579868017,0.008473421072922559
1.0017891169549542,0.027489951613850306,0.02764240583875517,0.00883020356959996,-0.005150381447826221,0.008915246961179643
1.0018361989800846,0.042074300128446054,0.02511783594554737,0.022145335055818467,-0.003006218965508544,0.022192597140427924
1.001883281005215,0.05845891480384451,0.025415765864492703,0.04104344236602053,0.0017222344776907242,0.04100902569658724
1.0019303630303453,0.07582159493280267,0.02550212967582063,0.05832937685591873,0.0074914851585948525,0.05819816491568759
1.0019774450554757,0.09824195100672209,0.027228853299302705,0.07041397317164165,0.015352456497470484,0.0701574317164086
1.002024527080606,0.1303669711588208,0.024116450214167535,0.07896421651578898,0.02215016906456237,0.07860524726080106
1.0020716091057364,0.17464242099810953,0.017715541603652848,0.08832693698111686,0.027152065288344955,0.08789782163355846
1.0021186911308668,0.22917237164395338,0.015554582921618664,0.11355266104308831,0.03011250439284632,0.11309345689347242
1.0021657731559972,0.2864808872447173,0.015846001112615107,0.14880372324738836,0.03169774035267,0.14834337487938387
1.0022128551811276,0.335488571803669,0.016382048302768508,0.17945522269565434,0.03207530923266717,0.1790090525613882
1.002259937206258,0.3667004160945303,0.016210504318192386,0.20044309409803335,0.03141964873050074,0.20001656080245545
1.0023070192313883,0.37630521047742305,0.015395497617438575,0.20989430295355302,0.029289693292048277,0.20949405560677414
1.0023541012565187,0.3658732131217113,0.013865725774901324,0.20800353236518512,0.025627541415958268,0.20763962335873812
1.002401183281649,0.3393357840705059,0.01034366568058835,0.19716291122807472,0.021263819394452016,0.19684390468329332
1.0024482653067794,0.30043566038503033,0.006553158487913727,0.1783931936762516,0.01602646614623982,0.1781357070389185
1.0024953473319098,0.25183659939415354,0.0035417742300615303,0.15384153094853617,0.00999246083914193,0.15366670546025565
1.0025424293570402,0.1956066522565673,0.001165222119309316,0.12081929242955049,0.005246185623969535,0.12071840361827066
1.0025895113821706,0.13475970805500284,-0.004055515652998645,0.07564140824241966,0.0006976008686527427,0.075619327699883
1.002636593407301,0.07582916802294695,-0.008956889376684544,0.025728531183742454,-0.002329395496319697,0.02576393656970416
1.0026836754324313,0.03145358980808763,-0.006586578858379718,-0.0040036080406334615,-0.004697084653501297,-0.003924505691559569
1.0027307574575617,0.01779891286180085,-0.000545687434820158,-0.006351274616742859,-0.0018697352821287288,-0.006319115957432289
1.002777839482692,0.04358985242398123,0.0011807512089356677,0.006591376950054447,0.004636236927290387,0.006512960303098939
1.0028249215078224,0.1037077589167159,0.0006682902939083976,0.04281328660270074,0.010451948669958007,0.04263523603444525
1.0028720035329528,0.18101238562213362,0.002571998044353902,0.0979436666785688,0.01613331952019016,0.09767661605588086
1.0029190855580832,0.25636899888384335,0.010440373399486568,0.15380629462607742,0.019621122033983397,0.15349740034569703
1.0029661675832136,0.31832235074100634,0.018842211926267553,0.19704252226634572,0.022444380126990397,0.19670974188290358
1.003013249608344,0.36361141655314383,0.022106386444204887,0.228525784613192,0.026936027263865077,0.2281580441743122
1.0030603316334743,0.39341420767750745,0.0251897768901323,0.24979870354304085,0.030276061532771507,0.24941316759089327
1.0031074136586047,0.4102870696014962,0.027013417744951546,0.26258314989231946,0.032144665203063236,0.262191841789476
1.003154495683735,0.41662904201390033,0.028461242592357897,0.266777273312063,0.03308726900333404,0.2663824289194889
1.0032015777088654,0.41405085665469693,0.029373864959866835,0.26326150551395927,0.0333091563512796,0.26286250510747067
1.0032486597339958,0.4030953535584088,0.0298505920620375,0.251751202986526,0.032564585251980895,0.25134910546587935
1.0032957417591262,0.38301151602067063,0.029760018186526575,0.2324239377319079,0.030734063826678357,0.2320236669500839
1.0033428237842565,0.3514583105172215,0.028717615331109503,0.2047530276495091,0.027689720899329886,0.2043661389790235
1.003389905809387,0.3042863356687068,0.026948502483395042,0.16911475512504195,0.024072609315146442,0.16875362194656024
1.0034369878345173,0.2364892670841809,0.02473335063077131,0.12615890065588273,0.019068672344667283,0.12585257034390698
1.0034840698596477,0.14805992805189566,0.02141962022014369,0.07745804013496241,0.013603075948288803,0.0772288112480241
1.003531151884778,0.05937981673678241,0.018547641959376707,0.035632586371168055,0.009201063680195591,0.03547545329524329
1.0035782339099084,0.016571701488668728,0.01791909378264463,0.012038086514572617,0.007196383851860148,0.011916333195936107
1.0036253159350388,0.04141534161646615,0.02142755780863877,0.014399178728297872,0.007741777065391016,0.014268103082225937
1.0036723979601692,0.0978579156313711,0.02364110145578093,0.03595348541122598,0.008990178505895974,0.03579977952028287
1.0037194799852995,0.14599333246590304,0.023869921618854796,0.06503465797160808,0.011098490385507856,0.06484505424193211
1.00376656201043,0.17300879075255565,0.025114605325810772,0.0922030709843016,0.01317568334375304,0.09198054622669198
1.0038136440355603,0.18229222765708752,0.026100043422728703,0.11374971918924169,0.014050396933101618,0.11351452360421226
1.0038607260606907,0.18262972424027749,0.028331748066689658,0.12736778710133306,0.017869850451929098,0.1270784583365528
1.003907808085821,0.18292620727983336,0.028569423306000995,0.13485525602086357,0.02306708248654784,0.13449637460666478
1.0039548901109514,0.18798821740501145,0.028832964062983506,0.13913083302593265,0.02732044871168058,0.1387185823284083
1.0040019721360818,0.19658928748535154,0.025310173573117645,0.1397247738744464,0.030350233237025803,0.139275465518271
1.0040490541612122,0.20361099360789395,0.026101076132596737,0.1356935801867525,0.0327123085135618,0.13521365221008097
1.0040961361863425,0.20356945018764083,0.026703247825174713,0.1287855413388881,0.03507151109167776,0.12827311598102448
1.004143218211473,0.19261735903368254,0.023488824400047643,0.11776025800915435,0.03564162176595001,0.117233441817978
1.0041903002366033,0.1692114287165738,0.01907964897253899,0.09836742477706704,0.034460728377979366,0.09784308094028028
1.0042373822617336,0.13469585530973552,0.01409623809258658,0.07519967777083232,0.031935827433338,0.0746972737380313
1.004284464286864,0.094068350002802,0.011602762062800313,0.051842634052145065,0.027904293192296405,0.051390351346135996
1.0043315463119944,0.0558705414627791,0.009873091395941452,0.03082107495389939,0.0224288778099651,0.030449687255471865
1.0043786283371248,0.029785725493520713,0.00902150222481219,0.019809015244991575,0.017005928022068732,0.01952470419427581
1.0044257103622551,0.022326134922130727,0.0092983600799065,0.01684685304795892,0.011855515641193578,0.016647393582286642
1.0044727923873855,0.03362727707623793,0.00927577665897707,0.01768087969631584,0.009141224690520514,0.017526266563013548
1.004519874412516,0.057935866130881315,0.009361976927141507,0.0238553638180855,0.007969252260596641,0.02371955865722949
1.0045669564376463,0.08691312585069338,0.010465441205816495,0.038233159934289905,0.009516375801928097,0.03807066612278214
1.0046140384627766,0.11302745450084833,0.011796556559457126,0.05542672474865837,0.01348004103226683,0.0551994893788132
1.004661120487907,0.13143773576861661,0.01149539826233689,0.07126698378066398,0.01685532807959587,0.07098722225219921
1.0047082025130374,0.140315951549541,0.010243605682085743,0.0817840112464661,0.01842570479092161,0.0814811755247152
1.0047552845381678,0.14016084842095028,0.00839027743319418,0.0846685751900148,0.01771518196449286,0.08437673162705056
1.0048023665632981,0.13271042804166153,0.00681752886874405,0.08028160564993014,0.015456405117619266,0.08002382469794525
1.0048494485884285,0.1199532079956697,0.006459877176828127,0.06958311394397716,0.014353723808817404,0.06934211348115153
1.0048965306135589,0.10352759540252561,0.003998068380924543,0.05738407400153901,0.012982814271597375,0.05716472204976255
1.0049436126386893,0.08458770500586026,-0.0018796564315206382,0.04469505929439128,0.010084646499547519,0.04452285190632292
1.0049906946638196,0.06411017510052013,-0.006380597077151431,0.03435472552873721,0.007400805991959123,0.03422725384123252
1.00503777668895,0.043500849939608656,-0.008999547848660494,0.022887706523455283,0.0045467177859973154,0.02280872840619925
1.0050848587140804,0.02497562650004661,-0.012012145050505628,0.013888116903115118,0.0028646981082686785,0.013838314520496815
1.0051319407392107,0.011013597455985432,-0.01197518194137483,0.011624969459267675,0.0012801266950896954,0.01160193847867712
1.0051790227643411,0.003334338693202587,-0.012139412693771192,0.009001101837417943,0.00028683410209307203,0.00899504394313162
1.0052261047894715,0.0027948227754708652,-0.01220794842478774,0.005716764128480125,0.0015393237171131495,0.005690217472420941
1.0052731868146019,0.010164673003053454,-0.012873978475678304,0.005314070387151807,0.0012524101495714147,0.005292377490842686
1.0053202688397322,0.026566180290056158,-0.013584871081558512,0.008193549268036414,0.0009951040794328667,0.008175759060325279
1.0053673508648626,0.05291846997433676,-0.014140400919692814,0.011498759854167706,0.0026629373433747793,0.011452646238530163
1.005414432889993,0.08828034555015178,-0.0129760222027645,0.017065936640710815,0.004753961488918795,0.016984236287320004
1.0054615149151234,0.12763762777320273,-0.011411551058296412,0.025647230237824777,0.0077388839934847365,0.02551505372010837
1.0055085969402537,0.16155770115500132,-0.009536141052897237,0.038076850744054896,0.013492866353328857,0.03784970742725869
1.0055556789653841,0.18078890709766565,-0.008419260312320001,0.05135766337998839,0.02049452105885275,0.051019633387352756
1.0056027609905145,0.18307418566708303,-0.007655650817009627,0.06056084021799014,0.02704548927989922,0.06012427703227123
1.0056498430156449,0.1741533504439713,-0.007923620440914667,0.06655908741414072,0.02867174178632451,0.06610032119103956
1.0056969250407752,0.16242605985016223,-0.007881824797300934,0.07063087442771013,0.028263127542574665,0.0701795730259349
1.0057440070659056,0.15418810481596457,-0.006581090891954433,0.07107575192890922,0.024600106854343443,0.07067864688137618
1.005791089091036,0.1523552110015489,-0.004701583320267194,0.0660360559428213,0.019611715425252727,0.06571344538002548
1.0058381711161664,0.15691036178882456,-0.0021505017659886392,0.06130313889977103,0.015779765562233167,0.06103963018468838
1.0058852531412967,0.16538784679386007,0.001505381372052003,0.06307528196508604,0.013569816119840752,0.0628465631315816
1.005932335166427,0.17322460684996496,0.0015435755293835638,0.06323184659303546,0.01051833138516331,0.06305157385297488
1.0059794171915575,0.17475929729964576,0.0010313581712165123,0.05880087400333982,0.006879285411019241,0.05867955311522552
1.0060264992166879,0.16548577922015562,0.0016070403170913765,0.05204155960234529,0.0027728833088678587,0.051988289115731556
1.0060735812418182,0.1445721481217929,0.0018106298861597148,0.04234591607178599,-0.0004447411366830919,0.04234742454534112
1.0061206632669486,0.11538472372115638,0.0026787473448169567,0.03266210113426135,-0.003678288285112692,0.03271919825435923
1.006167745292079,0.08342022676517998,0.0006766797144888886,0.0259645785337829,-0.007058629122172617,0.026079574169373034
1.0062148273172093,0.053714935068683495,-0.000574572368841639,0.01794830890199036,-0.010344469946173883,0.018119755920951025
1.0062619093423397,0.029620632829972474,-0.001556241779042005,0.006428025048282717,-0.01260889705010332,0.006638599478628224
1.00630899136747,0.012907514843990737,-0.002248665589978146,-0.004503164505502606,-0.011364354745785683,-0.00431268077420189
1.0063560733926005,0.004292560353454192,-0.00312555050061263,-0.010519166817943732,-0.009525224726375356,-0.010358823609154685
1.0064031554177308,0.0038095921685766332,-0.003451492434091979,-0.007972360122875525,-0.004624560606144713,-0.00789396228431866
1.0064502374428612,0.010924293923755681,-0.0019983315900630972,0.0013341291502741227,0.0026605829675014274,0.0012894327711704167
1.0064973194679916,0.02453035587728399,-0.0004291683865188167,0.011333716656649779,0.010221846334669946,0.01116172385080458
1.006544401493122,0.042966387475684646,0.0009126443624677461,0.020787738978896356,0.017908366020840224,0.0204886806453395
1.0065914835182523,0.06411092062196938,0.0013738944973894526,0.03329944681240632,0.02186834375297441,0.0329373805473304
1.0066385655433827,0.08556714248621351,0.0009522001647869209,0.049462130528264495,0.022186616171590415,0.04909742618808563
1.006685647568513,0.10493697207975199,0.0007629682491252256,0.06485229624100503,0.020483856077972727,0.06451616875304123
1.0067327295936435,0.12014720761669652,0.00127363070223024,0.07640706666955516,0.016329488489843218,0.0761356974509642
1.0067798116187738,0.12974860817624662,0.002163090359148042,0.08294186479002422,0.012101663073547334,0.08273595881243229
1.0068268936439042,0.1331160769266914,0.004800504066659336,0.08436945777741765,0.008549767852742939,0.08421926386432532
1.0068739756690346,0.13051634907150206,0.005334480962858139,0.08386978816652868,0.006523187695284512,0.08375190862515723
1.006921057694165,0.12301693370584733,0.0026697552486862866,0.08185258015702256,0.0045892495779136806,0.08176604151360245
1.0069681397192953,0.11219272060745543,-0.00031740656123869425,0.07585112215539112,0.0025251116287804787,0.07579892237347903
1.0070152217444257,0.09964098937742749,-0.003091825353784791,0.06985230351433948,0.000776810696074234,0.0698296928133414
1.007062303769556,0.08648287672211809,-0.005651424655171288,0.06302251331950957,-0.0025461802019828526,0.06305627703520411
1.0071093857946865,0.07315337862299943,-0.007131279238185722,0.053521194673379444,-0.00523693409705432,0.05360170011794236
1.0071564678198168,0.05967551136841471,-0.007905593106023831,0.042771215350936226,-0.005243000387312125,0.042853307193124246
1.0072035498449472,0.046352747241279996,-0.009809457229324626,0.029687677967592516,-0.005651369005106348,0.029778429183443866
1.0072506318700776,0.03458526276589038,-0.01131281303486133,0.01916866027493343,-0.00612580115685627,0.019268773800825603
1.007297713895208,0.02727830692374265,-0.012115671964552781,0.01473006896934623,-0.006017961055397746,0.014828929813169734
1.0073447959203383,0.0280866607277734,-0.012283580900490153,0.01711698325886342,-0.0047275307504936175,0.017193841703351358
1.0073918779454687,0.03925806445151868,-0.011154743437872844,0.028584290137595406,-0.0031646928623528404,0.028633319242774406
1.007438959970599,0.059562255279517966,-0.009244333667839368,0.043832242766228824,-0.0018146678618475801,0.04385646505042616
1.0074860419957294,0.08449757331606145,-0.00725607354680394,0.058037587268334905,-0.0023150751369144453,0.05806818397813155
1.0075331240208598,0.10858230355013457,-0.00589011115164314,0.06858033205585247,-0.002753234164681134,0.06861677634443886
1.0075802060459902,0.12742598805780986,-0.00572578928257622,0.07621925524513734,-0.0024957057099055917,0.07625027692803198
1.0076272880711206,0.13840784538629322,-0.005989468459691724,0.07904744927672683,-0.0020563497404698173,0.07907070282795134
1.007674370096251,0.14057521646913557,-0.007276197254570666,0.0769603579802706,-0.000372856131376688,0.07695583760921765
