freq,gls,usurper,pdc_unbiased,shape_periodogram,shift_periodogram
1.0,0.02176245538732735,0.012872642424976894,-0.007335655112181927,0.013027499957665594,-0.007608992143731453
1.0000470820251304,0.05134779247241603,0.01628112067255252,0.016081221596065367,0.013920128443265234,0.015786158636536405
1.0000941640502607,0.09689124580742478,0.02111291114157359,0.05094334186944231,0.016621668092337224,0.05059036796870516
1.0001412460753911,0.14848755125694818,0.024980136193605573,0.08456655871201842,0.023096512699365253,0.0840890086291933
1.0001883281005215,0.19664060203551523,0.028707715675958537,0.10917973127593883,0.03396859506551193,0.10851502928904401
1.0002354101256519,0.23592916525893703,0.03290595031741431,0.12678225514793529,0.04404592814104136,0.12596946745011958
1.0002824921507822,0.26363730657080775,0.03771905127158322,0.13936052532630389,0.051501596016860544,0.13845709037943227
1.0003295741759126,0.2780607972143743,0.04062712441549223,0.14663287491158739,0.05542468614536277,0.14569023029945236
1.000376656201043,0.27778293516045677,0.04095533281143313,0.14742341655727248,0.058354595347708475,0.1464462932176677
1.0004237382261734,0.2619162710265795,0.04002479206357978,0.139633635428265,0.05891218219288328,0.13863461592122545
1.0004708202513037,0.23107843684954268,0.037518245196085376,0.12167319492364326,0.05724039423508757,0.1206625718543957
1.0005179022764341,0.1884924826566669,0.034117165610177566,0.09811663264576473,0.05468636230407412,0.09710379801683401
1.0005649843015645,0.1401213853463462,0.032415824963260634,0.07552593926328457,0.05264415501048698,0.07451275652283566
1.0006120663266949,0.09311329616242185,0.03241882424488637,0.056936636782797936,0.05038951704727685,0.05593881761970294
1.0006591483518252,0.05338098213176131,0.034465389816347475,0.04656239048066332,0.047164244210008165,0.04561268761022451
1.0007062303769556,0.024158292773911582,0.03601989172110005,0.0379052596807291,0.04175391866590784,0.03705170431184948
1.000753312402086,0.006389706849983347,0.037792148535149374,0.024925530867037873,0.03499240944262776,0.024198592878484013
1.0008003944272164,4.4957735270936574e-05,0.03889823999521912,0.013623927240606612,0.029697597143694247,0.013001416376743801
1.0008474764523467,0.004476680458159687,0.03889775849683564,0.005279248516488982,0.028483290937311438,0.004680180642581589
1.000894558477477,0.016631009383087918,0.043141697001602794,0.00604487589630294,0.03087760561939607,0.005395900915093518
1.0009416405026075,0.030279800796216314,0.04913420516856997,0.01614856324889533,0.03659292449189273,0.015384975891768427
1.0009887225277379,0.04019506929021177,0.055167908826448245,0.031662352407458065,0.044946335323767544,0.030741248973321835
1.0010358045528682,0.045271217739530065,0.0590047800436422,0.049643587368788454,0.055524208195801686,0.0485422687883591
1.0010828865779986,0.04665854735345898,0.06389518732218134,0.06394396252727896,0.0647457776810197,0.06270561306696656
1.001129968603129,0.04557434040645729,0.06589783658040763,0.06951556918541625,0.07199867112225833,0.06817087596728898
1.0011770506282593,0.04281463251624272,0.0651869192999106,0.06676401531502141,0.07510334691187995,0.06536182852547796
1.0012241326533897,0.03911406922799136,0.06289588908986739,0.05756222886158259,0.07363021238338764,0.0561584059333549
1.00127121467852,0.035734840091298535,0.05823609265891805,0.04469056838221148,0.06906594247428373,0.043333741979782396
1.0013182967036505,0.034632288517627896,0.054520783907589215,0.03354469161607427,0.06508421527249054,0.032237176376579246
1.0013653787287808,0.03686446430802818,0.05175114400723571,0.03235087082016887,0.0632604808726458,0.031075715113974032
1.0014124607539112,0.040499198873267514,0.05057342681205133,0.04235422606047071,0.06404446565873348,0.04108387676961489
1.0014595427790416,0.04245011553894062,0.052084333772283685,0.05148956578485458,0.06725901381207428,0.050180616959155315
1.001506624804172,0.04142424671447975,0.054251275743407795,0.057489670337512934,0.06846066818776038,0.056173618450298016
1.0015537068293023,0.03772147907862947,0.05650802539858687,0.05838903434484734,0.06583137723535916,0.05712023222714344
1.0016007888544327,0.032149333674356434,0.055338816925275994,0.05286952532393206,0.05958995456616224,0.051699713423864785
1.001647870879563,0.025799799790141527,0.05010205536207615,0.040386054375886556,0.05004036683899808,0.03937509517909291
1.0016949529046935,0.020580986012262138,0.04313097702482871,0.02276083148008517,0.038974404156619326,0.021952326010325422
1.0017420349298238,0.01993155776046648,0.03979756888284789,0.008396000375120035,0.031499379990266634,0.007734708300332081
1.0017891169549542,0.027489951613850306,0.03906245699753312,0.00883020356959996,0.031889225510131514,0.00816092593896006
1.0018361989800846,0.042074300128446054,0.03943127512214063,0.022145335055818467,0.03572899662116947,0.021402217082716585
1.001883281005215,0.05845891480384451,0.04412832321174357,0.04104344236602053,0.04291396516634673,0.040169825562791604
1.0019303630303453,0.07582159493280267,0.04610482548573306,0.05832937685591873,0.05154916097569031,0.057312312980163385
1.0019774450554757,0.09824195100672209,0.044216531553845105,0.07041397317164165,0.06124130682536955,0.06924753854249927
1.002024527080606,0.1303669711588208,0.03875314490796304,0.07896421651578898,0.06552037651331952,0.07774575596521276
1.0020716091057364,0.17464242099810953,0.034191660035635306,0.08832693698111686,0.06777660150111234,0.08709538031488145
1.0021186911308668,0.22917237164395338,0.0333257928179345,0.11355266104308831,0.07005517611522247,0.11235317618778312
1.0021657731559972,0.2864808872447173,0.03530810277186423,0.14880372324738836,0.07280795184371244,0.14767175165755655
1.0022128551811276,0.335488571803669,0.0373596688271521,0.17945522269565434,0.0755085229556599,0.17839527587131127
1.002259937206258,0.3667004160945303,0.037982665689098055,0.20044309409803335,0.07684761186542531,0.19944433055950198
1.0023070192313883,0.37630521047742305,0.037053104449786385,0.20989430295355302,0.07624562214774662,0.20893006897182234
1.0023541012565187,0.3658732131217113,0.03513391924503522,0.20800353236518512,0.07403284909179306,0.20704362229376902
1.002401183281649,0.3393357840705059,0.032780869612905016,0.19716291122807472,0.07140182062296305,0.19618496504826843
1.0024482653067794,0.30043566038503033,0.03027967272172769,0.1783931936762516,0.06571548131570233,0.17740749346261278
1.0024953473319098,0.25183659939415354,0.028144636777573177,0.15384153094853617,0.05468867642814677,0.15292040157385786
1.0025424293570402,0.1956066522565673,0.024538991173740185,0.12081929242955049,0.04032647719633411,0.12005831792340238
1.0025895113821706,0.13475970805500284,0.022204999522268995,0.07564140824241966,0.0217844585466887,0.0751876280395124
1.002636593407301,0.07582916802294695,0.020965175284834235,0.025728531183742454,0.005634295486021246,0.02560470242375413
1.0026836754324313,0.03145358980808763,0.01619062825837639,-0.0040036080406334615,0.003924871621658702,-0.0040854019870156825
1.0027307574575617,0.01779891286180085,0.013340122204815584,-0.006351274616742859,0.018285992871658642,-0.006736045239235651
1.002777839482692,0.04358985242398123,0.017149748052970894,0.006591376950054447,0.03549017537770917,0.0058462679899793915
1.0028249215078224,0.1037077589167159,0.029016978018121028,0.04281328660270074,0.05029490541068522,0.04180031736644495
1.0028720035329528,0.18101238562213362,0.04266944158374551,0.0979436666785688,0.05595844585673873,0.09691088461158363
1.0029190855580832,0.25636899888384335,0.051438399601253224,0.15380629462607742,0.05770592543384977,0.1528490777769496
1.0029661675832136,0.31832235074100634,0.05365229936905917,0.19704252226634572,0.06013517006997346,0.19614808110457563
1.003013249608344,0.36361141655314383,0.056897859097272886,0.228525784613192,0.06050334570688406,0.2276971632948547
1.0030603316334743,0.39341420767750745,0.05794162765498695,0.24979870354304085,0.05829844337461703,0.2490289817762893
1.0031074136586047,0.4102870696014962,0.05741082454797307,0.26258314989231946,0.05673204713627823,0.2618479782873741
1.003154495683735,0.41662904201390033,0.05601148885542912,0.266777273312063,0.054355879281641976,0.2660627140063736
1.0032015777088654,0.41405085665469693,0.05382842004479024,0.26326150551395927,0.05113378027073398,0.2625597475766412
1.0032486597339958,0.4030953535584088,0.05081680378946646,0.251751202986526,0.04700399157619957,0.25106134051272
1.0032957417591262,0.38301151602067063,0.046926561579811385,0.2324239377319079,0.04200063482144767,0.2317546588793276
1.0033428237842565,0.3514583105172215,0.04205869761595694,0.2047530276495091,0.036139925595907514,0.20412343511375233
1.003389905809387,0.3042863356687068,0.03600109592627967,0.16911475512504195,0.02977419821646447,0.16855052672871343
1.0034369878345173,0.2364892670841809,0.02927587596326768,0.12615890065588273,0.023125483093889863,0.1256889925662386
1.0034840698596477,0.14805992805189566,0.022667256149504007,0.07745804013496241,0.016314208364796384,0.07711068546583048
1.003531151884778,0.05937981673678241,0.018813253918246228,0.035632586371168055,0.011019135084867761,0.03539523199242275
1.0035782339099084,0.016571701488668728,0.020214293596725698,0.012038086514572617,0.0093102610615471,0.011839911255302525
1.0036253159350388,0.04141534161646615,0.02809319538277769,0.014399178728297872,0.015368096204038988,0.014074115729885204
1.0036723979601692,0.0978579156313711,0.04064002031206333,0.03595348541122598,0.02940168796177721,0.03534280379577248
1.0037194799852995,0.14599333246590304,0.05744862135989191,0.06503465797160808,0.043186443879303434,0.06417616044506588
1.00376656201043,0.17300879075255565,0.07088295935799183,0.0922030709843016,0.053928852337514925,0.09119300663432829
1.0038136440355603,0.18229222765708752,0.07856444843306669,0.11374971918924169,0.05980162252803637,0.11268869798918367
1.0038607260606907,0.18262972424027749,0.08004636696502265,0.12736778710133306,0.0622769283340797,0.1263012503277127
1.003907808085821,0.18292620727983336,0.08218716558699543,0.13485525602086357,0.061950796824984486,0.13380880720905183
1.0039548901109514,0.18798821740501145,0.08356127404094237,0.13913083302593265,0.062351302086494774,0.13808869952072647
1.0040019721360818,0.19658928748535154,0.0807149968553855,0.1397247738744464,0.06194286375015732,0.13868883404692103
1.0040490541612122,0.20361099360789395,0.07510657334100586,0.1356935801867525,0.06348969059065945,0.13463013827269724
1.0040961361863425,0.20356945018764083,0.06774168662842975,0.1287855413388881,0.062069804774330106,0.1277246748125415
1.004143218211473,0.19261735903368254,0.061635438129584844,0.11776025800915435,0.060654853433801614,0.11669532723377672
1.0041903002366033,0.1692114287165738,0.053584746213118685,0.09836742477706704,0.05664524144414958,0.0973248023651408
1.0042373822617336,0.13469585530973552,0.04448667850982386,0.07519967777083232,0.04910572244710955,0.07424671408675372
1.004284464286864,0.094068350002802,0.034789212127008765,0.051842634052145065,0.0402986365010246,0.051027240104765864
1.0043315463119944,0.0558705414627791,0.02556474032538299,0.03082107495389939,0.030275792699934818,0.03019139756399049
1.0043786283371248,0.029785725493520713,0.020056934148106612,0.019809015244991575,0.021143528534655773,0.019363954232405285
1.0044257103622551,0.022326134922130727,0.017700468792885775,0.01684685304795892,0.014347907838780661,0.016542799942037768
1.0044727923873855,0.03362727707623793,0.01776958507081265,0.01768087969631584,0.011023985302061029,0.017445977490329258
1.004519874412516,0.057935866130881315,0.020087826458838214,0.0238553638180855,0.011286889944992825,0.023614094692880127
1.0045669564376463,0.08691312585069338,0.024371633477371115,0.038233159934289905,0.016627100303439106,0.03788053953749396
1.0046140384627766,0.11302745450084833,0.029159435537326105,0.05542672474865837,0.027085922033927,0.05486674754386147
1.004661120487907,0.13143773576861661,0.034067737263966946,0.07126698378066398,0.03988446915700023,0.07047346003575518
1.0047082025130374,0.140315951549541,0.039404996942991675,0.0817840112464661,0.052222898991617174,0.08078663865893748
1.0047552845381678,0.14016084842095028,0.04007563054193202,0.0846685751900148,0.06211641200542278,0.08351582525975945
1.0048023665632981,0.13271042804166153,0.038371227545841144,0.08028160564993014,0.06950786198472243,0.0790039378221464
1.0048494485884285,0.1199532079956697,0.03401009462937441,0.06958311394397716,0.07390986076553141,0.06820804597337464
1.0048965306135589,0.10352759540252561,0.031868575862232205,0.05738407400153901,0.07524560375646384,0.05595255657582895
1.0049436126386893,0.08458770500586026,0.029694993197707048,0.04469505929439128,0.07202108672820341,0.043285089383157095
1.0049906946638196,0.06411017510052013,0.02671841138633865,0.03435472552873721,0.0660942740684544,0.03302977187542269
1.00503777668895,0.043500849939608656,0.022432657101197,0.022887706523455283,0.059021348197929736,0.02167842431216453
1.0050848587140804,0.02497562650004661,0.0173560607205976,0.013888116903115118,0.05150542424185503,0.012817705079396436
1.0051319407392107,0.011013597455985432,0.011950441860157405,0.011624969459267675,0.04449911674415982,0.010696071602281915
1.0051790227643411,0.003334338693202587,0.00923117794772594,0.009001101837417943,0.03540771897771247,0.008258730333667676
1.0052261047894715,0.0027948227754708652,0.007053014549158794,0.005716764128480125,0.02298209873838206,0.005232929361003521
1.0052731868146019,0.010164673003053454,0.007753293835228553,0.005314070387151807,0.011929346785879256,0.005062046918909754
1.0053202688397322,0.026566180290056158,0.009530126245638275,0.008193549268036414,0.005152017926027908,0.008083356151942457
1.0053673508648626,0.05291846997433676,0.010881925441262777,0.011498759854167706,0.0013365892680236417,0.011468079363534727
1.005414432889993,0.08828034555015178,0.01022427097050388,0.017065936640710815,-0.00021915143846131454,0.017066766669096182
1.0054615149151234,0.12763762777320273,0.010801569890185507,0.025647230237824777,0.0010215844349582067,0.02562006793735973
1.0055085969402537,0.16155770115500132,0.013072960621693996,0.038076850744054896,0.0067927032871162385,0.03792655772621782
1.0055556789653841,0.18078890709766565,0.015996233802769492,0.05135766337998839,0.015405322749595234,0.05102920375878448
1.0056027609905145,0.18307418566708303,0.017104031724959924,0.06056084021799014,0.02492711331841891,0.06004397875701196
1.0056498430156449,0.1741533504439713,0.019418758881858653,0.06655908741414072,0.034342181921914836,0.06586462411535682
1.0056969250407752,0.16242605985016223,0.020490139222930998,0.07063087442771013,0.04230767720087982,0.06979310851445089
1.0057440070659056,0.15418810481596457,0.018586754041973328,0.07107575192890922,0.04746656770584656,0.07014662584893583
1.005791089091036,0.1523552110015489,0.014653885675238546,0.0660360559428213,0.049361673787143706,0.0650676555610206
1.0058381711161664,0.15691036178882456,0.012900584747494392,0.06130313889977103,0.04900824047224311,0.06033550069495303
1.0058852531412967,0.16538784679386007,0.01287114839314985,0.06307528196508604,0.04602901144923169,0.062163364509096944
1.005932335166427,0.17322460684996496,0.013458999677855441,0.06323184659303546,0.041683250233259916,0.062399296010724296
1.0059794171915575,0.17475929729964576,0.011567892959590221,0.05880087400333982,0.03612318061700995,0.05806883665838131
1.0060264992166879,0.16548577922015562,0.009276204838784219,0.05204155960234529,0.03160029997670363,0.051392856771870485
1.0060735812418182,0.1445721481217929,0.007438831930544259,0.04234591607178599,0.027042590449883944,0.04178382756218193
1.0061206632669486,0.11538472372115638,0.005706777673343339,0.03266210113426135,0.023683367461981353,0.03216592545456403
1.006167745292079,0.08342022676517998,0.0060657301329254025,0.0259645785337829,0.021225254191855027,0.025518039328222303
1.0062148273172093,0.053714935068683495,0.008209815626854881,0.01794830890199036,0.019456021976264098,0.01753812543951352
1.0062619093423397,0.029620632829972474,0.011210287564671248,0.006428025048282717,0.020186294036664155,0.006002752186490975
1.00630899136747,0.012907514843990737,0.013654785013883012,-0.004503164505502606,0.01965460649654996,-0.004917000532611634
1.0063560733926005,0.004292560353454192,0.017197692398615114,-0.010519166817943732,0.01933731692070531,-0.01092602383099657
1.0064031554177308,0.0038095921685766332,0.020547712630097612,-0.007972360122875525,0.020136043813829965,-0.008396288939866534
1.0064502374428612,0.010924293923755681,0.02511920395984123,0.0013341291502741227,0.02167656142644786,0.0008775621969484205
1.0064973194679916,0.02453035587728399,0.0309001539486408,0.011333716656649779,0.024519182049121773,0.01081821086690967
1.006544401493122,0.042966387475684646,0.03558238558370223,0.020787738978896356,0.027078245518843493,0.020220671991732834
1.0065914835182523,0.06411092062196938,0.040088846216154654,0.03329944681240632,0.030015858699421975,0.03267571653503837
1.0066385655433827,0.08556714248621351,0.045056391312171026,0.049462130528264495,0.03319444175945125,0.04878150575087445
1.006685647568513,0.10493697207975199,0.047546269627198975,0.06485229624100503,0.03653696201141515,0.06411598201446123
1.0067327295936435,0.12014720761669652,0.047298055201578544,0.07640706666955516,0.038544464102596335,0.0756414382305821
1.0067798116187738,0.12974860817624662,0.04458292517150379,0.08294186479002422,0.037742211361774504,0.08219507460593589
1.0068268936439042,0.1331160769266914,0.04119970022741603,0.08436945777741765,0.03502899145381321,0.08367200139051435
1.0068739756690346,0.13051634907150206,0.03860684964548395,0.08386978816652868,0.03152796361810566,0.0832354130245486
1.006921057694165,0.12301693370584733,0.03514337341896059,0.08185258015702256,0.02532002826725891,0.08133256183327307
1.0069681397192953,0.11219272060745543,0.029869836280630974,0.07585112215539112,0.019139082065973437,0.07544855071817005
1.0070152217444257,0.09964098937742749,0.02338412945057333,0.06985230351433948,0.013747529689517165,0.06955603308639806
1.007062303769556,0.08648287672211809,0.01809779150972869,0.06302251331950957,0.009837382969286884,0.06280568706008316
1.0071093857946865,0.07315337862299943,0.012911726404295065,0.053521194673379444,0.0071343331800301875,0.053361118008707964
1.0071564678198168,0.05967551136841471,0.0071155352859521214,0.042771215350936226,0.004921804311421519,0.04265890076776601
1.0072035498449472,0.046352747241279996,0.0032830328164345376,0.029687677967592516,0.0047110245953757655,0.029582351329478538
1.0072506318700776,0.03458526276589038,0.0001836166371145603,0.01916866027493343,0.0054312450719115855,0.019050380114256388
1.007297713895208,0.02727830692374265,-0.0006063436394441531,0.01473006896934623,0.006310659357339576,0.01459424288503787
1.0073447959203383,0.0280866607277734,0.0003715028764615297,0.01711698325886342,0.009011590008917832,0.016924186496416027
1.0073918779454687,0.03925806445151868,0.003832681247598592,0.028584290137595406,0.014040768940640389,0.028285422005500632
1.007438959970599,0.059562255279517966,0.00974431138307243,0.043832242766228824,0.01975068046416628,0.04341625877223854
1.0074860419957294,0.08449757331606145,0.015354711731600681,0.058037587268334905,0.027341538837657352,0.057473277957183246
1.0075331240208598,0.10858230355013457,0.01984809326140668,0.06858033205585247,0.03348370796887114,0.06790289144745967
1.0075802060459902,0.12742598805780986,0.021954893365973522,0.07621925524513734,0.03782399115068128,0.07546648242736927
1.0076272880711206,0.13840784538629322,0.023783504276106912,0.07904744927672683,0.041127920032821064,0.07823773986740591
1.007674370096251,0.14057521646913557,0.023511574077152188,0.0769603579802706,0.04333359124532495,0.07610992435071198
1.0077214521213813,0.1345761316442056,0.02075007051063851,0.07084930100861353,0.04368051704602769,0.06998711576688689
1.0077685341465117,0.12269802495893224,0.018177135330216372,0.062425783036096825,0.03986282378750963,0.06162617007127093
