freq,gls,usurper,pdc_unbiased,shape_periodogram,shift_periodogram
1.0,0.02176245538732735,0.021267665594359532,-0.007335655112181927,0.000181214465165192,-0.007334388231706254
1.0000470820251304,0.05134779247241603,0.04269634961535766,0.016081221596065367,0.015008638147202082,0.015224244627958839
1.0000941640502607,0.09689124580742478,0.06550925699662505,0.05094334186944231,0.036926392688773256,0.048853398653957124
1.0001412460753911,0.14848755125694818,0.08938516288199123,0.08456655871201842,0.05734950092556408,0.08141530202665385
1.0001883281005215,0.19664060203551523,0.1081813743026269,0.10917973127593883,0.0747382459986555,0.10522133516591249
1.0002354101256519,0.23592916525893703,0.11983901111309692,0.12678225514793529,0.08726423330928253,0.12231096670092031
1.0002824921507822,0.26363730657080775,0.12679237869371013,0.13936052532630389,0.09411357332992107,0.1346513048245386
1.0003295741759126,0.2780607972143743,0.1303132735395083,0.14663287491158739,0.09831410508399732,0.14178873990813015
1.000376656201043,0.27778293516045677,0.13064768454312636,0.14742341655727248,0.10058929522830566,0.14249229117771472
1.0004237382261734,0.2619162710265795,0.12634625794537177,0.139633635428265,0.10010974881445384,0.13467779924431372
1.0004708202513037,0.23107843684954268,0.11596146242014094,0.12167319492364326,0.09646444521802944,0.11677708290774044
1.0005179022764341,0.1884924826566669,0.1021372274868413,0.09811663264576473,0.09050268438444865,0.09338505101064952
1.0005649843015645,0.1401213853463462,0.09111858848155843,0.07552593926328457,0.08515240740254303,0.07097161804094518
1.0006120663266949,0.09311329616242185,0.08409481027463822,0.056936636782797936,0.07980110909369094,0.052600894123668786
1.0006591483518252,0.05338098213176131,0.08311732132026073,0.04656239048066332,0.07366645137724245,0.04252382164577665
1.0007062303769556,0.024158292773911582,0.08253764478390352,0.0379052596807291,0.06613440268865783,0.03425320315249016
1.000753312402086,0.006389706849983347,0.07743876959485341,0.024925530867037873,0.056586462325772746,0.02177952294606836
1.0008003944272164,4.4957735270936574e-05,0.07448689444563306,0.013623927240606612,0.04779622152928053,0.010959588389166467
1.0008474764523467,0.004476680458159687,0.07035593011889153,0.005279248516488982,0.044661322899498826,0.0027917560433242264
1.000894558477477,0.016631009383087918,0.07175304317313978,0.00604487589630294,0.04728414815840588,0.003411487034808751
1.0009416405026075,0.030279800796216314,0.08277076687184601,0.01614856324889533,0.05567051721886257,0.013050787080834432
1.0009887225277379,0.04019506929021177,0.10006734870065363,0.031662352407458065,0.0695773625185362,0.02781898382073902
1.0010358045528682,0.045271217739530065,0.11875499079916688,0.049643587368788454,0.08532052507063005,0.04500474262974731
1.0010828865779986,0.04665854735345898,0.12806634463648814,0.06394396252727896,0.10047211414246948,0.05858819003766401
1.001129968603129,0.04557434040645729,0.13029162667113203,0.06951556918541625,0.11152367215629842,0.06364673283825974
1.0011770506282593,0.04281463251624272,0.12369460990073203,0.06676401531502141,0.11670230540276165,0.06062712593315804
1.0012241326533897,0.03911406922799136,0.11242090235882862,0.05756222886158259,0.11763870451668694,0.05131969995936314
1.00127121467852,0.035734840091298535,0.09942741127343366,0.04469056838221148,0.11525144869811847,0.038488816429586764
1.0013182967036505,0.034632288517627896,0.08962198285278779,0.03354469161607427,0.113806662581646,0.027354121134168102
1.0013653787287808,0.03686446430802818,0.09287527219834876,0.03235087082016887,0.11514864889842266,0.026082745749638953
1.0014124607539112,0.040499198873267514,0.10499226604091222,0.04235422606047071,0.11924425241203043,0.03593272996087904
1.0014595427790416,0.04245011553894062,0.11703139259003596,0.05148956578485458,0.1229752423997879,0.044939564311422105
1.001506624804172,0.04142424671447975,0.1250924145887553,0.057489670337512934,0.12249346250272025,0.05100611156414609
1.0015537068293023,0.03772147907862947,0.12587954380803118,0.05838903434484734,0.11723961379718445,0.0521716281896288
1.0016007888544327,0.032149333674356434,0.12058554937729678,0.05286952532393206,0.1053398959431536,0.04721744716609887
1.001647870879563,0.025799799790141527,0.10828825406181429,0.040386054375886556,0.08826165759170626,0.03556754022415837
1.0016949529046935,0.020580986012262138,0.09093693220295777,0.02276083148008517,0.0682679090978834,0.01897822076365
1.0017420349298238,0.01993155776046648,0.07572810542452212,0.008396000375120035,0.05255156869627645,0.0054700915423124075
1.0017891169549542,0.027489951613850306,0.07040796196463668,0.00883020356959996,0.04780444176706078,0.006166963721583739
1.0018361989800846,0.042074300128446054,0.07214896000457413,0.022145335055818467,0.05278325628561777,0.019206184654100334
1.001883281005215,0.05845891480384451,0.08037917844773323,0.04104344236602053,0.06392271882812578,0.03751222734258754
1.0019303630303453,0.07582159493280267,0.09151697530140572,0.05832937685591873,0.07550546888242778,0.05421725048515132
1.0019774450554757,0.09824195100672209,0.10091898453385562,0.07041397317164165,0.0830765984113949,0.06594745263772557
1.002024527080606,0.1303669711588208,0.10072214492518002,0.07896421651578898,0.08683843918509337,0.0743381715144413
1.0020716091057364,0.17464242099810953,0.0951463632567875,0.08832693698111686,0.08767712113418881,0.08369233140610748
1.0021186911308668,0.22917237164395338,0.10223569046525562,0.11355266104308831,0.08985752112686447,0.10891262559736052
1.0021657731559972,0.2864808872447173,0.11797025493164688,0.14880372324738836,0.09435807159772616,0.14413127414192206
1.0022128551811276,0.335488571803669,0.13292263659981532,0.17945522269565434,0.0986588555366708,0.17478481295885678
1.002259937206258,0.3667004160945303,0.14289208941469173,0.20044309409803335,0.10025244474057335,0.19584587405295234
1.0023070192313883,0.37630521047742305,0.1465925428636201,0.20989430295355302,0.09822180431274459,0.20542407167364654
1.0023541012565187,0.3658732131217113,0.1439605741336348,0.20800353236518512,0.0927468981550284,0.20370544280786793
1.002401183281649,0.3393357840705059,0.13512394510320436,0.19716291122807472,0.08399446876924714,0.19312172089123295
1.0024482653067794,0.30043566038503033,0.12179690665040144,0.1783931936762516,0.0720858281903201,0.17474578438176516
1.0024953473319098,0.25183659939415354,0.10578051778042051,0.15384153094853617,0.057147702971353284,0.15078359311162146
1.0025424293570402,0.1956066522565673,0.08491113144501466,0.12081929242955049,0.041407547305013524,0.11848324748380794
1.0025895113821706,0.13475970805500284,0.05641907595298394,0.07564140824241966,0.023971164443193523,0.0742252910647591
1.002636593407301,0.07582916802294695,0.02712935486996141,0.025728531183742454,0.009935485194825922,0.025138372124977878
1.0026836754324313,0.03145358980808763,0.016787045925075166,-0.0040036080406334615,0.005059038516805861,-0.00427863806406894
1.0027307574575617,0.01779891286180085,0.026888200284661774,-0.006351274616742859,0.014389102386054176,-0.007141858531351623
1.002777839482692,0.04358985242398123,0.03739064128497728,0.006591376950054447,0.03336007788927884,0.004729829921435401
1.0028249215078224,0.1037077589167159,0.05609421656807807,0.04281328660270074,0.05415380141152831,0.039803476671625704
1.0028720035329528,0.18101238562213362,0.08525569124445251,0.0979436666785688,0.07581269594780299,0.09390588279753945
1.0029190855580832,0.25636899888384335,0.11890714791883637,0.15380629462607742,0.09187466839824843,0.14925918607545585
1.0029661675832136,0.31832235074100634,0.14865081690529836,0.19704252226634572,0.09688872811979829,0.19253917552784244
1.003013249608344,0.36361141655314383,0.16451233329885814,0.228525784613192,0.099378704974098,0.2241383311310068
1.0030603316334743,0.39341420767750745,0.17461130825958118,0.24979870354304085,0.1010810186126549,0.24550669959074453
1.0031074136586047,0.4102870696014962,0.17884558358119426,0.26258314989231946,0.10042583887422407,0.25839848842021745
1.003154495683735,0.41662904201390033,0.1787807563217846,0.266777273312063,0.09814195928658154,0.2626808768178291
1.0032015777088654,0.41405085665469693,0.17493341881249264,0.26326150551395927,0.09383496829925086,0.25925698325339336
1.0032486597339958,0.4030953535584088,0.16724174389476218,0.251751202986526,0.08742220710636835,0.24786439171518335
1.0032957417591262,0.38301151602067063,0.1554755821962585,0.2324239377319079,0.07895001296639782,0.22871665077024125
1.0033428237842565,0.3514583105172215,0.13912636541570822,0.2047530276495091,0.0681147780900268,0.20134369188272638
1.003389905809387,0.3042863356687068,0.1179401447390782,0.16911475512504195,0.05512937230941601,0.1661704741278415
1.0034369878345173,0.2364892670841809,0.09251400097413848,0.12615890065588273,0.04039463764222601,0.12387381426050378
1.0034840698596477,0.14805992805189566,0.06419642378620764,0.07745804013496241,0.025553722771503955,0.07595596661174925
1.003531151884778,0.05937981673678241,0.04228331985768162,0.035632586371168055,0.015286064027320457,0.03473364181554568
1.0035782339099084,0.016571701488668728,0.035052518611737894,0.012038086514572617,0.014439063699916588,0.011218322202710726
1.0036253159350388,0.04141534161646615,0.04730075831673391,0.014399178728297872,0.026170720594262502,0.012927248478991354
1.0036723979601692,0.0978579156313711,0.06969264738994016,0.03595348541122598,0.04439141208686888,0.03346820956251441
1.0037194799852995,0.14599333246590304,0.09587135999466073,0.06503465797160808,0.06736420535799313,0.06135177009182683
1.00376656201043,0.17300879075255565,0.1190489637846563,0.0922030709843016,0.0889071180690216,0.0875238882339915
1.0038136440355603,0.18229222765708752,0.13662812811224487,0.11374971918924169,0.10548370791553104,0.10841888367559416
1.0038607260606907,0.18262972424027749,0.14895620965414913,0.12736778710133306,0.11975011283305073,0.12153317531306475
1.003907808085821,0.18292620727983336,0.15585752935181243,0.13485525602086357,0.1306621064116732,0.12866015675507372
1.0039548901109514,0.18798821740501145,0.15969484735567702,0.13913083302593265,0.1357162418332117,0.13279043804154536
1.0040019721360818,0.19658928748535154,0.1592488174064483,0.1397247738744464,0.13720971452730518,0.13333622159342706
1.0040490541612122,0.20361099360789395,0.15827373035836445,0.1356935801867525,0.13454837368569814,0.12936083209475446
1.0040961361863425,0.20356945018764083,0.15344166713999507,0.1287855413388881,0.12875112018456322,0.12260673479097511
1.004143218211473,0.19261735903368254,0.13982819655943576,0.11776025800915435,0.11831207177293179,0.11191009372651073
1.0041903002366033,0.1692114287165738,0.11988136151673896,0.09836742477706704,0.10467815229762983,0.09298470665499599
1.0042373822617336,0.13469585530973552,0.09666336352646762,0.07519967777083232,0.08858624226957659,0.0704753062617895
1.004284464286864,0.094068350002802,0.07505319982066973,0.051842634052145065,0.07044212880935875,0.04798118382924298
1.0043315463119944,0.0558705414627791,0.056643377192515665,0.03082107495389939,0.05212955638175082,0.027917901901004172
1.0043786283371248,0.029785725493520713,0.045347987317397066,0.019809015244991575,0.03710462632577683,0.017729506903027926
1.0044257103622551,0.022326134922130727,0.04110539386211666,0.01684685304795892,0.026935625662947504,0.01532993799726134
1.0044727923873855,0.03362727707623793,0.04265580768870583,0.01768087969631584,0.02344809974885661,0.016355425556556957
1.004519874412516,0.057935866130881315,0.04914016964275767,0.0238553638180855,0.025659599718664036,0.022400921491395217
1.0045669564376463,0.08691312585069338,0.060601691493724755,0.038233159934289905,0.033817539930813816,0.036319299591117626
1.0046140384627766,0.11302745450084833,0.07473622835297183,0.05542672474865837,0.046799578906357074,0.05280938929416911
1.004661120487907,0.13143773576861661,0.08670614528811892,0.07126698378066398,0.06054766578372613,0.0679407029628308
1.0047082025130374,0.140315951549541,0.0955927810572511,0.0817840112464661,0.07291265940634517,0.07785058914286651
1.0047552845381678,0.14016084842095028,0.09877394434405762,0.0846685751900148,0.08240839898109498,0.0802762934796463
1.0048023665632981,0.13271042804166153,0.09642789392399188,0.08028160564993014,0.08674202905598484,0.07566463558815777
1.0048494485884285,0.1199532079956697,0.08992765634325836,0.06958311394397716,0.08905440127863624,0.06481640772515838
1.0048965306135589,0.10352759540252561,0.07976669221819065,0.05738407400153901,0.08699879282158098,0.05268150716571364
1.0049436126386893,0.08458770500586026,0.0673134323405446,0.04469505929439128,0.08168968895473708,0.04023245136898997
1.0049906946638196,0.06411017510052013,0.055158428570158916,0.03435472552873721,0.07525148813852499,0.030211472778470354
1.00503777668895,0.043500849939608656,0.04414948790161921,0.022887706523455283,0.06715442361369124,0.01916577071134207
1.0050848587140804,0.02497562650004661,0.03429712355933396,0.013888116903115118,0.057122276325997874,0.010710128570115355
1.0051319407392107,0.011013597455985432,0.028659086895617865,0.011624969459267675,0.04730237877073271,0.008988519525022214
1.0051790227643411,0.003334338693202587,0.023272090109266588,0.009001101837417943,0.03787985107655007,0.006887051876080963
1.0052261047894715,0.0027948227754708652,0.017539523606524585,0.005716764128480125,0.029453634794546747,0.0040727844696135185
1.0052731868146019,0.010164673003053454,0.013273696113832273,0.005314070387151807,0.019964577536222508,0.004197142673313296
1.0053202688397322,0.026566180290056158,0.01194087360470931,0.008193549268036414,0.012340544184819249,0.007495658720131477
1.0053673508648626,0.05291846997433676,0.013085225160062785,0.011498759854167706,0.009034258702297699,0.010979427428736725
1.005414432889993,0.08828034555015178,0.01791664347013558,0.017065936640710815,0.00786352869185123,0.01660322701038781
1.0054615149151234,0.12763762777320273,0.02365043486176681,0.025647230237824777,0.008455216561879978,0.025139043685613476
1.0055085969402537,0.16155770115500132,0.030633046362466002,0.038076850744054896,0.013478687760556869,0.037273939127014794
1.0055556789653841,0.18078890709766565,0.03739998567004247,0.05135766337998839,0.022277544773309014,0.05005750912467548
1.0056027609905145,0.18307418566708303,0.04190497598493949,0.06056084021799014,0.03259640711408193,0.05869665707116455
1.0056498430156449,0.1741533504439713,0.044376671613078095,0.06655908741414072,0.0392446699342762,0.06433885873339515
1.0056969250407752,0.16242605985016223,0.04616834330348745,0.07063087442771013,0.04434398141852548,0.06814215693819323
1.0057440070659056,0.15418810481596457,0.04707194060961377,0.07107575192890922,0.04699784428154524,0.06844868773141843
1.005791089091036,0.1523552110015489,0.04612721034578149,0.0660360559428213,0.04702974274370702,0.06340686295186046
1.0058381711161664,0.15691036178882456,0.04478565373387686,0.06130313889977103,0.04615909289781762,0.05871950324561522
1.0058852531412967,0.16538784679386007,0.04700097764800158,0.06307528196508604,0.04563307773822374,0.06051928123835814
1.005932335166427,0.17322460684996496,0.04630935378406675,0.06323184659303546,0.04416312540691784,0.060753168631676395
1.0059794171915575,0.17475929729964576,0.043027414946179635,0.05880087400333982,0.04090548257502994,0.05649529570908934
1.0060264992166879,0.16548577922015562,0.03842889415670381,0.05204155960234529,0.036064983154108825,0.049997173964527374
1.0060735812418182,0.1445721481217929,0.03222639516288259,0.04234591607178599,0.029194509350374986,0.04067950867015629
1.0061206632669486,0.11538472372115638,0.027268124625983686,0.03266210113426135,0.02077149559506846,0.03146579447471889
1.006167745292079,0.08342022676517998,0.02210364804887368,0.0259645785337829,0.01302148853287114,0.02520361182285433
1.0062148273172093,0.053714935068683495,0.018610373199829836,0.01794830890199036,0.007380367281714362,0.017511060948922106
1.0062619093423397,0.029620632829972474,0.014892660677047786,0.006428025048282717,0.004193727128120449,0.006185079901387918
1.00630899136747,0.012907514843990737,0.011967347759496372,-0.004503164505502606,0.004842410318802238,-0.004765382385195283
1.0063560733926005,0.004292560353454192,0.011562193585361003,-0.010519166817943732,0.008757717410264074,-0.010989982027779201
1.0064031554177308,0.0038095921685766332,0.015097272686020232,-0.007972360122875525,0.01580327490552335,-0.00883936146328357
1.0064502374428612,0.010924293923755681,0.024364378149406903,0.0013341291502741227,0.02862064187256379,-0.00025871183407284585
1.0064973194679916,0.02453035587728399,0.034510751302114805,0.011333716656649779,0.0422149301717822,0.008978352193819828
1.006544401493122,0.042966387475684646,0.044138326703427086,0.020787738978896356,0.055598313106251344,0.01769466245385436
1.0065914835182523,0.06411092062196938,0.05327057964994067,0.03329944681240632,0.06453949392021108,0.029728320623933595
1.0066385655433827,0.08556714248621351,0.06240243734722505,0.049462130528264495,0.06884306071851092,0.04568080592226927
1.006685647568513,0.10493697207975199,0.0702806998124067,0.06485229624100503,0.06989521501949522,0.06103956057628664
1.0067327295936435,0.12014720761669652,0.07490828460738677,0.07640706666955516,0.06814600010046971,0.07270178283673598
1.0067798116187738,0.12974860817624662,0.07689374579257081,0.08294186479002422,0.06325620913265716,0.07949170558236071
1.0068268936439042,0.1331160769266914,0.0768385977369195,0.08436945777741765,0.05627117628462803,0.08127250002992527
1.0068739756690346,0.13051634907150206,0.07264511041856285,0.08386978816652868,0.04754250068164266,0.08121687779397023
1.006921057694165,0.12301693370584733,0.06409816277993767,0.08185258015702256,0.03962361112117921,0.0796082830300831
1.0069681397192953,0.11219272060745543,0.05341371457004377,0.07585112215539112,0.031699806772501234,0.07402453737683344
1.0070152217444257,0.09964098937742749,0.043456924116132,0.06985230351433948,0.02380691306189836,0.06845049695871142
1.007062303769556,0.08648287672211809,0.034692926459100944,0.06302251331950957,0.01710854235319859,0.06198922843860737
1.0071093857946865,0.07315337862299943,0.028133394415187363,0.053521194673379444,0.011449896172000174,0.052808489467146946
1.0071564678198168,0.05967551136841471,0.02367060404196433,0.042771215350936226,0.0072606610567602006,0.04230390104710697
1.0072035498449472,0.046352747241279996,0.017620720325978233,0.029687677967592516,0.003868151597435649,0.02942734933407299
1.0072506318700776,0.03458526276589038,0.013614214688035168,0.01916866027493343,0.0029799647942552725,0.01897359756048764
1.007297713895208,0.02727830692374265,0.012097292840790941,0.01473006896934623,0.003252196781995835,0.014526691041562472
1.0073447959203383,0.0280866607277734,0.014912139061860149,0.01711698325886342,0.005179159721963621,0.0168030368944705
1.0073918779454687,0.03925806445151868,0.024186067751223794,0.028584290137595406,0.010337981657488072,0.02796776332287176
1.007438959970599,0.059562255279517966,0.03625671796541374,0.043832242766228824,0.01661263033326228,0.04284982749622658
1.0074860419957294,0.08449757331606145,0.04781406062490253,0.058037587268334905,0.023072096430816702,0.05668723949019298
1.0075331240208598,0.10858230355013457,0.05657909743199131,0.06858033205585247,0.030340809650329318,0.06683074109350515
1.0075802060459902,0.12742598805780986,0.06220597330668761,0.07621925524513734,0.035361761313641306,0.0741995664334393
1.0076272880711206,0.13840784538629322,0.0634759391040034,0.07904744927672683,0.038246303937877695,0.07687560582524254
1.007674370096251,0.14057521646913557,0.060619357160548316,0.0769603579802706,0.040604303674527574,0.07466602460590605
1.0077214521213813,0.1345761316442056,0.055259100162169165,0.07084930100861353,0.040081078949062536,0.06858375808239
1.0077685341465117,0.12269802495893224,0.04723512089258456,0.062425783036096825,0.036475742241668725,0.06035386839666054
