freq,gls,usurper,pdc_unbiased,shape_periodogram,shift_periodogram
1.0,0.02176245538732735,0.005381591145923865,-0.007335655112181927,0.002456067359750889,-0.007338376249193264
1.0000470820251304,0.05134779247241603,0.006219712623369589,0.016081221596065367,0.00648507769440479,0.016074413705251544
1.0000941640502607,0.09689124580742478,0.007491943115512364,0.05094334186944231,0.011210385307725584,0.05093421087726377
1.0001412460753911,0.14848755125694818,0.008384839266517742,0.08456655871201842,0.017482649072843446,0.08456030000059414
1.0001883281005215,0.19664060203551523,0.010746600880801628,0.10917973127593883,0.02644084895133,0.10918879800036084
1.0002354101256519,0.23592916525893703,0.013093286031745158,0.12678225514793529,0.03415225909470285,0.12681827862644476
1.0002824921507822,0.26363730657080775,0.01717152415802624,0.13936052532630389,0.04076617856920729,0.13943052329354297
1.0003295741759126,0.2780607972143743,0.01977112377551319,0.14663287491158739,0.04456259271683956,0.14672793289012998
1.000376656201043,0.27778293516045677,0.021002807475288886,0.14742341655727248,0.04660343500265234,0.1475305033938824
1.0004237382261734,0.2619162710265795,0.022215258840265924,0.139633635428265,0.04620245731613515,0.13973048179464825
1.0004708202513037,0.23107843684954268,0.022919016560903355,0.12167319492364326,0.044308310917380016,0.12174321981422592
1.0005179022764341,0.1884924826566669,0.02299707466075076,0.09811663264576473,0.042101498604215686,0.09815708992442065
1.0005649843015645,0.1401213853463462,0.024375966819018453,0.07552593926328457,0.040106179605319106,0.07554255474181201
1.0006120663266949,0.09311329616242185,0.026811130291990025,0.056936636782797936,0.037981567368030364,0.05693594451517537
1.0006591483518252,0.05338098213176131,0.02939995085867588,0.04656239048066332,0.035650540253823915,0.04655277396825638
1.0007062303769556,0.024158292773911582,0.031565193025255026,0.0379052596807291,0.03127104406956413,0.037889390869776406
1.000753312402086,0.006389706849983347,0.03364270851431906,0.024925530867037873,0.026737025557872194,0.024905008715034926
1.0008003944272164,4.4957735270936574e-05,0.03468821756000152,0.013623927240606612,0.023282775642223676,0.013601982712185698
1.0008474764523467,0.004476680458159687,0.035202524495889044,0.005279248516488982,0.021966675143558132,0.00525633345418906
1.000894558477477,0.016631009383087918,0.0384792265391051,0.00604487589630294,0.023218638452152163,0.006020937402474121
1.0009416405026075,0.030279800796216314,0.04299900050059777,0.01614856324889533,0.025961770959450993,0.016125419487140524
1.0009887225277379,0.04019506929021177,0.04662774480744321,0.031662352407458065,0.029650853307320243,0.03164364151592312
1.0010358045528682,0.045271217739530065,0.04936404806434005,0.049643587368788454,0.03541276999328793,0.04963577484395544
1.0010828865779986,0.04665854735345898,0.053143604034823856,0.06394396252727896,0.038977722771333156,0.06394967766683672
1.001129968603129,0.04557434040645729,0.05267844983317411,0.06951556918541625,0.042108713928329565,0.0695308826009314
1.0011770506282593,0.04281463251624272,0.049179067627522145,0.06676401531502141,0.04388242954021376,0.06678003373952197
1.0012241326533897,0.03911406922799136,0.04726094805154151,0.05756222886158259,0.04329734184627832,0.05756857577569318
1.00127121467852,0.035734840091298535,0.0446754747977016,0.04469056838221148,0.04100354362393357,0.04468304266280791
1.0013182967036505,0.034632288517627896,0.04246434466125007,0.03354469161607427,0.038931308615364604,0.03352727635293736
1.0013653787287808,0.03686446430802818,0.04011619152602508,0.03235087082016887,0.03867863127839585,0.032332509186695724
1.0014124607539112,0.040499198873267514,0.03880321286931128,0.04235422606047071,0.04015393848478559,0.042344206502270686
1.0014595427790416,0.04245011553894062,0.04000109964370642,0.05148956578485458,0.04342201795791659,0.051490361131039844
1.001506624804172,0.04142424671447975,0.04311620909209174,0.057489670337512934,0.045953780469974025,0.057499843740556916
1.0015537068293023,0.03772147907862947,0.045767827552050645,0.05838903434484734,0.046083593614471174,0.058400362753845345
1.0016007888544327,0.032149333674356434,0.045286910488938396,0.05286952532393206,0.04317910802413361,0.05287133322987661
1.001647870879563,0.025799799790141527,0.04135131769350441,0.040386054375886556,0.038009710750846755,0.040373418182085764
1.0016949529046935,0.020580986012262138,0.03722470979035263,0.02276083148008517,0.03089060471303725,0.02273768481099146
1.0017420349298238,0.01993155776046648,0.03487769670741961,0.008396000375120035,0.026085912656830086,0.008370130756993097
1.0017891169549542,0.027489951613850306,0.034064732208197245,0.00883020356959996,0.02709762419704472,0.008803604822889756
1.0018361989800846,0.042074300128446054,0.034188849763694344,0.022145335055818467,0.02900651370817516,0.022122718579374295
1.001883281005215,0.05845891480384451,0.03794821992318646,0.04104344236602053,0.03190310185028142,0.04102923698972548
1.0019303630303453,0.07582159493280267,0.03878252960960711,0.05832937685591873,0.036146235693600495,0.058327741167558234
1.0019774450554757,0.09824195100672209,0.03673016926095158,0.07041397317164165,0.04208354196774418,0.07043003375841494
1.002024527080606,0.1303669711588208,0.03294129819186203,0.07896421651578898,0.04256505958363352,0.07898889197184965
1.0020716091057364,0.17464242099810953,0.03048043083239324,0.08832693698111686,0.04203562010009292,0.088358640903906
1.0021186911308668,0.22917237164395338,0.028721401151955678,0.11355266104308831,0.04155204699604513,0.11360458462924006
1.0021657731559972,0.2864808872447173,0.028688602574721604,0.14880372324738836,0.04166247357237287,0.14888569617375877
1.0022128551811276,0.335488571803669,0.028887712987330717,0.17945522269565434,0.041714485641486346,0.17956266070716104
1.002259937206258,0.3667004160945303,0.02815224845977077,0.20044309409803335,0.04088046933387898,0.20056158451979378
1.0023070192313883,0.37630521047742305,0.02662638811630116,0.20989430295355302,0.03876639327132599,0.21000520137704307
1.0023541012565187,0.3658732131217113,0.024353959313603672,0.20800353236518512,0.03586310475502838,0.2080945402830566
1.002401183281649,0.3393357840705059,0.01963884416837854,0.19716291122807472,0.03377983941857381,0.19723594540224498
1.0024482653067794,0.30043566038503033,0.014743988666971377,0.1783931936762516,0.03107331117531831,0.17844392990918373
1.0024953473319098,0.25183659939415354,0.01255163461042156,0.15384153094853617,0.025728464314207684,0.15386384565083386
1.0025424293570402,0.1956066522565673,0.010887881236496628,0.12081929242955049,0.0186986617931164,0.12081990087549924
1.0025895113821706,0.13475970805500284,0.00875028512458013,0.07564140824241966,0.008693362751134507,0.07563471665862675
1.002636593407301,0.07582916802294695,0.00729405219679996,0.025728531183742454,-0.0002000640291485973,0.0257287361340358
1.0026836754324313,0.03145358980808763,0.0023822141335238536,-0.0040036080406334615,0.0005594236643321854,-0.004004222046702166
1.0027307574575617,0.01779891286180085,0.0011187017997009042,-0.006351274616742859,0.012545579559579502,-0.006365581194089242
1.002777839482692,0.04358985242398123,0.011820188846679186,0.006591376950054447,0.025687761309165127,0.006565263751972269
1.0028249215078224,0.1037077589167159,0.022777380496435858,0.04281328660270074,0.03723853030869183,0.04280201356862196
1.0028720035329528,0.18101238562213362,0.03147355341328891,0.0979436666785688,0.041254977075074487,0.09798146216329066
1.0029190855580832,0.25636899888384335,0.03505634353117296,0.15380629462607742,0.04241780083158057,0.15389639290303458
1.0029661675832136,0.31832235074100634,0.03347458589436618,0.19704252226634572,0.04734467083515494,0.19720585259189455
1.003013249608344,0.36361141655314383,0.0348432555774408,0.228525784613192,0.04928036918256652,0.22873900297301644
1.0030603316334743,0.39341420767750745,0.03482735321690983,0.24979870354304085,0.04677024702078991,0.2500083350825195
1.0031074136586047,0.4102870696014962,0.03415357283598426,0.26258314989231946,0.045200635870207034,0.2627883666757126
1.003154495683735,0.41662904201390033,0.03312339829421577,0.266777273312063,0.042885838234336365,0.2669629916263756
1.0032015777088654,0.41405085665469693,0.0320170827974822,0.26326150551395927,0.03993185489967501,0.26341742658989625
1.0032486597339958,0.4030953535584088,0.030776984554763204,0.251751202986526,0.03649417650038662,0.25187179090204975
1.0032957417591262,0.38301151602067063,0.029354981437770086,0.2324239377319079,0.03239529807433681,0.23250643568124876
1.0033428237842565,0.3514583105172215,0.027792542587307265,0.2047530276495091,0.027733071566288545,0.2047997503259629
1.003389905809387,0.3042863356687068,0.02592326270554151,0.16911475512504195,0.022762372351859787,0.16913323428468954
1.0034369878345173,0.2364892670841809,0.023911743404997056,0.12615890065588273,0.01755856142274306,0.12615909594483804
1.0034840698596477,0.14805992805189566,0.021981088247083464,0.07745804013496241,0.012359150910393437,0.077450390590094
1.003531151884778,0.05937981673678241,0.021587196450066612,0.035632586371168055,0.008618013380319945,0.035624417318762064
1.0035782339099084,0.016571701488668728,0.02382400382637073,0.012038086514572617,0.006791137745904513,0.012030882475352831
1.0036253159350388,0.04141534161646615,0.02941758327931366,0.014399178728297872,0.010566684325489295,0.01438834481209246
1.0036723979601692,0.0978579156313711,0.036190843423888626,0.03595348541122598,0.021165855768676585,0.035938249727584574
1.0037194799852995,0.14599333246590304,0.045500038633173985,0.06503465797160808,0.03219975199593021,0.06503297750098305
1.00376656201043,0.17300879075255565,0.05286712426665638,0.0922030709843016,0.04101267014868005,0.09223538762040918
1.0038136440355603,0.18229222765708752,0.05548499804881898,0.11374971918924169,0.045380838578168575,0.11381640306730778
1.0038607260606907,0.18262972424027749,0.05335172476505058,0.12736778710133306,0.048130716027339995,0.1274613378916179
1.003907808085821,0.18292620727983336,0.053625697018277324,0.13485525602086357,0.04759212700695993,0.1349543505846803
1.0039548901109514,0.18798821740501145,0.05425962394863451,0.13913083302593265,0.0475089330329023,0.13923414110464624
1.0040019721360818,0.19658928748535154,0.05200711175813001,0.1397247738744464,0.046148950412120124,0.1398214316508367
1.0040490541612122,0.20361099360789395,0.04994930606779528,0.1356935801867525,0.04740898875628912,0.13579262485761256
1.0040961361863425,0.20356945018764083,0.046511887350499985,0.1287855413388881,0.04588510213762747,0.12886968932718632
1.004143218211473,0.19261735903368254,0.04376712061588187,0.11776025800915435,0.042950864349814655,0.11782110625410783
1.0041903002366033,0.1692114287165738,0.0398143258138972,0.09836742477706704,0.03868899434783466,0.09839835113436454
1.0042373822617336,0.13469585530973552,0.035305624986782885,0.07519967777083232,0.03319642071639518,0.07520461386917217
1.004284464286864,0.094068350002802,0.03045140329266542,0.051842634052145065,0.02720894663769199,0.05183190970443255
1.0043315463119944,0.0558705414627791,0.02540718562098746,0.03082107495389939,0.021100875484317036,0.0308047133844117
1.0043786283371248,0.029785725493520713,0.022068567296880816,0.019809015244991575,0.015191549760972938,0.019794573412040647
1.0044257103622551,0.022326134922130727,0.020435373528793672,0.01684685304795892,0.01006718884736941,0.016836618441099287
1.0044727923873855,0.03362727707623793,0.019993213985102842,0.01768087969631584,0.006939987660014926,0.01767365843301145
1.004519874412516,0.057935866130881315,0.02138552602833219,0.0238553638180855,0.005629793257092819,0.023849535057457297
1.0045669564376463,0.08691312585069338,0.023974681858284615,0.038233159934289905,0.00752154440691593,0.03822595486998045
1.0046140384627766,0.11302745450084833,0.026470373234139703,0.05542672474865837,0.013618255405405299,0.05541689232684282
1.004661120487907,0.13143773576861661,0.028374685992019866,0.07126698378066398,0.021285998324138418,0.07125975072034584
1.0047082025130374,0.140315951549541,0.03170777435669227,0.0817840112464661,0.028113772330089697,0.08178543516382623
1.0047552845381678,0.14016084842095028,0.03139391568825085,0.0846685751900148,0.03325514879360525,0.08467881012440405
1.0048023665632981,0.13271042804166153,0.0296048883715358,0.08028160564993014,0.03731837023629108,0.08029644522442325
1.0048494485884285,0.1199532079956697,0.02610498509623569,0.06958311394397716,0.03888935668913097,0.06959296328757726
1.0048965306135589,0.10352759540252561,0.02463896887106841,0.05738407400153901,0.038734351187198146,0.05738453335701849
1.0049436126386893,0.08458770500586026,0.02335489965210099,0.04469505929439128,0.03631463769945142,0.04468459120940599
1.0049906946638196,0.06411017510052013,0.019708702041997758,0.03435472552873721,0.03342704879562922,0.034337139270961506
1.00503777668895,0.043500849939608656,0.015712786291633526,0.022887706523455283,0.03165993826349686,0.022864324309764504
1.0050848587140804,0.02497562650004661,0.010558868163916872,0.013888116903115118,0.02989031910082845,0.013861406678761026
1.0051319407392107,0.011013597455985432,0.004984916394679345,0.011624969459267675,0.028779657424333305,0.01159809135853759
1.0051790227643411,0.003334338693202587,0.00037493893123115735,0.009001101837417943,0.025981996938378018,0.008975528362608648
1.0052261047894715,0.0027948227754708652,-0.0009539753846656772,0.005716764128480125,0.01758344552768583,0.00569828648103148
1.0052731868146019,0.010164673003053454,0.0012255973415523946,0.005314070387151807,0.008263806738958676,0.005305151801896185
1.0053202688397322,0.026566180290056158,0.003955336581667037,0.008193549268036414,0.002108698915812143,0.00819124146792565
1.0053673508648626,0.05291846997433676,0.005579496551925986,0.011498759854167706,-0.0014738723855614027,0.011500387511509195
1.005414432889993,0.08828034555015178,0.005416845692222949,0.017065936640710815,-0.005142652546599883,0.017071810604891678
1.0054615149151234,0.12763762777320273,0.0055770097572053765,0.025647230237824777,-0.00856084004587748,0.025657568874161454
1.0055085969402537,0.16155770115500132,0.008009726218581389,0.038076850744054896,-0.007762079670042465,0.038086499420653085
1.0055556789653841,0.18078890709766565,0.010452766274227766,0.05135766337998839,-0.0030422264184914597,0.051361205072183225
1.0056027609905145,0.18307418566708303,0.011293070230960366,0.06056084021799014,0.0022553347848162904,0.06055848805763381
1.0056498430156449,0.1741533504439713,0.01346177235073782,0.06655908741414072,0.007978870477111042,0.06655243141974297
1.0056969250407752,0.16242605985016223,0.015310138221535256,0.07063087442771013,0.013172583271018046,0.07062253647832525
1.0057440070659056,0.15418810481596457,0.014393628542456937,0.07107575192890922,0.018309554354748802,0.0710675593877744
1.005791089091036,0.1523552110015489,0.012312292539640246,0.0660360559428213,0.0215218910556453,0.06602770617097778
1.0058381711161664,0.15691036178882456,0.011790831826719477,0.06130313889977103,0.022296691688170996,0.061293876176957494
1.0058852531412967,0.16538784679386007,0.01255792156296009,0.06307528196508604,0.01971394788327596,0.06306587930530297
1.005932335166427,0.17322460684996496,0.014006719268469725,0.06323184659303546,0.016272841219579916,0.06322234030567458
1.0059794171915575,0.17475929729964576,0.011733399613956731,0.05880087400333982,0.012552330656104739,0.05879170814809245
1.0060264992166879,0.16548577922015562,0.009306111874210446,0.05204155960234529,0.010175346339213546,0.05203305894910268
1.0060735812418182,0.1445721481217929,0.0072397829937926456,0.04234591607178599,0.008725012853965874,0.042337920329550305
1.0061206632669486,0.11538472372115638,0.0057743329318863355,0.03266210113426135,0.009066558000150153,0.03265345744984339
1.006167745292079,0.08342022676517998,0.005363718282442196,0.0259645785337829,0.010073722038649825,0.025954800841438933
1.0062148273172093,0.053714935068683495,0.006075652080498887,0.01794830890199036,0.010150785799482217,0.017938053205117436
1.0062619093423397,0.029620632829972474,0.007093795424678782,0.006428025048282717,0.013821377731076048,0.006413419945528277
1.00630899136747,0.012907514843990737,0.007751148969081705,-0.004503164505502606,0.015485800416238475,-0.0045207502867765665
1.0063560733926005,0.004292560353454192,0.009922232090589192,-0.010519166817943732,0.0161172576686961,-0.010538268237807609
1.0064031554177308,0.0038095921685766332,0.011195042320607118,-0.007972360122875525,0.018167350667059063,-0.007993671401751976
1.0064502374428612,0.010924293923755681,0.013570708437871708,0.0013341291502741227,0.02021626758320278,0.0013121422608491629
1.0064973194679916,0.02453035587728399,0.01875461920446996,0.011333716656649779,0.023720727272813335,0.011310784936069058
1.006544401493122,0.042966387475684646,0.02313914317052919,0.020787738978896356,0.026913010405707528,0.020765637911798522
1.0065914835182523,0.06411092062196938,0.0280466952238485,0.03329944681240632,0.029443656836945966,0.03328148207904262
1.0066385655433827,0.08556714248621351,0.03204282714397155,0.049462130528264495,0.030973058264653294,0.04945179810869293
1.006685647568513,0.10493697207975199,0.034506490605016434,0.06485229624100503,0.03343677047870118,0.06485179183915396
1.0067327295936435,0.12014720761669652,0.03346946993982809,0.07640706666955516,0.03477118420944055,0.07641501727520043
1.0067798116187738,0.12974860817624662,0.03181382690632174,0.08294186479002422,0.03264972997452222,0.08295016413606093
1.0068268936439042,0.1331160769266914,0.029381928719147684,0.08436945777741765,0.028615510316680644,0.08437254773856841
1.0068739756690346,0.13051634907150206,0.02898012353085049,0.08386978816652868,0.023772437577847038,0.08386737892244651
1.006921057694165,0.12301693370584733,0.028135203494648934,0.08185258015702256,0.017113870921725022,0.08184578700162806
1.0069681397192953,0.11219272060745543,0.024912276098501364,0.07585112215539112,0.010894685390522494,0.07584366214564583
1.0070152217444257,0.09964098937742749,0.020362441026393896,0.06985230351433948,0.0057937507715220965,0.06984709677677083
1.007062303769556,0.08648287672211809,0.017301218339060526,0.06302251331950957,0.0021015811214941966,0.06302031422674867
1.0071093857946865,0.07315337862299943,0.013839319072689997,0.053521194673379444,8.889094748382717e-05,0.053521065116949734
1.0071564678198168,0.05967551136841471,0.009825803468577459,0.042771215350936226,-0.0007389446519532276,0.042772012347458185
1.0072035498449472,0.046352747241279996,0.007686140882184848,0.029687677967592516,0.0008330117688365237,0.02968675450975693
1.0072506318700776,0.03458526276589038,0.005659775809873479,0.01916866027493343,0.0025168649422030397,0.01916594027984964
1.007297713895208,0.02727830692374265,0.005502416616846867,0.01473006896934623,0.003609991396620258,0.014726183354704355
1.0073447959203383,0.0280866607277734,0.0059712707294711535,0.01711698325886342,0.006275028713823012,0.017110405075268
1.0073918779454687,0.03925806445151868,0.007814789139533509,0.028584290137595406,0.010553537480598063,0.028574259611200952
1.007438959970599,0.059562255279517966,0.010289868945825962,0.043832242766228824,0.015171647972611186,0.04382059711908486
1.0074860419957294,0.08449757331606145,0.012267994947425694,0.058037587268334905,0.02156079878160059,0.05802738131574726
1.0075331240208598,0.10858230355013457,0.013318389708566004,0.06858033205585247,0.027323497149656567,0.06857590745335748
1.0075802060459902,0.12742598805780986,0.012564582155129948,0.07621925524513734,0.031877757283819905,0.0762229366271617
1.0076272880711206,0.13840784538629322,0.011814008277994675,0.07904744927672683,0.035582580993929996,0.07905835025367179
1.007674370096251,0.14057521646913557,0.009768378716892172,0.0769603579802706,0.0385213145882307,0.07697507728813031
1.0077214521213813,0.1345761316442056,0.006348126019162481,0.07084930100861353,0.04059388841193052,0.07086302533259278
