freq,gls,usurper,pdc_unbiased,shape_periodogram,shift_periodogram
1.0,0.02176245538732735,0.043346186299947846,-0.007335655112181927,0.036492160103415085,-0.015033423688357415
1.0000470820251304,0.05134779247241603,0.09207107543991877,0.016081221596065367,0.08214295759463286,-0.0019971511385254016
1.0000941640502607,0.09689124580742478,0.14728536536450362,0.05094334186944231,0.13554012555064424,0.020799905981146772
1.0001412460753911,0.14848755125694818,0.20293613920469813,0.08456655871201842,0.1870459529235604,0.04330680670359646
1.0001883281005215,0.19664060203551523,0.2479126887471657,0.10917973127593883,0.22954836382536267,0.059287130563814544
1.0002354101256519,0.23592916525893703,0.2792256670844814,0.12678225514793529,0.25982042905044933,0.07110714125075215
1.0002824921507822,0.26363730657080775,0.3008064379421505,0.13936052532630389,0.27924490886528186,0.08021348394837279
1.0003295741759126,0.2780607972143743,0.313394886945908,0.14663287491158739,0.29050300883396424,0.0855599424517559
1.000376656201043,0.27778293516045677,0.31771185532664176,0.14742341655727248,0.29468660084057235,0.08556652947247326
1.0004237382261734,0.2619162710265795,0.3117983085641776,0.139633635428265,0.2896912250940324,0.07842681053400272
1.0004708202513037,0.23107843684954268,0.29277605278660884,0.12167319492364326,0.2737724095771258,0.06301359066730533
1.0005179022764341,0.1884924826566669,0.26655962429005814,0.09811663264576473,0.25223112095097067,0.043299850782522
1.0005649843015645,0.1401213853463462,0.24811698328546877,0.07552593926328457,0.23869434755890448,0.02320657962478864
1.0006120663266949,0.09311329616242185,0.2407078982544016,0.056936636782797936,0.23568566586742773,0.005058739707790422
1.0006591483518252,0.05338098213176131,0.24489040227151498,0.04656239048066332,0.24177911219326206,-0.006768707154021951
1.0007062303769556,0.024158292773911582,0.25164041273238597,0.0379052596807291,0.2502814889731325,-0.017428440559787723
1.000753312402086,0.006389706849983347,0.25026965060037304,0.024925530867037873,0.2525374451384301,-0.031048193756188443
1.0008003944272164,4.4957735270936574e-05,0.24759167844914204,0.013623927240606612,0.25036217911105285,-0.04192991008055098
1.0008474764523467,0.004476680458159687,0.2471483513538986,0.005279248516488982,0.2533004241363626,-0.051012458033176736
1.000894558477477,0.016631009383087918,0.2592981535026123,0.00604487589630294,0.2675746786063611,-0.05362132560381829
1.0009416405026075,0.030279800796216314,0.28934761229618217,0.01614856324889533,0.29616927908453067,-0.05022501809313599
1.0009887225277379,0.04019506929021177,0.33178369543743813,0.031662352407458065,0.33552559107828384,-0.043850048126637765
1.0010358045528682,0.045271217739530065,0.37872376144067127,0.049643587368788454,0.3782433711964974,-0.035568914859655236
1.0010828865779986,0.04665854735345898,0.4131198651788358,0.06394396252727896,0.41376370957481207,-0.02916928545750553
1.001129968603129,0.04557434040645729,0.4284682030991916,0.06951556918541625,0.4323048432316344,-0.027806443124735805
1.0011770506282593,0.04281463251624272,0.4227075572748992,0.06676401531502141,0.4315771976360818,-0.03061781129071491
1.0012241326533897,0.03911406922799136,0.40113096070740156,0.05756222886158259,0.41493180090408915,-0.03633878544731929
1.00127121467852,0.035734840091298535,0.37053201893616283,0.04469056838221148,0.3882257570406843,-0.04331021815722706
1.0013182967036505,0.034632288517627896,0.34728883720342213,0.03354469161607427,0.36820161325428163,-0.05000073249842983
1.0013653787287808,0.03686446430802818,0.3479247093256174,0.03235087082016887,0.3673846908987928,-0.05104559233235818
1.0014124607539112,0.040499198873267514,0.36883238738580454,0.04235422606047071,0.3844876635722795,-0.044838371199128764
1.0014595427790416,0.04245011553894062,0.3970323280825559,0.05148956578485458,0.4099349416669424,-0.0415869974298776
1.001506624804172,0.04142424671447975,0.4176671390381666,0.057489670337512934,0.4277651648965751,-0.03970876962071927
1.0015537068293023,0.03772147907862947,0.42106623740705246,0.05838903434484734,0.4299016423508887,-0.039286531569908155
1.0016007888544327,0.032149333674356434,0.4050664967280938,0.05286952532393206,0.4122436047590651,-0.040697575947444484
1.001647870879563,0.025799799790141527,0.36904924336345213,0.040386054375886556,0.3758152857288795,-0.044729308033335136
1.0016949529046935,0.020580986012262138,0.32065300863810114,0.02276083148008517,0.3277653204207048,-0.05114005764864744
1.0017420349298238,0.01993155776046648,0.27878127123636615,0.008396000375120035,0.28691018544890995,-0.05587531083816968
1.0017891169549542,0.027489951613850306,0.2605596705137055,0.00883020356959996,0.2688610470677126,-0.051115213802526316
1.0018361989800846,0.042074300128446054,0.26353880791973705,0.022145335055818467,0.27266209251349127,-0.0385417303345709
1.001883281005215,0.05845891480384451,0.28111473407535215,0.04104344236602053,0.29014432215562624,-0.023392432847512117
1.0019303630303453,0.07582159493280267,0.30045298445007185,0.05832937685591873,0.3063011781576507,-0.009380026303316111
1.0019774450554757,0.09824195100672209,0.3092295998554242,0.07041397317164165,0.3081134113168471,0.002685459164974505
1.002024527080606,0.1303669711588208,0.2966129770539385,0.07896421651578898,0.29037840548662364,0.01545974889702661
1.0020716091057364,0.17464242099810953,0.27638788525322694,0.08832693698111686,0.2677340227738247,0.029995487241747092
1.0021186911308668,0.22917237164395338,0.2805761591379547,0.11355266104308831,0.26536231137707744,0.056375796540096265
1.0021657731559972,0.2864808872447173,0.30626261984566205,0.14880372324738836,0.2828926364580549,0.08930650001823257
1.0022128551811276,0.335488571803669,0.33441775501663024,0.17945522269565434,0.3046792067008346,0.11729651583857262
1.002259937206258,0.3667004160945303,0.35219713502277,0.20044309409803335,0.318078319914345,0.1371501442967606
1.0023070192313883,0.37630521047742305,0.3561159214585419,0.20989430295355302,0.3193820385657852,0.1470002372879218
1.0023541012565187,0.3658732131217113,0.3469058659495121,0.20800353236518512,0.3092733288104842,0.14670106574928585
1.002401183281649,0.3393357840705059,0.3267054080945373,0.19716291122807472,0.2901874334135739,0.13854378544882556
1.0024482653067794,0.30043566038503033,0.2981815212326161,0.1783931936762516,0.2641236322161081,0.12361233225514358
1.0024953473319098,0.25183659939415354,0.2625233778581499,0.15384153094853617,0.23104765365133464,0.10453270234059336
1.0025424293570402,0.1956066522565673,0.2147528518540455,0.12081929242955049,0.1887676224406083,0.07936704426838656
1.0025895113821706,0.13475970805500284,0.14990331884522928,0.07564140824241966,0.1335431903989195,0.0456700975576968
1.002636593407301,0.07582916802294695,0.08122977472573502,0.025728531183742454,0.07685296878826374,0.008601411205755125
1.0026836754324313,0.03145358980808763,0.04074947553391451,-0.0040036080406334615,0.039959213736794126,-0.012527069296281357
1.0027307574575617,0.01779891286180085,0.0378247449916794,-0.006351274616742859,0.03364817587801855,-0.013457497058989746
1.002777839482692,0.04358985242398123,0.05597065493602089,0.006591376950054447,0.05255502345441294,-0.004891885687343282
1.0028249215078224,0.1037077589167159,0.09898780804417698,0.04281328660270074,0.09278828773252037,0.02194640117519713
1.0028720035329528,0.18101238562213362,0.1688485329286474,0.0979436666785688,0.1568450434074916,0.06297254224075992
1.0029190855580832,0.25636899888384335,0.24267971488838477,0.15380629462607742,0.21968620337677058,0.10668534771468469
1.0029661675832136,0.31832235074100634,0.3031665108578438,0.19704252226634572,0.2644311400366529,0.14295502281592679
1.003013249608344,0.36361141655314383,0.34201531920993355,0.228525784613192,0.29456551813613624,0.17091146262490914
1.0030603316334743,0.39341420767750745,0.36699195686382563,0.24979870354304085,0.31353466124114016,0.1906056319231216
1.0031074136586047,0.4102870696014962,0.3807567524005061,0.26258314989231946,0.3236263108823971,0.20286496439616583
1.003154495683735,0.41662904201390033,0.38545260568293804,0.266777273312063,0.3263107070568661,0.20701123675706853
1.0032015777088654,0.41405085665469693,0.38204560572277263,0.26326150551395927,0.3218100161557298,0.2038568627445516
1.0032486597339958,0.4030953535584088,0.37035601757459596,0.251751202986526,0.30994203287008193,0.19323719913897647
1.0032957417591262,0.38301151602067063,0.35005378400442766,0.2324239377319079,0.29060373480403506,0.17567832641473555
1.0033428237842565,0.3514583105172215,0.3204051464182096,0.2047530276495091,0.2635298584457211,0.15114912426432092
1.003389905809387,0.3042863356687068,0.2811788537584171,0.16911475512504195,0.22922705231737467,0.12052259329104992
1.0034369878345173,0.2364892670841809,0.23292659433133037,0.12615890065588273,0.18841784919979584,0.08481590721333541
1.0034840698596477,0.14805992805189566,0.17909286169477406,0.07745804013496241,0.1450476153486109,0.04505071578150139
1.003531151884778,0.05937981673678241,0.1389473264535941,0.035632586371168055,0.11574538657085626,0.009949367920939377
1.0035782339099084,0.016571701488668728,0.13285441767249823,0.012038086514572617,0.11865974315106108,-0.013903490389696058
1.0036253159350388,0.04141534161646615,0.17284970064899932,0.014399178728297872,0.16373269110038155,-0.021495592508143608
1.0036723979601692,0.0978579156313711,0.2423871389618643,0.03595348541122598,0.23564214007571244,-0.016083292430006075
1.0037194799852995,0.14599333246590304,0.3225899152600695,0.06503465797160808,0.31891597172688557,-0.005340544126447295
1.00376656201043,0.17300879075255565,0.3926075019300961,0.0922030709843016,0.3918501156767578,0.006528978126440636
1.0038136440355603,0.18229222765708752,0.4431689758635084,0.11374971918924169,0.44452713061189625,0.017903576830660538
1.0038607260606907,0.18262972424027749,0.4752524515906194,0.12736778710133306,0.47890398671359224,0.02531245722177921
1.003907808085821,0.18292620727983336,0.4917481991354319,0.13485525602086357,0.4969692196439714,0.029765139636503898
1.0039548901109514,0.18798821740501145,0.4986085722698516,0.13913083302593265,0.5021549560731257,0.03353781074477236
1.0040019721360818,0.19658928748535154,0.4956976292811343,0.1397247738744464,0.49767759516928295,0.0352355382735043
1.0040490541612122,0.20361099360789395,0.48447845453712846,0.1356935801867525,0.4818170703621718,0.03415501963974726
1.0040961361863425,0.20356945018764083,0.46287400962039144,0.1287855413388881,0.4547656772530448,0.03237365613900999
1.004143218211473,0.19261735903368254,0.4274498893248302,0.11776025800915435,0.4165978918071912,0.028646763194130252
1.0041903002366033,0.1692114287165738,0.37663654863831325,0.09836742477706704,0.36558577048791696,0.019085580491438214
1.0042373822617336,0.13469585530973552,0.31731889902363125,0.07519967777083232,0.3078635328100071,0.007692824303683562
1.004284464286864,0.094068350002802,0.2607823178710347,0.051842634052145065,0.252252650407226,-0.0037712249108685764
1.0043315463119944,0.0558705414627791,0.2111664964661573,0.03082107495389939,0.20324135833782483,-0.013962699453607211
1.0043786283371248,0.029785725493520713,0.1786888975129623,0.019809015244991575,0.17021860834886218,-0.017576345548443464
1.0044257103622551,0.022326134922130727,0.16341077815562788,0.01684685304795892,0.15371786327885387,-0.016859846506967188
1.0044727923873855,0.03362727707623793,0.16326996668996963,0.01768087969631584,0.15361638473235273,-0.016013201466781667
1.004519874412516,0.057935866130881315,0.17563305992352116,0.0238553638180855,0.16666036722539992,-0.01277949403374619
1.0045669564376463,0.08691312585069338,0.2015843669542558,0.038233159934289905,0.19301203718730123,-0.004298643999970751
1.0046140384627766,0.11302745450084833,0.23505987306946288,0.05542672474865837,0.22781414213368173,0.005269070866354437
1.004661120487907,0.13143773576861661,0.2671984301377464,0.07126698378066398,0.2630576834339832,0.013577456809890585
1.0047082025130374,0.140315951549541,0.2916620275092196,0.0817840112464661,0.2910915315672566,0.01820784179526939
1.0047552845381678,0.14016084842095028,0.3032984883429238,0.0846685751900148,0.30752460234238244,0.01757764991270533
1.0048023665632981,0.13271042804166153,0.30126529015766035,0.08028160564993014,0.3096194306797166,0.012565602171518201
1.0048494485884285,0.1199532079956697,0.2871351492606919,0.06958311394397716,0.30025651150817273,0.0035959838519245995
1.0048965306135589,0.10352759540252561,0.26174664525697056,0.05738407400153901,0.27808570753012085,-0.003934009128171892
1.0049436126386893,0.08458770500586026,0.2286912886159675,0.04469505929439128,0.24680722027662164,-0.00978261518021786
1.0049906946638196,0.06411017510052013,0.1951632124615171,0.03435472552873721,0.21424423423396244,-0.012884915907582693
1.00503777668895,0.043500849939608656,0.16321258048457285,0.022887706523455283,0.181844540495344,-0.01710129689120559
1.0050848587140804,0.02497562650004661,0.13222543021106792,0.013888116903115118,0.14887221813895427,-0.0187135183123924
1.0051319407392107,0.011013597455985432,0.10916577069886146,0.011624969459267675,0.12208906184893055,-0.015059841274197223
1.0051790227643411,0.003334338693202587,0.09057416580189787,0.009001101837417943,0.10109519694274686,-0.013054610679863817
1.0052261047894715,0.0027948227754708652,0.07091930834516981,0.005716764128480125,0.07960640499410902,-0.011603033505900862
1.0052731868146019,0.010164673003053454,0.05403061640552705,0.005314070387151807,0.05897632101957047,-0.007528796802285331
1.0053202688397322,0.026566180290056158,0.043785104099046644,0.008193549268036414,0.04525564493868745,-0.001749787549186801
1.0053673508648626,0.05291846997433676,0.03911124891748203,0.011498759854167706,0.0383343145211254,0.0029733129747051956
1.005414432889993,0.08828034555015178,0.039585595610550126,0.017065936640710815,0.0351237253816063,0.009106179789616791
1.0054615149151234,0.12763762777320273,0.04449406193812837,0.025647230237824777,0.03596063071298542,0.01731486090156261
1.0055085969402537,0.16155770115500132,0.055336718120220965,0.038076850744054896,0.043957229342394426,0.02775619682497715
1.0055556789653841,0.18078890709766565,0.06790292186307337,0.05135766337998839,0.05611466144336906,0.03816159279648564
1.0056027609905145,0.18307418566708303,0.07749539402193308,0.06056084021799014,0.06800379463898541,0.04465640362905593
1.0056498430156449,0.1741533504439713,0.08300812222468631,0.06655908741414072,0.07496639676344112,0.049069732406184695
1.0056969250407752,0.16242605985016223,0.08664830240870396,0.07063087442771013,0.07996650647314317,0.05201420615266244
1.0057440070659056,0.15418810481596457,0.09016502813636516,0.07107575192890922,0.08454138493938906,0.05148626001716262
1.005791089091036,0.1523552110015489,0.09106094622906791,0.0660360559428213,0.08682624690853953,0.04604675259089518
1.0058381711161664,0.15691036178882456,0.09142000510192094,0.06130313889977103,0.08868459646448029,0.04099835556228529
1.0058852531412967,0.16538784679386007,0.09693450002962391,0.06307528196508604,0.09324766436216092,0.04177444921485675
1.005932335166427,0.17322460684996496,0.10129592932814892,0.06323184659303546,0.09814627417114993,0.04089063158812184
1.0059794171915575,0.17475929729964576,0.10051458600496847,0.05880087400333982,0.09857761228642935,0.03643650964436676
1.0060264992166879,0.16548577922015562,0.09515262163669708,0.05204155960234529,0.09391930423017036,0.030777023872856926
1.0060735812418182,0.1445721481217929,0.08568358348573181,0.04234591607178599,0.08516551833082663,0.023119356835534028
1.0061206632669486,0.11538472372115638,0.07762098614169911,0.03266210113426135,0.07590282270046773,0.015603569412826328
1.006167745292079,0.08342022676517998,0.06908899871917365,0.0259645785337829,0.06628477132043917,0.01110747670217925
1.0062148273172093,0.053714935068683495,0.06317173933086273,0.01794830890199036,0.05949385151307986,0.004721241643032695
1.0062619093423397,0.029620632829972474,0.05609495954799261,0.006428025048282717,0.05310592271332874,-0.005170617679235001
1.00630899136747,0.012907514843990737,0.049137568060926326,-0.004503164505502606,0.04846124728080261,-0.014853294286223104
1.0063560733926005,0.004292560353454192,0.04760727206873572,-0.010519166817943732,0.04925362690669042,-0.02090425582886405
1.0064031554177308,0.0038095921685766332,0.05406956942314762,-0.007972360122875525,0.05766491991031349,-0.020237703075239265
1.0064502374428612,0.010924293923755681,0.07444407273156162,0.0013341291502741227,0.08020001419978674,-0.016024253721803605
1.0064973194679916,0.02453035587728399,0.09940856094531227,0.011333716656649779,0.10712624402127387,-0.012078536800134636
1.006544401493122,0.042966387475684646,0.12375059387382562,0.020787738978896356,0.133953870855594,-0.008631139801024075
1.0065914835182523,0.06411092062196938,0.14702056007735861,0.03329944681240632,0.15669687238105118,-0.0012368950137629545
1.0066385655433827,0.08556714248621351,0.17062112797755333,0.049462130528264495,0.17717434083680528,0.010354510699682937
1.006685647568513,0.10493697207975199,0.19206914908540307,0.06485229624100503,0.1945533875656946,0.02196498278693073
1.0067327295936435,0.12014720761669652,0.20619239416291713,0.07640706666955516,0.20476891809214334,0.03136791385383339
1.0067798116187738,0.12974860817624662,0.21175806525440266,0.08294186479002422,0.20555961597141612,0.0377708728057152
1.0068268936439042,0.1331160769266914,0.20800412575452995,0.08436945777741765,0.19676532792008178,0.04106281296179551
1.0068739756690346,0.13051634907150206,0.19699150321595996,0.08386978816652868,0.18155038731887554,0.04376466002869621
1.006921057694165,0.12301693370584733,0.17811004340547873,0.08185258015702256,0.1611040842511029,0.04604630884018623
1.0069681397192953,0.11219272060745543,0.15404986885115565,0.07585112215539112,0.13698560583035785,0.045153263741370867
1.0070152217444257,0.09964098937742749,0.12785603283510208,0.06985230351433948,0.11011751213494919,0.04488448506726388
1.007062303769556,0.08648287672211809,0.10371956930153546,0.06302251331950957,0.08577964439206019,0.04330487571609133
1.0071093857946865,0.07315337862299943,0.08301483128303142,0.053521194673379444,0.06519768344637557,0.03834737985751533
1.0071564678198168,0.05967551136841471,0.06712390524480372,0.042771215350936226,0.04985911762990194,0.03108767199383758
1.0072035498449472,0.046352747241279996,0.05243315286543999,0.029687677967592516,0.03784086372232354,0.020861719307657924
1.0072506318700776,0.03458526276589038,0.043096637593054966,0.01916866027493343,0.031670626593682895,0.011904330753039507
1.007297713895208,0.02727830692374265,0.04018233276844433,0.01473006896934623,0.031162394457803867,0.007675943474999122
1.0073447959203383,0.0280866607277734,0.0466857137176162,0.01711698325886342,0.03809386806514624,0.008516823421416927
1.0073918779454687,0.03925806445151868,0.06686218247739709,0.028584290137595406,0.056454527702983134,0.0157857317432387
1.007438959970599,0.059562255279517966,0.09333521000452104,0.043832242766228824,0.07957509311693313,0.025774538719453514
1.0074860419957294,0.08449757331606145,0.11876754677731366,0.058037587268334905,0.10186927880296992,0.034985496448991744
1.0075331240208598,0.10858230355013457,0.13845078193227772,0.06858033205585247,0.1207230495260106,0.04138816199075326
1.0075802060459902,0.12742598805780986,0.14989167905675319,0.07621925524513734,0.13153126316592656,0.04666590867421391
1.0076272880711206,0.13840784538629322,0.1521656004517881,0.07904744927672683,0.13419156488415734,0.04890905642401729
1.007674370096251,0.14057521646913557,0.14656827023951735,0.0769603579802706,0.13164268203331328,0.047376554382822976
1.0077214521213813,0.1345761316442056,0.13468210556044619,0.07084930100861353,0.12275171377166287,0.04320225530201771
1.0077685341465117,0.12269802495893224,0.11652208308078038,0.062425783036096825,0.1072069685422093,0.03817583780536724
1.007815616171642,0.10844877640211482,0.09737880329210948,0.054884533548136764,0.08967601615987215,0.03447628506331408
