freq,gls,usurper,pdc_unbiased,shape_periodogram,shift_periodogram
1.0,0.02176245538732735,0.013592905168131572,-0.007335655112181927,0.0025498341543061616,-0.007382901123509678
1.0000470820251304,0.05134779247241603,0.018666819578150064,0.016081221596065367,0.002410839659712304,0.01603246143419865
1.0000941640502607,0.09689124580742478,0.02521230249893109,0.05094334186944231,0.007526460563811688,0.05079279385528119
1.0001412460753911,0.14848755125694818,0.031187716862629642,0.08456655871201842,0.016387017985977873,0.08425383967033605
1.0001883281005215,0.19664060203551523,0.03798236682505171,0.10917973127593883,0.028507534926010575,0.10867057727367824
1.0002354101256519,0.23592916525893703,0.0443675242612867,0.12678225514793529,0.03801761401834504,0.1261426972104123
1.0002824921507822,0.26363730657080775,0.047473212957611956,0.13936052532630389,0.04307562135391655,0.13866533607741643
1.0003295741759126,0.2780607972143743,0.04977253937799551,0.14663287491158739,0.04596992105749641,0.14591034357936705
1.000376656201043,0.27778293516045677,0.05088037596056427,0.14742341655727248,0.047871779061662414,0.1466795793350299
1.0004237382261734,0.2619162710265795,0.048755519072567095,0.139633635428265,0.04868006500973595,0.13887007102856877
1.0004708202513037,0.23107843684954268,0.0441054101133416,0.12167319492364326,0.04732046204612879,0.12090359302071955
1.0005179022764341,0.1884924826566669,0.03794233562873227,0.09811663264576473,0.04450347332733016,0.09735918815974491
1.0005649843015645,0.1401213853463462,0.033311158764087176,0.07552593926328457,0.04121353584536081,0.07479732965897082
1.0006120663266949,0.09311329616242185,0.03028130643725903,0.056936636782797936,0.03636296984873435,0.05627431394318087
1.0006591483518252,0.05338098213176131,0.030133863019676407,0.04656239048066332,0.02904869391989391,0.04602195252203988
1.0007062303769556,0.024158292773911582,0.029591730608861822,0.0379052596807291,0.020000726143002467,0.037525833613037435
1.000753312402086,0.006389706849983347,0.029570041509157645,0.024925530867037873,0.00983616991264482,0.024735074370505376
1.0008003944272164,4.4957735270936574e-05,0.030701932216156334,0.013623927240606612,0.0016147612902992026,0.013590733879241264
1.0008474764523467,0.004476680458159687,0.02935790142959849,0.005279248516488982,-0.0008305294330417915,0.005294108047406277
1.000894558477477,0.016631009383087918,0.032609693488910095,0.00604487589630294,0.0017600945729939303,0.006010273759359329
1.0009416405026075,0.030279800796216314,0.04000615291787617,0.01614856324889533,0.00832602844403159,0.01598770001005092
1.0009887225277379,0.04019506929021177,0.049510892590391556,0.031662352407458065,0.020187565699970444,0.03127912722099536
1.0010358045528682,0.045271217739530065,0.0561894950154565,0.049643587368788454,0.035051584949449203,0.04899959615184529
1.0010828865779986,0.04665854735345898,0.06040276636504999,0.06394396252727896,0.05006820038314132,0.06306350824221052
1.001129968603129,0.04557434040645729,0.06349531965710073,0.06951556918541625,0.06223956029022726,0.06845834476788414
1.0011770506282593,0.04281463251624272,0.06277950959220663,0.06676401531502141,0.069160183409851,0.06559997985278478
1.0012241326533897,0.03911406922799136,0.057792937439168295,0.05756222886158259,0.07142529294493374,0.05634172464000369
1.00127121467852,0.035734840091298535,0.050825172007104534,0.04469056838221148,0.07086955010312654,0.043445878193193205
1.0013182967036505,0.034632288517627896,0.0443772563934898,0.03354469161607427,0.06988289013819476,0.03228886224339248
1.0013653787287808,0.03686446430802818,0.04152684648393504,0.03235087082016887,0.06845534676472928,0.031116313766477173
1.0014124607539112,0.040499198873267514,0.04331661428111918,0.04235422606047071,0.0681674281170743,0.0411473949085595
1.0014595427790416,0.04245011553894062,0.04640673881722836,0.05148956578485458,0.06838196628834958,0.0503005574704645
1.001506624804172,0.04142424671447975,0.04733510406968985,0.057489670337512934,0.06376232904020986,0.056385325853929524
1.0015537068293023,0.03772147907862947,0.04733027134212777,0.05838903434484734,0.054922844949264235,0.0574242344764173
1.0016007888544327,0.032149333674356434,0.04515049916443713,0.05286952532393206,0.042885418410579065,0.0520944706287429
1.001647870879563,0.025799799790141527,0.04095330322492209,0.040386054375886556,0.027408963269316897,0.03987301468062728
1.0016949529046935,0.020580986012262138,0.033341776704953405,0.02276083148008517,0.0121683109597193,0.022526832364592724
1.0017420349298238,0.01993155776046648,0.029647193255213793,0.008396000375120035,0.0011943217603580846,0.00837174312285797
1.0017891169549542,0.027489951613850306,0.029096259864948563,0.00883020356959996,-0.0006640422076961509,0.008841248216901918
1.0018361989800846,0.042074300128446054,0.029394887411643183,0.022145335055818467,0.0037906806700542983,0.02206934746955764
1.001883281005215,0.05845891480384451,0.03447347002100232,0.04104344236602053,0.013134765520474172,0.04079002987513704
1.0019303630303453,0.07582159493280267,0.040662459644579846,0.05832937685591873,0.02425171625344593,0.05787631541798022
1.0019774450554757,0.09824195100672209,0.044710101470679414,0.07041397317164165,0.03746419721626481,0.06974181099209106
1.002024527080606,0.1303669711588208,0.042459637543557256,0.07896421651578898,0.04816043885100411,0.07813144940556645
1.0020716091057364,0.17464242099810953,0.03783480502564818,0.08832693698111686,0.05590610315855642,0.08739435796288338
1.0021186911308668,0.22917237164395338,0.03943731095311265,0.11355266104308831,0.061072581170601985,0.11259905834710462
1.0021657731559972,0.2864808872447173,0.0444603651879539,0.14880372324738836,0.06525542042522989,0.14788371881520374
1.0022128551811276,0.335488571803669,0.04942541722861092,0.17945522269565434,0.06870156919195619,0.178586233087395
1.002259937206258,0.3667004160945303,0.05248171551329099,0.20044309409803335,0.07065323276588427,0.19962156496556432
1.0023070192313883,0.37630521047742305,0.053307554029437036,0.20989430295355302,0.07059704550045937,0.20909984878159413
1.0023541012565187,0.3658732131217113,0.052008350764644926,0.20800353236518512,0.06872314274184467,0.2072111835207318
1.002401183281649,0.3393357840705059,0.05051102941026057,0.19716291122807472,0.0650343202351221,0.19636088628763576
1.0024482653067794,0.30043566038503033,0.04848701945178978,0.1783931936762516,0.056904643613322196,0.1776079873389723
1.0024953473319098,0.25183659939415354,0.04385128869452626,0.15384153094853617,0.04385221838744458,0.15315240771851885
1.0025424293570402,0.1956066522565673,0.0354513767379819,0.12081929242955049,0.02742353416326223,0.12033142399755767
1.0025895113821706,0.13475970805500284,0.026325526065541643,0.07564140824241966,0.00928682888086022,0.07545566996392906
1.002636593407301,0.07582916802294695,0.02027073800691061,0.025728531183742454,-0.0031054706469438834,0.025783071266454165
1.0026836754324313,0.03145358980808763,0.019806362256370995,-0.0040036080406334615,-0.001985081274808271,-0.003965089213047904
1.0027307574575617,0.01779891286180085,0.02520753825327564,-0.006351274616742859,0.01331153995005317,-0.006604181587726513
1.002777839482692,0.04358985242398123,0.025678883231746146,0.006591376950054447,0.03452098659985522,0.00593638119022726
1.0028249215078224,0.1037077589167159,0.03299134091446335,0.04281328660270074,0.05065987521613173,0.04189712418937491
1.0028720035329528,0.18101238562213362,0.04558601668601634,0.0979436666785688,0.05940552471174572,0.09698054421361568
1.0029190855580832,0.25636899888384335,0.059826803517649144,0.15380629462607742,0.06134497519480033,0.15293308714114337
1.0029661675832136,0.31832235074100634,0.07025015061872587,0.19704252226634572,0.05913149947947316,0.19627696495314034
1.003013249608344,0.36361141655314383,0.07565732705921831,0.228525784613192,0.05761169927298516,0.22783264865097239
1.0030603316334743,0.39341420767750745,0.07765297711494812,0.24979870354304085,0.055049375939718516,0.24915852648261982
1.0031074136586047,0.4102870696014962,0.07683639981722938,0.26258314989231946,0.05190055185492715,0.26197944618169383
1.003154495683735,0.41662904201390033,0.07494674467444527,0.266777273312063,0.04820541786180472,0.266197859169303
1.0032015777088654,0.41405085665469693,0.07168224388879263,0.26326150551395927,0.043665593998961506,0.2627035199305995
1.0032486597339958,0.4030953535584088,0.0670789037998413,0.251751202986526,0.0381012758624928,0.25122147970004
1.0032957417591262,0.38301151602067063,0.06102626009737448,0.2324239377319079,0.031575653716777716,0.23194014476444516
1.0033428237842565,0.3514583105172215,0.05327035954994701,0.2047530276495091,0.023987465401419883,0.20434536436424777
1.003389905809387,0.3042863356687068,0.0435028870891484,0.16911475512504195,0.015646887421559345,0.16881974802088714
1.0034369878345173,0.2364892670841809,0.032348867592113424,0.12615890065588273,0.006922637249962081,0.12601066337012362
1.0034840698596477,0.14805992805189566,0.020992343266909682,0.07745804013496241,-0.0013120121986284082,0.07746890502565636
1.003531151884778,0.05937981673678241,0.013763102448003744,0.035632586371168055,-0.006811981732435698,0.03575643347765387
1.0035782339099084,0.016571701488668728,0.013451730119368172,0.012038086514572617,-0.007792404600332375,0.012184630657780212
1.0036253159350388,0.04141534161646615,0.02231687497818883,0.014399178728297872,-0.0010313394788923906,0.014416209426855004
1.0036723979601692,0.0978579156313711,0.03673867606135448,0.03595348541122598,0.011603447465168571,0.03572883963264203
1.0037194799852995,0.14599333246590304,0.05355427318783132,0.06503465797160808,0.024372900122488637,0.06458081014497793
1.00376656201043,0.17300879075255565,0.06484644354856506,0.0922030709843016,0.03662112095829358,0.0915588300866792
1.0038136440355603,0.18229222765708752,0.0736328483423186,0.11374971918924169,0.04409196732747803,0.11301435154520179
1.0038607260606907,0.18262972424027749,0.07811336114281218,0.12736778710133306,0.04970585460904277,0.1265752490217635
1.003907808085821,0.18292620727983336,0.07946946801120958,0.13485525602086357,0.05655591657117044,0.13399389592515412
1.0039548901109514,0.18798821740501145,0.08088134935886268,0.13913083302593265,0.06175776752805672,0.13822255967904837
1.0040019721360818,0.19658928748535154,0.08082279446648923,0.1397247738744464,0.06444305289687471,0.13879115266379075
1.0040490541612122,0.20361099360789395,0.07762054893935341,0.1356935801867525,0.06438440980252932,0.134751291165328
1.0040961361863425,0.20356945018764083,0.07068301859481844,0.1287855413388881,0.0625763976117784,0.12784666505316722
1.004143218211473,0.19261735903368254,0.06162698172711138,0.11776025800915435,0.06021819911235798,0.11682513615162415
1.0041903002366033,0.1692114287165738,0.050812206971329925,0.09836742477706704,0.054414830912314575,0.0974714340099841
1.0042373822617336,0.13469585530973552,0.039164903963715296,0.07519967777083232,0.04521022021357835,0.07440805764409322
1.004284464286864,0.094068350002802,0.027482595682948426,0.051842634052145065,0.03401928736449899,0.051217579905719485
1.0043315463119944,0.0558705414627791,0.017315418265569274,0.03082107495389939,0.02074095067162278,0.030427619683639044
1.0043786283371248,0.029785725493520713,0.011396020331149292,0.019809015244991575,0.007692654437556297,0.019659601752810753
1.0044257103622551,0.022326134922130727,0.00946530356653836,0.01684685304795892,-0.0027588746266710568,0.016896377703065485
1.0044727923873855,0.03362727707623793,0.010810903663010542,0.01768087969631584,-0.00833762317642021,0.017836991276608757
1.004519874412516,0.057935866130881315,0.015159749469667949,0.0238553638180855,-0.008924896897722285,0.02402180602640501
1.0045669564376463,0.08691312585069338,0.021697478020571734,0.038233159934289905,-0.0037651868993114324,0.038298050707017195
1.0046140384627766,0.11302745450084833,0.02920790371684431,0.05542672474865837,0.007043837005457211,0.055284553654802775
1.004661120487907,0.13143773576861661,0.0362381167341309,0.07126698378066398,0.019866368299777986,0.07089259763760468
1.0047082025130374,0.140315951549541,0.04125395007464796,0.0817840112464661,0.03272640847475089,0.0811954758765368
1.0047552845381678,0.14016084842095028,0.041850624914605866,0.0846685751900148,0.04365417624603772,0.08391029566586859
1.0048023665632981,0.13271042804166153,0.039446331667661816,0.08028160564993014,0.05153430840738989,0.07939997830435827
1.0048494485884285,0.1199532079956697,0.03508258034359896,0.06958311394397716,0.0582249092473529,0.06858551378203308
1.0048965306135589,0.10352759540252561,0.0315246237241456,0.05738407400153901,0.06274679631511493,0.056295180036261244
1.0049436126386893,0.08458770500586026,0.026123659286255756,0.04469505929439128,0.06299482942726037,0.04357725401475834
1.0049906946638196,0.06411017510052013,0.022504346889864083,0.03435472552873721,0.05958049488601771,0.0332749111713426
1.00503777668895,0.043500849939608656,0.017864496155587387,0.022887706523455283,0.054222664689494895,0.021883958983336928
1.0050848587140804,0.02497562650004661,0.01385683678267974,0.013888116903115118,0.04650810270235469,0.01301427332342413
1.0051319407392107,0.011013597455985432,0.011018703397875362,0.011624969459267675,0.036502863411055714,0.010935163304986952
1.0051790227643411,0.003334338693202587,0.00990303354729417,0.009001101837417943,0.024612043092435924,0.008533425548016314
1.0052261047894715,0.0027948227754708652,0.005885008464848413,0.005716764128480125,0.013050417016799534,0.005467687887816195
1.0052731868146019,0.010164673003053454,0.003313213064079901,0.005314070387151807,0.0042596744878860724,0.005232041383938638
1.0053202688397322,0.026566180290056158,0.003957042965272604,0.008193549268036414,-0.003550589672599618,0.008259722107919656
1.0053673508648626,0.05291846997433676,0.0064226149418424505,0.011498759854167706,-0.007393211688098714,0.011637752509537481
1.005414432889993,0.08828034555015178,0.009996508215094417,0.017065936640710815,-0.007113945704652771,0.01719868808609126
1.0054615149151234,0.12763762777320273,0.01357458505095662,0.025647230237824777,-0.00332050135446461,0.025705893517971454
1.0055085969402537,0.16155770115500132,0.016453113051410145,0.038076850744054896,0.004799416308040582,0.03797919667317617
1.0055556789653841,0.18078890709766565,0.019741497472740094,0.05135766337998839,0.015514497273747605,0.051060225654511106
1.0056027609905145,0.18307418566708303,0.02083842392749156,0.06056084021799014,0.02691605973360098,0.06006181554602175
1.0056498430156449,0.1741533504439713,0.022073307231194165,0.06655908741414072,0.03661500508432106,0.0658983935448318
1.0056969250407752,0.16242605985016223,0.021638126926196145,0.07063087442771013,0.044653502332182536,0.06984340585106405
1.0057440070659056,0.15418810481596457,0.019567048788436254,0.07107575192890922,0.04877695937470149,0.0702241903486119
1.005791089091036,0.1523552110015489,0.01582615965028257,0.0660360559428213,0.04936584957931702,0.06516924181013663
1.0058381711161664,0.15691036178882456,0.013704460982942313,0.06130313889977103,0.048336041077213024,0.060447111413222995
1.0058852531412967,0.16538784679386007,0.013442955280997652,0.06307528196508604,0.045852427942291905,0.06226109354168431
1.005932335166427,0.17322460684996496,0.011860399529869893,0.06323184659303546,0.0413103235132553,0.06249155141553637
1.0059794171915575,0.17475929729964576,0.00883988230822725,0.05880087400333982,0.034539040943651726,0.05817048655984373
1.0060264992166879,0.16548577922015562,0.00578749049051017,0.05204155960234529,0.027808586770676998,0.051524594900766905
1.0060735812418182,0.1445721481217929,0.0033197612696203283,0.04234591607178599,0.02010376203615699,0.04196490447539705
1.0061206632669486,0.11538472372115638,0.0010621217287113361,0.03266210113426135,0.012031962728329251,0.032429770999981594
1.006167745292079,0.08342022676517998,-0.00031782046393288437,0.0259645785337829,0.005117996942529784,0.025862848990136796
1.0062148273172093,0.053714935068683495,0.0007679477014822581,0.01794830890199036,0.0010402431218248884,0.017925265437823433
1.0062619093423397,0.029620632829972474,0.002676742293142344,0.006428025048282717,-0.0006187290010864278,0.006438642349423654
1.00630899136747,0.012907514843990737,0.005796549512255146,-0.004503164505502606,0.0008426481187955837,-0.004518395480216152
1.0063560733926005,0.004292560353454192,0.01008418654547287,-0.010519166817943732,0.004384303768651062,-0.010600837054861308
1.0064031554177308,0.0038095921685766332,0.01629464077295712,-0.007972360122875525,0.00757930784382652,-0.008115465157649937
1.0064502374428612,0.010924293923755681,0.02536281903936996,0.0013341291502741227,0.014641061587774708,0.0010551936334935843
1.0064973194679916,0.02453035587728399,0.032792394156968004,0.011333716656649779,0.023326430333142252,0.010890505614379509
1.006544401493122,0.042966387475684646,0.03852654400960489,0.020787738978896356,0.03115234025469157,0.02020091635546189
1.0065914835182523,0.06411092062196938,0.04152806989349262,0.03329944681240632,0.03600865606210648,0.032629963694843146
1.0066385655433827,0.08556714248621351,0.04530158786358128,0.049462130528264495,0.03855255585626337,0.0487578472482187
1.006685647568513,0.10493697207975199,0.04713035083191325,0.06485229624100503,0.0390456190583605,0.06415039589987018
1.0067327295936435,0.12014720761669652,0.0473411217495437,0.07640706666955516,0.03790195206492819,0.0757318865709667
1.0067798116187738,0.12974860817624662,0.04394956455590214,0.08294186479002422,0.03518396516342651,0.08231439008111041
1.0068268936439042,0.1331160769266914,0.04143699422061993,0.08436945777741765,0.03091026365885603,0.08381164425619561
1.0068739756690346,0.13051634907150206,0.03646932716579275,0.08386978816652868,0.026634208758014883,0.08338217896185966
1.006921057694165,0.12301693370584733,0.02973259978580757,0.08185258015702256,0.02115500775439386,0.08145711509969737
1.0069681397192953,0.11219272060745543,0.021496670509155606,0.07585112215539112,0.014714292331808484,0.07556778460788657
1.0070152217444257,0.09964098937742749,0.013762456421206286,0.06985230351433948,0.008737441502071668,0.06967717305650171
1.007062303769556,0.08648287672211809,0.007898330615687787,0.06302251331950957,0.0043793203103492245,0.06292883265390567
1.0071093857946865,0.07315337862299943,0.004736451336712002,0.053521194673379444,0.001330135445951719,0.0534863437032357
1.0071564678198168,0.05967551136841471,0.0019448172757052247,0.042771215350936226,-0.0017366957677630334,0.04279651906330205
1.0072035498449472,0.046352747241279996,-0.0008338938388619638,0.029687677967592516,-0.0031053170777078985,0.029741498429777347
1.0072506318700776,0.03458526276589038,-0.0019543994355042636,0.01916866027493343,-0.002467214164309424,0.01921220093011464
1.007297713895208,0.02727830692374265,-0.001555816055547367,0.01473006896934623,-0.0019304418025468879,0.014764175124631625
1.0073447959203383,0.0280866607277734,0.0004129001610662086,0.01711698325886342,-0.0006172235409409475,0.017125632104437353
1.0073918779454687,0.03925806445151868,0.005925044652915397,0.028584290137595406,0.003365754880948362,0.028515257354097986
1.007438959970599,0.059562255279517966,0.012971610709901061,0.043832242766228824,0.008455744817946838,0.04366530857690061
1.0074860419957294,0.08449757331606145,0.01896310198871998,0.058037587268334905,0.014831937722410303,0.05775240654388695
1.0075331240208598,0.10858230355013457,0.02332352007908075,0.06858033205585247,0.020559086750633143,0.06819354009333085
1.0075802060459902,0.12742598805780986,0.02666714234541929,0.07621925524513734,0.024682690161537957,0.07576249941913865
1.0076272880711206,0.13840784538629322,0.027816679287268855,0.07904744927672683,0.027046320643499728,0.078551511915113
1.007674370096251,0.14057521646913557,0.026879572148668186,0.0769603579802706,0.0278804755277899,0.0764497833755977
1.0077214521213813,0.1345761316442056,0.024472859201450568,0.07084930100861353,0.026842033227627286,0.0703544090909046
