freq,gls,usurper,pdc_unbiased,shape_periodogram,shift_periodogram
1.0,0.02176245538732735,0.04023258746559211,-0.007335655112181927,0.024020619389178578,-0.010239347848126941
1.0000470820251304,0.05134779247241603,0.0769655641646242,0.016081221596065367,0.057389528865992176,0.008910828180683644
1.0000941640502607,0.09689124580742478,0.11570482767795266,0.05094334186944231,0.09652488381538626,0.0388919854545422
1.0001412460753911,0.14848755125694818,0.15465017771387257,0.08456655871201842,0.1329752792415464,0.06830434121399111
1.0001883281005215,0.19664060203551523,0.1858149645077808,0.10917973127593883,0.16314174935367293,0.08976233399623773
1.0002354101256519,0.23592916525893703,0.20706734846705793,0.12678225514793529,0.18500947963790781,0.1053067312779736
1.0002824921507822,0.26363730657080775,0.22158388004420207,0.13936052532630389,0.19871379161673175,0.11674281740062935
1.0003295741759126,0.2780607972143743,0.23031426442596267,0.14663287491158739,0.2072875113024476,0.12334180331630375
1.000376656201043,0.27778293516045677,0.23398528704547847,0.14742341655727248,0.21175253989212703,0.12372171114929255
1.0004237382261734,0.2619162710265795,0.23088450090185414,0.139633635428265,0.21050917180650527,0.11585783703395382
1.0004708202513037,0.23107843684954268,0.21881631528978784,0.12167319492364326,0.20256115954938134,0.09828619725712125
1.0005179022764341,0.1884924826566669,0.20185268129270936,0.09811663264576473,0.19095382421043408,0.07551392794815234
1.0005649843015645,0.1401213853463462,0.19049808153931547,0.07552593926328457,0.18425927269826417,0.053322776174405014
1.0006120663266949,0.09311329616242185,0.1870201725640598,0.056936636782797936,0.18363997592855633,0.03455726065707042
1.0006591483518252,0.05338098213176131,0.19236295312440974,0.04656239048066332,0.18801324282452297,0.023527730291475032
1.0007062303769556,0.024158292773911582,0.19885636881599728,0.0379052596807291,0.19278377906683516,0.014177450840767528
1.000753312402086,0.006389706849983347,0.19800008530061444,0.024925530867037873,0.19246282831773787,0.0010720698249397243
1.0008003944272164,4.4957735270936574e-05,0.19722297744721023,0.013623927240606612,0.1891530030844196,-0.009941613310265489
1.0008474764523467,0.004476680458159687,0.1968560174324218,0.005279248516488982,0.19097147023589722,-0.01860817982093007
1.000894558477477,0.016631009383087918,0.2057349220170599,0.00604487589630294,0.20163091579939785,-0.019212292933390433
1.0009416405026075,0.030279800796216314,0.2289994506396939,0.01614856324889533,0.22265629809030618,-0.011672761423997128
1.0009887225277379,0.04019506929021177,0.26196746674236276,0.031662352407458065,0.25210373867057784,0.00041754854700801783
1.0010358045528682,0.045271217739530065,0.2978207164669097,0.049643587368788454,0.28383595359992164,0.015002861750349214
1.0010828865779986,0.04665854735345898,0.3214920159401037,0.06394396252727896,0.31082523111227744,0.02663647807519267
1.001129968603129,0.04557434040645729,0.33113469778253274,0.06951556918541625,0.3262391814021463,0.030658861232114032
1.0011770506282593,0.04281463251624272,0.3250240818586563,0.06676401531502141,0.32801302084499473,0.027540821026531267
1.0012241326533897,0.03911406922799136,0.3079359574596251,0.05756222886158259,0.31862037016948214,0.018984234405613653
1.00127121467852,0.035734840091298535,0.28482785378292,0.04469056838221148,0.3018309236540814,0.0075945009230253295
1.0013182967036505,0.034632288517627896,0.2672077809373513,0.03354469161607427,0.28909371013620055,-0.0023799046597517727
1.0013653787287808,0.03686446430802818,0.2688713280448704,0.03235087082016887,0.28910061007733007,-0.0036203862032354573
1.0014124607539112,0.040499198873267514,0.28581636914265496,0.04235422606047071,0.30102833945973706,0.0052579503213369926
1.0014595427790416,0.04245011553894062,0.30699658293385507,0.05148956578485458,0.31759505706273444,0.01272883511180408
1.001506624804172,0.04142424671447975,0.3220379260003212,0.057489670337512934,0.3279025414673738,0.017762504507520687
1.0015537068293023,0.03772147907862947,0.3238453350907597,0.05838903434484734,0.32694488850098813,0.018829671839505176
1.0016007888544327,0.032149333674356434,0.3119566761947452,0.05286952532393206,0.3115139205901405,0.01493605417461051
1.001647870879563,0.025799799790141527,0.28560860488384365,0.040386054375886556,0.28287182591627,0.005516127148814851
1.0016949529046935,0.020580986012262138,0.2498725113392841,0.02276083148008517,0.24598740972821231,-0.007930195166067997
1.0017420349298238,0.01993155776046648,0.2183524814406057,0.008396000375120035,0.2147021013362704,-0.018525695950912375
1.0017891169549542,0.027489951613850306,0.20414872098941148,0.00883020356959996,0.20097114307955016,-0.01630615190297444
1.0018361989800846,0.042074300128446054,0.20445987649630537,0.022145335055818467,0.20380488853839973,-0.003172056935032456
1.001883281005215,0.05845891480384451,0.2155629225562666,0.04104344236602053,0.21694608249084144,0.014401740204832552
1.0019303630303453,0.07582159493280267,0.229468152658286,0.05832937685591873,0.22932118627263362,0.030556104647100762
1.0019774450554757,0.09824195100672209,0.23690469206110248,0.07041397317164165,0.23107533526068524,0.04272596288402297
1.002024527080606,0.1303669711588208,0.22716645802301455,0.07896421651578898,0.21936146240963814,0.052820837084304705
1.0020716091057364,0.17464242099810953,0.2091499931194482,0.08832693698111686,0.20280499078165157,0.0642391540355816
1.0021186911308668,0.22917237164395338,0.2092559376774243,0.11355266104308831,0.19790772527979095,0.09048518915318246
1.0021657731559972,0.2864808872447173,0.22505207770320845,0.14880372324738836,0.20531417944017624,0.12575519828464055
1.0022128551811276,0.335488571803669,0.24234133574160296,0.17945522269565434,0.21518666127420816,0.1563026280828548
1.002259937206258,0.3667004160945303,0.25267960837162273,0.20044309409803335,0.21984556283356527,0.1775249405101153
1.0023070192313883,0.37630521047742305,0.2537819360962414,0.20989430295355302,0.21712461388574034,0.18748510496655324
1.0023541012565187,0.3658732131217113,0.2460671877062109,0.20800353236518512,0.20752346105942793,0.18630015590723986
1.002401183281649,0.3393357840705059,0.2305231852839739,0.19716291122807472,0.19238967878531862,0.17643503130215368
1.0024482653067794,0.30043566038503033,0.2091058633175997,0.1783931936762516,0.17257233214401696,0.15904576500563283
1.0024953473319098,0.25183659939415354,0.1831078996902316,0.15384153094853617,0.14793746507954614,0.13652618399662325
1.0025424293570402,0.1956066522565673,0.14948692892344914,0.12081929242955049,0.11879359036184976,0.10631322931711669
1.0025895113821706,0.13475970805500284,0.10459995046924128,0.07564140824241966,0.0827041852249597,0.06518601105534279
1.002636593407301,0.07582916802294695,0.058138822884783926,0.025728531183742454,0.0480071106930625,0.019650639790418215
1.0026836754324313,0.03145358980808763,0.0346416041926857,-0.0040036080406334615,0.027546892844114827,-0.007366730357415991
1.0027307574575617,0.01779891286180085,0.038884098445588516,-0.006351274616742859,0.028969576327713093,-0.009872832534536639
1.002777839482692,0.04358985242398123,0.052358410027537126,0.006591376950054447,0.04722860108422273,0.0007284963099441037
1.0028249215078224,0.1037077589167159,0.08035483430121432,0.04281328660270074,0.07633024635259537,0.033209244630802034
1.0028720035329528,0.18101238562213362,0.12587722339453092,0.0979436666785688,0.11806400848080753,0.08342869228935972
1.0029190855580832,0.25636899888384335,0.17582148856566737,0.15380629462607742,0.15608740263693235,0.13567296414620514
1.0029661675832136,0.31832235074100634,0.21834769800678366,0.19704252226634572,0.17905331026181137,0.17746518373559794
1.003013249608344,0.36361141655314383,0.24315927811224705,0.228525784613192,0.1934808603537539,0.208479274106862
1.0030603316334743,0.39341420767750745,0.25914545795710797,0.24979870354304085,0.20263174042581172,0.22965971825706402
1.0031074136586047,0.4102870696014962,0.2672605820227832,0.26258314989231946,0.20673857745277574,0.2425494357467124
1.003154495683735,0.41662904201390033,0.2695179001543427,0.266777273312063,0.20702635322585186,0.24685502559749242
1.0032015777088654,0.41405085665469693,0.26665505137402046,0.26326150551395927,0.2033527607099452,0.24347140373905918
1.0032486597339958,0.4030953535584088,0.25855659455536173,0.251751202986526,0.19552193865336243,0.23216774040923593
1.0032957417591262,0.38301151602067063,0.24506035671632367,0.2324239377319079,0.18358514315778537,0.21324143208075846
1.0033428237842565,0.3514583105172215,0.22554040756253338,0.2047530276495091,0.16727160600490204,0.18635309180104595
1.003389905809387,0.3042863356687068,0.19973256809643516,0.16911475512504195,0.14697802591429146,0.15207018727138719
1.0034369878345173,0.2364892670841809,0.16815256162510336,0.12615890065588273,0.12319898629960206,0.11120080677894716
1.0034840698596477,0.14805992805189566,0.1329659901539237,0.07745804013496241,0.09863166700261881,0.06513896351787882
1.003531151884778,0.05937981673678241,0.10796829599673069,0.035632586371168055,0.08405013953460808,0.02511870791874058
1.0035782339099084,0.016571701488668728,0.10708681494460233,0.012038086514572617,0.09093931490645164,0.0007561617472142423
1.0036253159350388,0.04141534161646615,0.13863095645523793,0.014399178728297872,0.12576488237298575,-0.001199672222662624
1.0036723979601692,0.0978579156313711,0.18884482086932802,0.03595348541122598,0.17673988818186648,0.014168602702680522
1.0037194799852995,0.14599333246590304,0.24467507238076952,0.06503465797160808,0.23438116128915654,0.03682683382467608
1.00376656201043,0.17300879075255565,0.2929573845060295,0.0922030709843016,0.28461050537466753,0.059207418765580756
1.0038136440355603,0.18229222765708752,0.32752920824963494,0.11374971918924169,0.32070048562331893,0.07804069944139062
1.0038607260606907,0.18262972424027749,0.3499748409152679,0.12736778710133306,0.34531895366304155,0.09012776702749689
1.003907808085821,0.18292620727983336,0.361572035646098,0.13485525602086357,0.3592115417666833,0.09688455721978229
1.0039548901109514,0.18798821740501145,0.3667544143499978,0.13913083302593265,0.36313038348463006,0.10114711733754901
1.0040019721360818,0.19658928748535154,0.3644651642110401,0.1397247738744464,0.36032896467573483,0.10203515453779091
1.0040490541612122,0.20361099360789395,0.35775611449856487,0.1356935801867525,0.34946174661157253,0.09866864213484619
1.0040961361863425,0.20356945018764083,0.34396853823975115,0.1287855413388881,0.3310302607617718,0.09299141435820651
1.004143218211473,0.19261735903368254,0.31879444399030804,0.11776025800915435,0.3048212380293418,0.08386983184940396
1.0041903002366033,0.1692114287165738,0.28263628008080316,0.09836742477706704,0.2704401098554922,0.06716095860368677
1.0042373822617336,0.13469585530973552,0.2405117877934019,0.07519967777083232,0.23159539493437123,0.04757185397853257
1.004284464286864,0.094068350002802,0.20068793393024306,0.051842634052145065,0.1933102504939459,0.02824336710553935
1.0043315463119944,0.0558705414627791,0.16589968007338232,0.03082107495389939,0.15877793255261105,0.011197452449624971
1.0043786283371248,0.029785725493520713,0.1432664986425064,0.019809015244991575,0.13459609428542618,0.003122219892767312
1.0044257103622551,0.022326134922130727,0.13275796228351017,0.01684685304795892,0.1214194399872758,0.0017879396143297805
1.0044727923873855,0.03362727707623793,0.13257580275022862,0.01768087969631584,0.11963118479573595,0.00284330495971193
1.004519874412516,0.057935866130881315,0.14121283988045985,0.0238553638180855,0.12740550379321275,0.008062867783339247
1.0045669564376463,0.08691312585069338,0.15937996051025174,0.038233159934289905,0.1449557941242274,0.020337136802973287
1.0046140384627766,0.11302745450084833,0.18285150946467646,0.05542672474865837,0.16927729241862918,0.03473290251860176
1.004661120487907,0.13143773576861661,0.20418624898487134,0.07126698378066398,0.19400645020329269,0.04787939171521754
1.0047082025130374,0.140315951549541,0.2203688556946764,0.0817840112464661,0.2141596144142749,0.05629108294025034
1.0047552845381678,0.14016084842095028,0.2273329830928963,0.0846685751900148,0.22672129738923988,0.0578301985715601
1.0048023665632981,0.13271042804166153,0.2245666345437538,0.08028160564993014,0.22874618094493945,0.05310601974729867
1.0048494485884285,0.1199532079956697,0.21365736135357682,0.06958311394397716,0.22351545982339313,0.04275103140656417
1.0048965306135589,0.10352759540252561,0.19451058437821694,0.05738407400153901,0.20910269600704978,0.03199292002183178
1.0049436126386893,0.08458770500586026,0.1699502841270449,0.04469505929439128,0.1880321189212337,0.02163420831076905
1.0049906946638196,0.06411017510052013,0.14504616549434854,0.03435472552873721,0.165677927731792,0.013910013847527457
1.00503777668895,0.043500849939608656,0.12202106632538891,0.022887706523455283,0.1427585666169221,0.005199604843386131
1.0050848587140804,0.02497562650004661,0.10003100564654337,0.013888116903115118,0.1189763769214592,-0.0008679944001623133
1.0051319407392107,0.011013597455985432,0.0839310707352532,0.011624969459267675,0.09889078477410518,-0.0006389675768779725
1.0051790227643411,0.003334338693202587,0.07011803086205445,0.009001101837417943,0.08202359554656947,-0.0011677970471964314
1.0052261047894715,0.0027948227754708652,0.05566888466969225,0.005716764128480125,0.06525400541618921,-0.0023642348822358722
1.0052731868146019,0.010164673003053454,0.043224846979892526,0.005314070387151807,0.04822564475795033,-0.0006634812861111872
1.0053202688397322,0.026566180290056158,0.035341194458593156,0.008193549268036414,0.03582043470528123,0.0037244786521237238
1.0053673508648626,0.05291846997433676,0.03089171748040624,0.011498759854167706,0.02816749938278999,0.007947626002734463
1.005414432889993,0.08828034555015178,0.030834833240183428,0.017065936640710815,0.023334137809858022,0.014068683561957108
1.0054615149151234,0.12763762777320273,0.03412269734878164,0.025647230237824777,0.02170499338436025,0.022788176619135715
1.0055085969402537,0.16155770115500132,0.04125063721146879,0.038076850744054896,0.02602310421761692,0.03460230688158922
1.0055556789653841,0.18078890709766565,0.04911536643177651,0.05135766337998839,0.0344705706887201,0.04676778349226332
1.0056027609905145,0.18307418566708303,0.05419247108694572,0.06056084021799014,0.04374941555776196,0.05479543614721445
1.0056498430156449,0.1741533504439713,0.056447071179466825,0.06655908741414072,0.04905747777712024,0.06012439927404262
1.0056969250407752,0.16242605985016223,0.05789317729731421,0.07063087442771013,0.053029068289791606,0.06370164007806793
1.0057440070659056,0.15418810481596457,0.059418677672011026,0.07107575192890922,0.05602956845118043,0.06378719714717919
1.005791089091036,0.1523552110015489,0.05956012929339763,0.0660360559428213,0.05721858596660384,0.058628934768653905
1.0058381711161664,0.15691036178882456,0.05942704771861122,0.06130313889977103,0.05825760354235201,0.053793693641289525
1.0058852531412967,0.16538784679386007,0.06348052782897155,0.06307528196508604,0.06088674625006674,0.05524363745748054
1.005932335166427,0.17322460684996496,0.06544550258140974,0.06323184659303546,0.06319605082442947,0.055123927592163065
1.0059794171915575,0.17475929729964576,0.06381052925482184,0.05880087400333982,0.06253102467484381,0.05079130813956241
1.0060264992166879,0.16548577922015562,0.05978432482993812,0.05204155960234529,0.05874050077084642,0.044517822362466986
1.0060735812418182,0.1445721481217929,0.0533974554009596,0.04234591607178599,0.052203326444053774,0.03566146685202175
1.0061206632669486,0.11538472372115638,0.048512169286239054,0.03266210113426135,0.0447482480600373,0.026939830317176266
1.006167745292079,0.08342022676517998,0.04290059017289001,0.0259645785337829,0.03735722210699326,0.02118726655214069
1.0062148273172093,0.053714935068683495,0.039477004174649506,0.01794830890199036,0.03241764344017653,0.013830102677941247
1.0062619093423397,0.029620632829972474,0.035909519851349256,0.006428025048282717,0.028905259887476643,0.002822282609078399
1.00630899136747,0.012907514843990737,0.03279853609372822,-0.004503164505502606,0.028185811143982057,-0.007941459031557704
1.0063560733926005,0.004292560353454192,0.033886870552844596,-0.010519166817943732,0.032182496934413475,-0.014407283599306894
1.0064031554177308,0.0038095921685766332,0.04068738027364856,-0.007972360122875525,0.04183668135741185,-0.013072283673845728
1.0064502374428612,0.010924293923755681,0.05704819429528766,0.0013341291502741227,0.06122695858524676,-0.006224437042947612
1.0064973194679916,0.02453035587728399,0.07605542286074568,0.011333716656649779,0.08304339663566158,0.0010293926254832727
1.006544401493122,0.042966387475684646,0.09394414900488603,0.020787738978896356,0.10439511728283073,0.007825882215736709
1.0065914835182523,0.06411092062196938,0.11043903216663549,0.03329944681240632,0.12110372111446296,0.01828857740272829
1.0066385655433827,0.08556714248621351,0.12645839038020612,0.049462130528264495,0.13380155138785343,0.032954090681624026
1.006685647568513,0.10493697207975199,0.1403357286023515,0.06485229624100503,0.14271727892307653,0.047358886319890214
1.0067327295936435,0.12014720761669652,0.1486585844221803,0.07640706666955516,0.1460625871719894,0.05859704219881298
1.0067798116187738,0.12974860817624662,0.15150213173026447,0.08294186479002422,0.14271976121816288,0.06555848136682388
1.0068268936439042,0.1331160769266914,0.14867314199783585,0.08436945777741765,0.13351810324817504,0.0680442823748563
1.0068739756690346,0.13051634907150206,0.1402230718421534,0.08386978816652868,0.12017848735172564,0.06906903547455663
1.006921057694165,0.12301693370584733,0.12548797174477744,0.08185258015702256,0.10452576299493473,0.06885100329855838
1.0069681397192953,0.11219272060745543,0.1071013693523972,0.07585112215539112,0.0872436892628272,0.06486324347805635
1.0070152217444257,0.09964098937742749,0.08827165727084124,0.06985230351433948,0.06891825859883408,0.06103852979136085
1.007062303769556,0.08648287672211809,0.0713485367017966,0.06302251331950957,0.052795711711558654,0.05615846011206971
1.0071093857946865,0.07315337862299943,0.05752877156772681,0.053521194673379444,0.03942694094233709,0.0483181511278026
1.0071564678198168,0.05967551136841471,0.04759836243431699,0.042771215350936226,0.029807026871093305,0.03880365049087037
1.0072035498449472,0.046352747241279996,0.03771306095354815,0.029687677967592516,0.02247051095723292,0.02670604522025252
1.0072506318700776,0.03458526276589038,0.03161093413914074,0.01916866027493343,0.01957426425325844,0.01661772472775669
1.007297713895208,0.02727830692374265,0.02990869722137664,0.01473006896934623,0.02046095062144054,0.012102590361506958
1.0073447959203383,0.0280866607277734,0.03492080914545171,0.01711698325886342,0.02579768592296577,0.013816949826606667
1.0073918779454687,0.03925806445151868,0.04958464945231469,0.028584290137595406,0.03819120971761051,0.023687900942067276
1.007438959970599,0.059562255279517966,0.0686876295613926,0.043832242766228824,0.05341150497622573,0.03699342765207457
1.0074860419957294,0.08449757331606145,0.08704904361556105,0.058037587268334905,0.0683478642406736,0.04933536993969706
1.0075331240208598,0.10858230355013457,0.10104532639240275,0.06858033205585247,0.08171348876614427,0.05825671284641599
1.0075802060459902,0.12742598805780986,0.10936904225785062,0.07621925524513734,0.0897298446602413,0.06493990948498218
1.0076272880711206,0.13840784538629322,0.11097950478355995,0.07904744927672683,0.09208634296499325,0.06749012507775953
1.007674370096251,0.14057521646913557,0.10675473529990465,0.0769603579802706,0.09151505926683329,0.06547154845874058
1.0077214521213813,0.1345761316442056,0.09828291419138792,0.07084930100861353,0.08635653058331869,0.05997365522562947
1.0077685341465117,0.12269802495893224,0.08526570119627823,0.062425783036096825,0.07626252659020931,0.052764649789699684
1.007815616171642,0.10844877640211482,0.07168103677547241,0.054884533548136764,0.06455633858232733,0.04664920999678839
