freq,gls,usurper,pdc_unbiased,shape_periodogram,shift_periodogram
1.0,0.02176245538732735,0.019854327895943803,-0.007335655112181927,0.006174316395121561,-0.007558690055962454
1.0000470820251304,0.05134779247241603,0.02511955439774789,0.016081221596065367,0.007934669125090029,0.015777985545692937
1.0000941640502607,0.09689124580742478,0.03274590587903568,0.05094334186944231,0.01551429710503453,0.050344288319530535
1.0001412460753911,0.14848755125694818,0.03841411538159605,0.08456655871201842,0.027357234991192768,0.0835412392663079
1.0001883281005215,0.19664060203551523,0.04479898726023207,0.10917973127593883,0.0422684680900765,0.10766848189894132
1.0002354101256519,0.23592916525893703,0.051513355337244916,0.12678225514793529,0.05469076853790404,0.12491017858610129
1.0002824921507822,0.26363730657080775,0.05648942208912473,0.13936052532630389,0.06215325748999994,0.13729900048516194
1.0003295741759126,0.2780607972143743,0.05981613540398192,0.14663287491158739,0.06570292218702165,0.1444920183786466
1.000376656201043,0.27778293516045677,0.0605478481522626,0.14742341655727248,0.06755058959177113,0.14523587147148737
1.0004237382261734,0.2619162710265795,0.05815354043232808,0.139633635428265,0.06670580564325043,0.13744878684224604
1.0004708202513037,0.23107843684954268,0.05302557050621104,0.12167319492364326,0.06251991415916243,0.11956436160245455
1.0005179022764341,0.1884924826566669,0.04641706186020669,0.09811663264576473,0.05643762115385141,0.09614834523446937
1.0005649843015645,0.1401213853463462,0.041789851211147234,0.07552593926328457,0.05090642227985419,0.0737063731097519
1.0006120663266949,0.09311329616242185,0.03936867683964935,0.056936636782797936,0.04603939167995147,0.05526496278825046
1.0006591483518252,0.05338098213176131,0.03912127071214638,0.04656239048066332,0.041408990366663755,0.045045581469007216
1.0007062303769556,0.024158292773911582,0.03878332447208502,0.0379052596807291,0.03608101024107355,0.03657417720432788
1.000753312402086,0.006389706849983347,0.039004970225315024,0.024925530867037873,0.028898925547340713,0.023852733893197683
1.0008003944272164,4.4957735270936574e-05,0.03932637364473088,0.013623927240606612,0.023139413107509534,0.01276415330254362
1.0008474764523467,0.004476680458159687,0.03794320757974948,0.005279248516488982,0.021069286879350693,0.004498959737002778
1.000894558477477,0.016631009383087918,0.04349157601446918,0.00604487589630294,0.023976128524115767,0.005157264549081474
1.0009416405026075,0.030279800796216314,0.053444467762419054,0.01614856324889533,0.03136290189133997,0.014987673243624891
1.0009887225277379,0.04019506929021177,0.06542798647250467,0.031662352407458065,0.04517153625262901,0.03000638258554305
1.0010358045528682,0.045271217739530065,0.07411826232568568,0.049643587368788454,0.061309154144971026,0.04744379723277255
1.0010828865779986,0.04665854735345898,0.08176489996787284,0.06394396252727896,0.07699819397279546,0.0612561854709802
1.001129968603129,0.04557434040645729,0.08660439202440959,0.06951556918541625,0.08834476375846728,0.06648873506920572
1.0011770506282593,0.04281463251624272,0.08725457245573678,0.06676401531502141,0.09297347289322287,0.06358288402552266
1.0012241326533897,0.03911406922799136,0.08355996395175645,0.05756222886158259,0.091117005599401,0.05440114545129869
1.00127121467852,0.035734840091298535,0.07686316099890374,0.04469056838221148,0.08534862054878126,0.041670311450313774
1.0013182967036505,0.034632288517627896,0.0707061568274983,0.03354469161607427,0.08039416255440143,0.03065803064574787
1.0013653787287808,0.03686446430802818,0.06611573840530906,0.03235087082016887,0.0785346554008843,0.029525207107898205
1.0014124607539112,0.040499198873267514,0.06540903358168305,0.04235422606047071,0.08025644885393868,0.039497582716930456
1.0014595427790416,0.04245011553894062,0.06788633464777442,0.05148956578485458,0.08508822799055975,0.048500963145360475
1.001506624804172,0.04142424671447975,0.06947170751373978,0.057489670337512934,0.08579287020217795,0.05449896806910665
1.0015537068293023,0.03772147907862947,0.07018783757505954,0.05838903434484734,0.08076278335470295,0.05556363218345474
1.0016007888544327,0.032149333674356434,0.06678920457622638,0.05286952532393206,0.07104368258463727,0.0503485422177882
1.001647870879563,0.025799799790141527,0.059080595479115094,0.040386054375886556,0.056494024754845294,0.038339222288874666
1.0016949529046935,0.020580986012262138,0.04813010528248752,0.02276083148008517,0.040522772404881405,0.021268083262873966
1.0017420349298238,0.01993155776046648,0.042291908549430844,0.008396000375120035,0.028345132444490044,0.007347041620196225
1.0017891169549542,0.027489951613850306,0.04030973359163919,0.00883020356959996,0.024662910619958525,0.007916322924605963
1.0018361989800846,0.042074300128446054,0.0402618943869965,0.022145335055818467,0.02842545761375376,0.021090252253961217
1.001883281005215,0.05845891480384451,0.046277314642923166,0.04104344236602053,0.03755768914716967,0.03966049293811912
1.0019303630303453,0.07582159493280267,0.05346822815489343,0.05832937685591873,0.047763378405960934,0.056599803069005264
1.0019774450554757,0.09824195100672209,0.05701406598415583,0.07041397317164165,0.05872495783152751,0.06833151649201374
1.002024527080606,0.1303669711588208,0.05362781098627411,0.07896421651578898,0.06558107279289604,0.07667597860016498
1.0020716091057364,0.17464242099810953,0.04893408463824546,0.08832693698111686,0.06989600022356345,0.08592501938461539
1.0021186911308668,0.22917237164395338,0.04967762821322009,0.11355266104308831,0.07575349377674499,0.11104774825854154
1.0021657731559972,0.2864808872447173,0.05483302032001385,0.14880372324738836,0.08378184870345162,0.1462150935365621
1.0022128551811276,0.335488571803669,0.060299723027077055,0.17945522269565434,0.09161095780364177,0.17683473218463916
1.002259937206258,0.3667004160945303,0.06361545512853414,0.20044309409803335,0.0970908272652323,0.19783644663151218
1.0023070192313883,0.37630521047742305,0.06431098012345934,0.20989430295355302,0.09940464113464309,0.20730687627497663
1.0023541012565187,0.3658732131217113,0.06277015595304093,0.20800353236518512,0.09871995636843865,0.2054151121309879
1.002401183281649,0.3393357840705059,0.060638857155603396,0.19716291122807472,0.09608481859978303,0.19455447416395816
1.0024482653067794,0.30043566038503033,0.05852435216444198,0.1783931936762516,0.08811059742924156,0.17583714486814667
1.0024953473319098,0.25183659939415354,0.05466372935722138,0.15384153094853617,0.07343165712588269,0.15152226847245534
1.0025424293570402,0.1956066522565673,0.0472996254062592,0.12081929242955049,0.054342990821204494,0.1189485098400985
1.0025895113821706,0.13475970805500284,0.03886619618277194,0.07564140824241966,0.030709727272625487,0.07450108660849337
1.002636593407301,0.07582916802294695,0.033123873410461004,0.025728531183742454,0.010611046260201614,0.02532113694822473
1.0026836754324313,0.03145358980808763,0.028568455083839716,-0.0040036080406334615,0.006319216204985555,-0.004234215613961951
1.0027307574575617,0.01779891286180085,0.0282741495387041,-0.006351274616742859,0.019353995978225277,-0.007062623235275675
1.002777839482692,0.04358985242398123,0.030810452297519768,0.006591376950054447,0.03846690086982062,0.00517088091445518
1.0028249215078224,0.1037077589167159,0.04270730745119667,0.04281328660270074,0.05753126071684567,0.04073344630045048
1.0028720035329528,0.18101238562213362,0.058651925878752606,0.0979436666785688,0.07401184514397699,0.0954430940405642
1.0029190855580832,0.25636899888384335,0.07369926858908557,0.15380629462607742,0.08335899894830526,0.15124772327519426
1.0029661675832136,0.31832235074100634,0.083651534643569,0.19704252226634572,0.08650843897930477,0.1946034236777036
1.003013249608344,0.36361141655314383,0.08964894013780975,0.228525784613192,0.08896156789088634,0.22619583146496677
1.0030603316334743,0.39341420767750745,0.09102442297994032,0.24979870354304085,0.08837822682354345,0.24758322464094829
1.0031074136586047,0.4102870696014962,0.0896142742818812,0.26258314989231946,0.086162759160735,0.2604586690216341
1.003154495683735,0.41662904201390033,0.08699666537522087,0.266777273312063,0.08233515459132909,0.2647203544550045
1.0032015777088654,0.41405085665469693,0.08302240776935171,0.26326150551395927,0.07681988277131829,0.2612649889600802
1.0032486597339958,0.4030953535584088,0.07749502233009055,0.251751202986526,0.06957568628697734,0.2498278138442254
1.0032957417591262,0.38301151602067063,0.07030491729776393,0.2324239377319079,0.06048790867427935,0.23061789386444007
1.0033428237842565,0.3514583105172215,0.06119330749705073,0.2047530276495091,0.04966224717762726,0.20313948674102436
1.003389905809387,0.3042863356687068,0.05010627632731247,0.16911475512504195,0.03755164213032282,0.1677901932557442
1.0034369878345173,0.2364892670841809,0.03739048499475211,0.12615890065588273,0.024467995141438322,0.12522932185383392
1.0034840698596477,0.14805992805189566,0.0243997398789697,0.07745804013496241,0.011286893278362868,0.07699753762010089
1.003531151884778,0.05937981673678241,0.015581784443260143,0.035632586371168055,0.0021317868377407983,0.03552987433710545
1.0035782339099084,0.016571701488668728,0.015271591838950618,0.012038086514572617,0.0005318056263834252,0.012010259550443552
1.0036253159350388,0.04141534161646615,0.02630870113243456,0.014399178728297872,0.011335589430499152,0.01397196785723344
1.0036723979601692,0.0978579156313711,0.04496242855691558,0.03595348541122598,0.0305598727290814,0.034819336036914304
1.0037194799852995,0.14599333246590304,0.06793298712621808,0.06503465797160808,0.050543048359685275,0.06321681045551461
1.00376656201043,0.17300879075255565,0.08561446295965411,0.0922030709843016,0.06831807376864765,0.08985843204842979
1.0038136440355603,0.18229222765708752,0.09816149016820573,0.11374971918924169,0.07981824043207808,0.11113262760872634
1.0038607260606907,0.18262972424027749,0.10410650519112603,0.12736778710133306,0.08732052242424983,0.12460389459548839
1.003907808085821,0.18292620727983336,0.10813681478411576,0.13485525602086357,0.0930052804219401,0.13198496669567636
1.0039548901109514,0.18798821740501145,0.11142812036200905,0.13913083302593265,0.09619052779604577,0.1362071404172403
1.0040019721360818,0.19658928748535154,0.11217618234277695,0.1397247738744464,0.09651651233572756,0.13679668186284577
1.0040490541612122,0.20361099360789395,0.10759380496623065,0.1356935801867525,0.09509887504342596,0.13277769233564832
1.0040961361863425,0.20356945018764083,0.09834904125952028,0.1287855413388881,0.09006372241125475,0.1259587917940891
1.004143218211473,0.19261735903368254,0.08813860306863609,0.11776025800915435,0.08428027436951642,0.11503678676437852
1.0041903002366033,0.1692114287165738,0.07526034051789524,0.09836742477706704,0.07415856858074751,0.09586372166959466
1.0042373822617336,0.13469585530973552,0.0606052667936117,0.07519967777083232,0.06005401219432215,0.07308139101999153
1.004284464286864,0.094068350002802,0.04546191801484164,0.051842634052145065,0.04516368056778505,0.05019788689390858
1.0043315463119944,0.0558705414627791,0.03213594484506262,0.03082107495389939,0.02967498978386012,0.029719296215615428
1.0043786283371248,0.029785725493520713,0.0235980755862982,0.019809015244991575,0.016742376024689167,0.019180559159287645
1.0044257103622551,0.022326134922130727,0.019842291449966624,0.01684685304795892,0.008182747792058957,0.016534010017332103
1.0044727923873855,0.03362727707623793,0.020143314385269836,0.01768087969631584,0.0050103314412459354,0.017484195828635887
1.004519874412516,0.057935866130881315,0.024488816900782043,0.0238553638180855,0.007037532526124834,0.023580146252926287
1.0045669564376463,0.08691312585069338,0.031943569071922306,0.038233159934289905,0.015027314524510156,0.037657891065244614
1.0046140384627766,0.11302745450084833,0.04041328287354603,0.05542672474865837,0.028548632645256818,0.05436211642405835
1.004661120487907,0.13143773576861661,0.049058053799351714,0.07126698378066398,0.04412102894365186,0.06966966217979476
1.0047082025130374,0.140315951549541,0.056378263795620026,0.0817840112464661,0.059852039260166905,0.07968282596426857
1.0047552845381678,0.14016084842095028,0.05856509969576906,0.0846685751900148,0.07266265172420093,0.08217275186947824
1.0048023665632981,0.13271042804166153,0.05713861473899965,0.08028160564993014,0.08130923674525022,0.07750890486509233
1.0048494485884285,0.1199532079956697,0.052798117971872637,0.06958311394397716,0.08680944178761608,0.06660407242951015
1.0048965306135589,0.10352759540252561,0.04916417267294275,0.05738407400153901,0.08823759958345785,0.05431443292432128
1.0049436126386893,0.08458770500586026,0.04429971068100266,0.04469505929439128,0.08461471472069447,0.04169932090978153
1.0049906946638196,0.06411017510052013,0.0399845878568504,0.03435472552873721,0.07706377980153882,0.031585191680727626
1.00503777668895,0.043500849939608656,0.03523234123693354,0.022887706523455283,0.06726406055304571,0.020437251010742355
1.0050848587140804,0.02497562650004661,0.03017158074410921,0.013888116903115118,0.05594876576122426,0.011832495165929578
1.0051319407392107,0.011013597455985432,0.02580859816576691,0.011624969459267675,0.04521812095549252,0.009958416105384177
1.0051790227643411,0.003334338693202587,0.024595853521671054,0.009001101837417943,0.032771027548299095,0.007789622872784311
1.0052261047894715,0.0027948227754708652,0.02179990744508317,0.005716764128480125,0.019493855737552135,0.004994283533277564
1.0052731868146019,0.010164673003053454,0.021012345164532098,0.005314070387151807,0.009326758129887792,0.004966405716187796
1.0053202688397322,0.026566180290056158,0.022419502277307674,0.008193549268036414,0.0022037092111615434,0.008106649397874706
1.0053673508648626,0.05291846997433676,0.024439612669792075,0.011498759854167706,-0.001919557639286302,0.011561787182705289
1.005414432889993,0.08828034555015178,0.02545227197098235,0.017065936640710815,-0.0026741084984595624,0.01715303541546988
1.0054615149151234,0.12763762777320273,0.027393846552226955,0.025647230237824777,0.0004976330192350834,0.025611415708740322
1.0055085969402537,0.16155770115500132,0.029958423340650187,0.038076850744054896,0.008393869886826022,0.03774309636703712
1.0055556789653841,0.18078890709766565,0.03376444494920115,0.05135766337998839,0.018118752661347187,0.050664851549866496
1.0056027609905145,0.18307418566708303,0.035380535707618836,0.06056084021799014,0.028375354999194437,0.059501842581013736
1.0056498430156449,0.1741533504439713,0.037465666250769775,0.06655908741414072,0.038331694738556625,0.0651558786370334
1.0056969250407752,0.16242605985016223,0.037600302535135,0.07063087442771013,0.04725951456645778,0.06892787341733646
1.0057440070659056,0.15418810481596457,0.03527369231102453,0.07107575192890922,0.053025911701798926,0.06918150227296058
1.005791089091036,0.1523552110015489,0.030895318412318257,0.0660360559428213,0.05533077033985359,0.06405951194261321
1.0058381711161664,0.15691036178882456,0.02819872769881732,0.06130313889977103,0.05622635868786275,0.05929081936168609
1.0058852531412967,0.16538784679386007,0.02658247335876457,0.06307528196508604,0.05537626191942982,0.06109357482899435
1.005932335166427,0.17322460684996496,0.024686290591289708,0.06323184659303546,0.05349621376332154,0.061313173590701375
1.0059794171915575,0.17475929729964576,0.021329985632292978,0.05880087400333982,0.04848007357164045,0.05704726865047583
1.0060264992166879,0.16548577922015562,0.017528844144646658,0.05204155960234529,0.04253879270423222,0.050487742056364554
1.0060735812418182,0.1445721481217929,0.014610572547038098,0.04234591607178599,0.03460865090576507,0.041067509459390424
1.0061206632669486,0.11538472372115638,0.01175889409010394,0.03266210113426135,0.02579090149009926,0.03169987322130712
1.006167745292079,0.08342022676517998,0.010194358538014517,0.0259645785337829,0.017838052229074666,0.025293120585164315
1.0062148273172093,0.053714935068683495,0.010948833433715334,0.01794830890199036,0.012238214459053678,0.017485861091798977
1.0062619093423397,0.029620632829972474,0.012777141766782612,0.006428025048282717,0.008718992508003775,0.0061020566098618275
1.00630899136747,0.012907514843990737,0.015258561836067648,-0.004503164505502606,0.006780645389312454,-0.004750486670296995
1.0063560733926005,0.004292560353454192,0.019926628372869067,-0.010519166817943732,0.007840441842719814,-0.010801690954812718
1.0064031554177308,0.0038095921685766332,0.026322015828892136,-0.007972360122875525,0.009783280393299693,-0.008328414174182227
1.0064502374428612,0.010924293923755681,0.0360248021440836,0.0013341291502741227,0.015642829590897286,0.0007558992170797608
1.0064973194679916,0.02453035587728399,0.0461186997049351,0.011333716656649779,0.023505419716526935,0.010461397169328267
1.006544401493122,0.042966387475684646,0.05481665380874372,0.020787738978896356,0.03105091933579272,0.01963758200411817
1.0065914835182523,0.06411092062196938,0.061348594314098864,0.03329944681240632,0.03813904954695076,0.031894397041196836
1.0066385655433827,0.08556714248621351,0.06848616051200407,0.049462130528264495,0.04482775830589535,0.04782763557544202
1.006685647568513,0.10493697207975199,0.07221841362263809,0.06485229624100503,0.05066424409407699,0.06303020911823226
1.0067327295936435,0.12014720761669652,0.07345032367064275,0.07640706666955516,0.054022986403696495,0.07448631987232857
1.0067798116187738,0.12974860817624662,0.07016437539990478,0.08294186479002422,0.054218006278361715,0.08102290781312829
1.0068268936439042,0.1331160769266914,0.06593849143229512,0.08436945777741765,0.05202572914918039,0.08252295707477389
1.0068739756690346,0.13051634907150206,0.05963280086535556,0.08386978816652868,0.048158601995517115,0.08214836753394322
1.006921057694165,0.12301693370584733,0.051639982997082105,0.08185258015702256,0.041586093167306167,0.08034628354094091
1.0069681397192953,0.11219272060745543,0.04199766617838535,0.07585112215539112,0.0333811085443486,0.07461933942256256
1.0070152217444257,0.09964098937742749,0.0320063163515118,0.06985230351433948,0.025025508974329355,0.06890931483784891
1.007062303769556,0.08648287672211809,0.023814568196837436,0.06302251331950957,0.018295922728037834,0.06231875024021065
1.0071093857946865,0.07315337862299943,0.017650795340505867,0.053521194673379444,0.013024908266957591,0.05301057146004419
1.0071564678198168,0.05967551136841471,0.011523944311609172,0.042771215350936226,0.007477793374383765,0.042468033487041375
1.0072035498449472,0.046352747241279996,0.006598130207015535,0.029687677967592516,0.00417317651582179,0.0295138809351309
1.0072506318700776,0.03458526276589038,0.003795256149730525,0.01916866027493343,0.003613875235734546,0.019022402049805036
1.007297713895208,0.02727830692374265,0.003884641517185963,0.01473006896934623,0.0036958865123579076,0.014583752201224912
1.0073447959203383,0.0280866607277734,0.006202397865708083,0.01711698325886342,0.005618631975844993,0.016898280998718655
1.0073918779454687,0.03925806445151868,0.012523204977515672,0.028584290137595406,0.011401913520745275,0.028146289790902477
1.007438959970599,0.059562255279517966,0.021167796952681305,0.043832242766228824,0.019548483818276993,0.04309110824966528
1.0074860419957294,0.08449757331606145,0.029249068071889827,0.058037587268334905,0.029280727871631242,0.0569470332343157
1.0075331240208598,0.10858230355013457,0.03591187022925751,0.06858033205585247,0.03739546551917906,0.0672097775593755
1.0075802060459902,0.12742598805780986,0.04064920929470834,0.07621925524513734,0.042891879214752855,0.07466617986542325
1.0076272880711206,0.13840784538629322,0.04335479930354522,0.07904744927672683,0.0460285503399048,0.0773919694524087
1.007674370096251,0.14057521646913557,0.04341915893892676,0.0769603579802706,0.047019137792982044,0.0752704456734065
1.0077214521213813,0.1345761316442056,0.041395848541832245,0.07084930100861353,0.04544725734513505,0.06920716456008794
1.0077685341465117,0.12269802495893224,0.038059506652800654,0.062425783036096825,0.04042558106334537,0.060949336347646856
