freq,gls,usurper,pdc_unbiased,shape_periodogram,shift_periodogram
1.0,0.02176245538732735,0.015585603430641304,-0.007335655112181927,-0.0008046650465558738,-0.007325320409088751
1.0000470820251304,0.05134779247241603,0.022371684832433396,0.016081221596065367,0.006833311346461633,0.015997260427371814
1.0000941640502607,0.09689124580742478,0.025464444848160718,0.05094334186944231,0.01718130661887877,0.050738725764537425
1.0001412460753911,0.14848755125694818,0.03021922505666709,0.08456655871201842,0.02347151093969356,0.08430074941874689
1.0001883281005215,0.19664060203551523,0.033363233814404446,0.10917973127593883,0.027172301423993777,0.10888660202859472
1.0002354101256519,0.23592916525893703,0.03489286673603272,0.12678225514793529,0.028960580125660447,0.12648114788285852
1.0002824921507822,0.26363730657080775,0.03719029552177781,0.13936052532630389,0.029935128782970118,0.1390576791109407
1.0003295741759126,0.2780607972143743,0.03826515333289945,0.14663287491158739,0.030963971193054145,0.14632606980989313
1.000376656201043,0.27778293516045677,0.038543463653995524,0.14742341655727248,0.03255830145250421,0.14710554759360422
1.0004237382261734,0.2619162710265795,0.03904944550409215,0.139633635428265,0.03412189808912485,0.1392997538467597
1.0004708202513037,0.23107843684954268,0.03870642663121855,0.12167319492364326,0.03487739172572651,0.12132187005102714
1.0005179022764341,0.1884924826566669,0.03727684302595332,0.09811663264576473,0.03514343078179654,0.09774760447442317
1.0005649843015645,0.1401213853463462,0.034957345895711284,0.07552593926328457,0.03448681069567307,0.07514861578683138
1.0006120663266949,0.09311329616242185,0.03255375780157354,0.056936636782797936,0.03232524664167789,0.05657033420676523
1.0006591483518252,0.05338098213176131,0.030838636801960143,0.04656239048066332,0.028737675213724927,0.04622933195030237
1.0007062303769556,0.024158292773911582,0.029387052502808774,0.0379052596807291,0.023838828618386747,0.03762358464843458
1.000753312402086,0.006389706849983347,0.024444640124079996,0.024925530867037873,0.01725197774125197,0.02471756335001116
1.0008003944272164,4.4957735270936574e-05,0.021889807418662612,0.013623927240606612,0.008557860686391895,0.013519274897269519
1.0008474764523467,0.004476680458159687,0.021204838881068902,0.005279248516488982,0.005751008104147909,0.005208944709556168
1.000894558477477,0.016631009383087918,0.021620100534061458,0.00604487589630294,0.005378645024476299,0.005979048816025917
1.0009416405026075,0.030279800796216314,0.02668619423807721,0.01614856324889533,0.007450526303080743,0.016057159643097195
1.0009887225277379,0.04019506929021177,0.034092636996852346,0.031662352407458065,0.012795803701613479,0.031507067438816774
1.0010358045528682,0.045271217739530065,0.04352342702385384,0.049643587368788454,0.019176562389320542,0.049416423070660645
1.0010828865779986,0.04665854735345898,0.045240164142497104,0.06394396252727896,0.025301870311247344,0.06365344170323504
1.001129968603129,0.04557434040645729,0.04498542044288273,0.06951556918541625,0.03078624651788196,0.06917104050743898
1.0011770506282593,0.04281463251624272,0.042697549094901324,0.06676401531502141,0.03516991153378332,0.06637472293306579
1.0012241326533897,0.03911406922799136,0.04060920176602147,0.05756222886158259,0.0382581647137965,0.05713628451306296
1.00127121467852,0.035734840091298535,0.037597356381275995,0.04469056838221148,0.0386942980418123,0.04425074415084798
1.0013182967036505,0.034632288517627896,0.035297060981835264,0.03354469161607427,0.03858280680390166,0.03309797513081676
1.0013653787287808,0.03686446430802818,0.037392948612346266,0.03235087082016887,0.03893363647029678,0.03189946774462546
1.0014124607539112,0.040499198873267514,0.040714167240462056,0.04235422606047071,0.03855496361927614,0.041914157218106596
1.0014595427790416,0.04245011553894062,0.0437500121828455,0.05148956578485458,0.03690556059076213,0.05107301585586178
1.001506624804172,0.04142424671447975,0.04599112976790082,0.057489670337512934,0.03416185526081729,0.05710487195058412
1.0015537068293023,0.03772147907862947,0.04505841876693277,0.05838903434484734,0.0301954392835454,0.05804542688020486
1.0016007888544327,0.032149333674356434,0.04213584375324503,0.05286952532393206,0.024677580990594517,0.05258246235984082
1.001647870879563,0.025799799790141527,0.03701085211098367,0.040386054375886556,0.01912073748879611,0.04015822380078332
1.0016949529046935,0.020580986012262138,0.031550349164326356,0.02276083148008517,0.013070303703670436,0.02260210578091284
1.0017420349298238,0.01993155776046648,0.025110539701192015,0.008396000375120035,0.007108715763135664,0.008309069535207849
1.0017891169549542,0.027489951613850306,0.0216005620379821,0.00883020356959996,0.005907411231726545,0.00875780510361634
1.0018361989800846,0.042074300128446054,0.01807912481157112,0.022145335055818467,0.008296668750531784,0.022043539798450293
1.001883281005215,0.05845891480384451,0.016565285943525056,0.04104344236602053,0.012324894237192555,0.0408938656147178
1.0019303630303453,0.07582159493280267,0.0218137719944913,0.05832937685591873,0.016383912100986085,0.05813443408573819
1.0019774450554757,0.09824195100672209,0.029695615701985863,0.07041397317164165,0.021971489803067054,0.07016017605643618
1.002024527080606,0.1303669711588208,0.03246342203635411,0.07896421651578898,0.028776636643848708,0.07864375538013911
1.0020716091057364,0.17464242099810953,0.02989943919866157,0.08832693698111686,0.03400300753666795,0.08796184058675655
1.0021186911308668,0.22917237164395338,0.028968418664971022,0.11355266104308831,0.03624018091552408,0.11318510824607284
1.0021657731559972,0.2864808872447173,0.02930998094200339,0.14880372324738836,0.03679996443822488,0.14845810506493826
1.0022128551811276,0.335488571803669,0.03028336901869144,0.17945522269565434,0.037023227860143275,0.17913212039473442
1.002259937206258,0.3667004160945303,0.030286988218739694,0.20044309409803335,0.0358979273349406,0.20014173594221846
1.0023070192313883,0.37630521047742305,0.029157462279712203,0.20989430295355302,0.033634724675508494,0.20961012887871827
1.0023541012565187,0.3658732131217113,0.027473194246265542,0.20800353236518512,0.030535487792721434,0.20773361710699423
1.002401183281649,0.3393357840705059,0.02384913604751939,0.19716291122807472,0.027223965256383237,0.19690675438278657
1.0024482653067794,0.30043566038503033,0.019491310335474767,0.1783931936762516,0.02296864897531488,0.17815954952759377
1.0024953473319098,0.25183659939415354,0.014316011428279117,0.15384153094853617,0.018859461312646358,0.1536356132614518
1.0025424293570402,0.1956066522565673,0.009615874800754107,0.12081929242955049,0.016689037685282054,0.12062831160408345
1.0025895113821706,0.13475970805500284,0.00408834914825507,0.07564140824241966,0.012299892115291512,0.07549307992176008
1.002636593407301,0.07582916802294695,0.00016524693683805808,0.025728531183742454,0.007665683880364346,0.025634164041910785
1.0026836754324313,0.03145358980808763,0.0036651682819769174,-0.0040036080406334615,0.005055928055978131,-0.004064903071955446
1.0027307574575617,0.01779891286180085,0.010814957237087457,-0.006351274616742859,0.010474541708183648,-0.006478648632419186
1.002777839482692,0.04358985242398123,0.01664110094382856,0.006591376950054447,0.01743325854856276,0.006379672478085598
1.0028249215078224,0.1037077589167159,0.01954429394350133,0.04281328660270074,0.021908633238523337,0.042554370771213754
1.0028720035329528,0.18101238562213362,0.01855349049458477,0.0979436666785688,0.02911580340630118,0.09762814462890854
1.0029190855580832,0.25636899888384335,0.022512292457946757,0.15380629462607742,0.02891971441539744,0.1535182430147677
1.0029661675832136,0.31832235074100634,0.03316816832188173,0.19704252226634572,0.0247401053433255,0.19680259822057775
1.003013249608344,0.36361141655314383,0.03604121342303987,0.228525784613192,0.027558875738212273,0.22828237307302
1.0030603316334743,0.39341420767750745,0.03924902104973258,0.24979870354304085,0.031037392803885292,0.2495510597684231
1.0031074136586047,0.4102870696014962,0.041261969187644264,0.26258314989231946,0.032868393258902694,0.26233755391575425
1.003154495683735,0.41662904201390033,0.042275357614878856,0.266777273312063,0.034070558881846964,0.26653137284701006
1.0032015777088654,0.41405085665469693,0.04241026484173552,0.26326150551395927,0.034588256871084314,0.263011773933044
1.0032486597339958,0.4030953535584088,0.04189441702441368,0.251751202986526,0.03444592832940518,0.2514934276450696
1.0032957417591262,0.38301151602067063,0.04079413594369895,0.2324239377319079,0.03384897267296178,0.23215437994365826
1.0033428237842565,0.3514583105172215,0.03889473407048087,0.2047530276495091,0.03241067354931296,0.2044714232192386
1.003389905809387,0.3042863356687068,0.03578330112395418,0.16911475512504195,0.030637475529283108,0.16882250526565507
1.0034369878345173,0.2364892670841809,0.03182746441333958,0.12615890065588273,0.027795641693414502,0.12586725713458016
1.0034840698596477,0.14805992805189566,0.02726655559489787,0.07745804013496241,0.025065444200184306,0.07717407098843164
1.003531151884778,0.05937981673678241,0.02363733929621463,0.035632586371168055,0.023709077428149924,0.03535183104256966
1.0035782339099084,0.016571701488668728,0.02269854878992432,0.012038086514572617,0.023803232946151807,0.011750850379125224
1.0036253159350388,0.04141534161646615,0.02502782221930281,0.014399178728297872,0.02585492318539333,0.01408820837698502
1.0036723979601692,0.0978579156313711,0.025499781508320052,0.03595348541122598,0.02856440363813806,0.035618319897092875
1.0037194799852995,0.14599333246590304,0.026007425308544222,0.06503465797160808,0.031135814949065956,0.06468449065619108
1.00376656201043,0.17300879075255565,0.028543996067859703,0.0922030709843016,0.032513445075342845,0.09185370987736147
1.0038136440355603,0.18229222765708752,0.02997426358599953,0.11374971918924169,0.03162152209685805,0.11341991253215307
1.0038607260606907,0.18262972424027749,0.033223067466808816,0.12736778710133306,0.03295934482350695,0.12703491807655856
1.003907808085821,0.18292620727983336,0.03384535225717652,0.13485525602086357,0.03448118291007886,0.13451564445774808
1.0039548901109514,0.18798821740501145,0.035666857155887265,0.13913083302593265,0.03307033562130635,0.13880424823766563
1.0040019721360818,0.19658928748535154,0.03663753547733157,0.1397247738744464,0.03226046366483185,0.13940450970686172
1.0040490541612122,0.20361099360789395,0.038249203671432,0.1356935801867525,0.03190954197392446,0.1353736290898076
1.0040961361863425,0.20356945018764083,0.0393694952394938,0.1287855413388881,0.031375228447494186,0.12846589377821982
1.004143218211473,0.19261735903368254,0.0376997139652065,0.11776025800915435,0.031009206527655764,0.11743770444178715
1.0041903002366033,0.1692114287165738,0.034342855794745754,0.09836742477706704,0.03047008288406715,0.09803975765730774
1.0042373822617336,0.13469585530973552,0.029885172632433996,0.07519967777083232,0.02971518212891124,0.07486836755551782
1.004284464286864,0.094068350002802,0.0258942655439021,0.051842634052145065,0.02770076136709033,0.051522696074765006
1.0043315463119944,0.0558705414627791,0.02250066647289076,0.03082107495389939,0.024839939453166357,0.03052627686863351
1.0043786283371248,0.029785725493520713,0.019278411651744376,0.019809015244991575,0.02152380406017756,0.01955023829713465
1.0044257103622551,0.022326134922130727,0.017286035597956093,0.01684685304795892,0.018205859661542458,0.016626850187786528
1.0044727923873855,0.03362727707623793,0.01606226096215739,0.01768087969631584,0.01653842446848772,0.017480746598449295
1.004519874412516,0.057935866130881315,0.015188361670064963,0.0238553638180855,0.016744140724617853,0.023653273111749775
1.0045669564376463,0.08691312585069338,0.015191559453810904,0.038233159934289905,0.01874106768450223,0.03800937672095096
1.0046140384627766,0.11302745450084833,0.015879278087115624,0.05542672474865837,0.024095047635497416,0.055146649429401486
1.004661120487907,0.13143773576861661,0.014932864369312206,0.07126698378066398,0.029509106587209434,0.07093599909848175
1.0047082025130374,0.140315951549541,0.014375090275051034,0.0817840112464661,0.03297107232780552,0.0814246428699677
1.0047552845381678,0.14016084842095028,0.013545745479685454,0.0846685751900148,0.0337770083253274,0.0843033648816952
1.0048023665632981,0.13271042804166153,0.012462108139182833,0.08028160564993014,0.032000793757212605,0.07993059694839713
1.0048494485884285,0.1199532079956697,0.011799915578982245,0.06958311394397716,0.030138053853509848,0.06924509206619281
1.0048965306135589,0.10352759540252561,0.007473844754835267,0.05738407400153901,0.02730020526104743,0.05707036887025411
1.0049436126386893,0.08458770500586026,0.001880426588025527,0.04469505929439128,0.024168904846590344,0.04441139153246695
1.0049906946638196,0.06411017510052013,-0.0032339686615660344,0.03435472552873721,0.020991928998132625,0.03410462314798399
1.00503777668895,0.043500849939608656,-0.0032386500992667073,0.022887706523455283,0.014891889191156159,0.022707404533996625
1.0050848587140804,0.02497562650004661,-0.0038959869504408963,0.013888116903115118,0.00995837871287842,0.013766591286120046
1.0051319407392107,0.011013597455985432,-0.00396671258227148,0.011624969459267675,0.005643567130435169,0.01155561224420793
1.0051790227643411,0.003334338693202587,-0.005731574731242719,0.009001101837417943,0.002160055174021048,0.00897416681737687
1.0052261047894715,0.0027948227754708652,-0.006063306605800505,0.005716764128480125,0.0010348432711636863,0.005703748102456046
1.0052731868146019,0.010164673003053454,-0.005572754312935608,0.005314070387151807,-0.0011526321120034551,0.005327709594612887
1.0053202688397322,0.026566180290056158,-0.005472345521758551,0.008193549268036414,-0.0011311181471574292,0.008206714234085373
1.0053673508648626,0.05291846997433676,-0.006571134959114016,0.011498759854167706,-0.0010890178191742853,0.011511167917429923
1.005414432889993,0.08828034555015178,-0.006386503226839577,0.017065936640710815,-0.0017248431850022147,0.01708568388119076
1.0054615149151234,0.12763762777320273,-0.005099327922921729,0.025647230237824777,-0.0013291010868431313,0.0256615160867872
1.0055085969402537,0.16155770115500132,-0.003173932158553836,0.038076850744054896,0.00213867904979157,0.03804814526196019
1.0055556789653841,0.18078890709766565,-0.0017495573781881315,0.05135766337998839,0.008694039101244925,0.051250393502367375
1.0056027609905145,0.18307418566708303,-0.0009369439507524713,0.06056084021799014,0.017241320618398635,0.060356595630988774
1.0056498430156449,0.1741533504439713,-0.0012947254544833377,0.06655908741414072,0.022757878834540786,0.06629609336230637
1.0056969250407752,0.16242605985016223,-0.0008167189886064783,0.07063087442771013,0.025146375019182744,0.07034399587430686
1.0057440070659056,0.15418810481596457,0.00019916291089995054,0.07107575192890922,0.024317836490967807,0.07079757645017075
1.005791089091036,0.1523552110015489,0.0013393333287153013,0.0660360559428213,0.022149064707643627,0.06577940634581808
1.0058381711161664,0.15691036178882456,0.0021834013536712665,0.06130313889977103,0.01936860701545188,0.06107559505572292
1.0058852531412967,0.16538784679386007,0.002925245863666138,0.06307528196508604,0.01688370135808997,0.06287526584921613
1.005932335166427,0.17322460684996496,-0.00012134976309899318,0.06323184659303546,0.013960798263282427,0.06306438583161422
1.0059794171915575,0.17475929729964576,-0.00366783667741642,0.05880087400333982,0.011235172365069285,0.05866417434249009
1.0060264992166879,0.16548577922015562,-0.005660511778660481,0.05204155960234529,0.008359165753146339,0.05193818817000432
1.0060735812418182,0.1445721481217929,-0.006878195196288829,0.04234591607178599,0.0038530677456152665,0.04229632408892499
1.0061206632669486,0.11538472372115638,-0.007029151849914502,0.03266210113426135,-0.0009764036182030463,0.03267156542911254
1.006167745292079,0.08342022676517998,-0.008943455545946194,0.0259645785337829,-0.004751281044728159,0.026020724205315093
1.0062148273172093,0.053714935068683495,-0.010496692032846432,0.01794830890199036,-0.008469564668194375,0.018050669041483957
1.0062619093423397,0.029620632829972474,-0.010235847735137252,0.006428025048282717,-0.011904514765200174,0.0065729081580396115
1.00630899136747,0.012907514843990737,-0.008922282210303908,-0.004503164505502606,-0.012233518482802606,-0.00435425372566158
1.0063560733926005,0.004292560353454192,-0.0065140802649186385,-0.010519166817943732,-0.010162445004052766,-0.01039524652968859
1.0064031554177308,0.0038095921685766332,-0.003523971235478684,-0.007972360122875525,-0.004661429507729742,-0.007915121602803749
1.0064502374428612,0.010924293923755681,-0.0005099563004642568,0.0013341291502741227,0.0030897909645998768,0.0012964274107911083
1.0064973194679916,0.02453035587728399,0.003390710436418412,0.011333716656649779,0.012012022611608013,0.011187500654131634
1.006544401493122,0.042966387475684646,0.0064794715569387795,0.020787738978896356,0.02090613484246739,0.020536377816630518
1.0065914835182523,0.06411092062196938,0.009185571340109604,0.03329944681240632,0.026665243752115382,0.03298466144832435
1.0066385655433827,0.08556714248621351,0.011184285212985888,0.049462130528264495,0.028468979258587292,0.04913307705633539
1.006685647568513,0.10493697207975199,0.012933680823686206,0.06485229624100503,0.026159469126542594,0.06455309262047486
1.0067327295936435,0.12014720761669652,0.01323144077201094,0.07640706666955516,0.019982488095445113,0.07617545234880249
1.0067798116187738,0.12974860817624662,0.01385038444104375,0.08294186479002422,0.01299894184133357,0.0827861115729906
1.0068268936439042,0.1331160769266914,0.014630253872931768,0.08436945777741765,0.006286556710309556,0.08428919997259608
1.0068739756690346,0.13051634907150206,0.013405637769914021,0.08386978816652868,0.000927453870431301,0.08385248421550508
1.006921057694165,0.12301693370584733,0.00952835532062164,0.08185258015702256,-0.0017480137146921087,0.08186774464319399
1.0069681397192953,0.11219272060745543,0.0055200011161953425,0.07585112215539112,-0.0031288706676683904,0.07588366109786357
1.0070152217444257,0.09964098937742749,0.0020953350700849867,0.06985230351433948,-0.0036136420519163126,0.06989127188938649
1.007062303769556,0.08648287672211809,-0.0006997451947637205,0.06302251331950957,-0.005100127799519418,0.0630803895194339
1.0071093857946865,0.07315337862299943,-0.001856350324074053,0.053521194673379444,-0.006812159950908338,0.05360104282697116
1.0071564678198168,0.05967551136841471,-0.0017581251446193316,0.042771215350936226,-0.007978576232499337,0.04286626339711287
1.0072035498449472,0.046352747241279996,-0.0030917269754293817,0.029687677967592516,-0.008621328414134608,0.029791387108148833
1.0072506318700776,0.03458526276589038,-0.004476092419289048,0.01916866027493343,-0.008399168766699359,0.019270098946424834
1.007297713895208,0.02727830692374265,-0.0061423230882893,0.01473006896934623,-0.008282272276622416,0.014830265981673916
1.0073447959203383,0.0280866607277734,-0.006627420842000028,0.01711698325886342,-0.007890400162276214,0.017212251377184733
1.0073918779454687,0.03925806445151868,-0.004915822490460469,0.028584290137595406,-0.006722175755947496,0.0286645437312949
1.007438959970599,0.059562255279517966,-0.001938098381564461,0.043832242766228824,-0.004684717854812443,0.04388634078090255
1.0074860419957294,0.08449757331606145,0.0011138600637787303,0.058037587268334905,-0.0030582949337013515,0.05807061063341701
1.0075331240208598,0.10858230355013457,0.002956133290125532,0.06858033205585247,-0.0013174635287678384,0.06859125785468909
1.0075802060459902,0.12742598805780986,0.004046479960598171,0.07621925524513734,0.0009780413199648216,0.07620187652040915
1.0076272880711206,0.13840784538629322,0.0060103622398015345,0.07904744927672683,0.0024561561712270856,0.07901224976334148
1.007674370096251,0.14057521646913557,0.0064873833164575965,0.0769603579802706,0.004005336818436285,0.07690698245418016
