freq,gls,usurper,pdc_unbiased,shape_periodogram,shift_periodogram
1.0,0.02176245538732735,0.007749453396608894,-0.007335655112181927,-0.0048323120764098134,-0.007280964389121702
1.0000470820251304,0.05134779247241603,0.015005348109584447,0.016081221596065367,-0.003340901546358011,0.01611783403395656
1.0000941640502607,0.09689124580742478,0.02260935569733975,0.05094334186944231,0.0036881658538272114,0.050899182199426914
1.0001412460753911,0.14848755125694818,0.03126076462000983,0.08456655871201842,0.00949341176929447,0.0844594655682984
1.0001883281005215,0.19664060203551523,0.03789789331779629,0.10917973127593883,0.0169910191095609,0.10900087845815289
1.0002354101256519,0.23592916525893703,0.041306900330164174,0.12678225514793529,0.02252371743848651,0.12655886077581863
1.0002824921507822,0.26363730657080775,0.04003079546171607,0.13936052532630389,0.025451264988973304,0.13911828188452777
1.0003295741759126,0.2780607972143743,0.03950892658684437,0.14663287491158739,0.02752932345530943,0.1463785672313441
1.000376656201043,0.27778293516045677,0.03956100836085235,0.14742341655727248,0.02870455758939025,0.1471614223151444
1.0004237382261734,0.2619162710265795,0.03705271384068628,0.139633635428265,0.029833782115764238,0.13936020985719041
1.0004708202513037,0.23107843684954268,0.03274285852282454,0.12167319492364326,0.029857347226876243,0.12139074309424182
1.0005179022764341,0.1884924826566669,0.027354748572506794,0.09811663264576473,0.028816026024362038,0.09783148075743682
1.0005649843015645,0.1401213853463462,0.022853253100578005,0.07552593926328457,0.027276139455277987,0.07524504912865668
1.0006120663266949,0.09311329616242185,0.019423267138396608,0.056936636782797936,0.025243591549852645,0.056668678051066596
1.0006591483518252,0.05338098213176131,0.01853967806735996,0.04656239048066332,0.020456575815729624,0.04633993685889298
1.0007062303769556,0.024158292773911582,0.017668937624451094,0.0379052596807291,0.013786581525944653,0.037751818309422
1.000753312402086,0.006389706849983347,0.016920302898841017,0.024925530867037873,0.005451311893013256,0.024863108910807303
1.0008003944272164,4.4957735270936574e-05,0.018540715579822956,0.013623927240606612,-0.0032640418294926274,0.013659818068850568
1.0008474764523467,0.004476680458159687,0.01906211270723464,0.005279248516488982,-0.006381591264210618,0.005350751982821682
1.000894558477477,0.016631009383087918,0.020808165802354252,0.00604487589630294,-0.005545666205682488,0.006106919483934679
1.0009416405026075,0.030279800796216314,0.02771938033292446,0.01614856324889533,-0.0013492558152404474,0.016162718164759365
1.0009887225277379,0.04019506929021177,0.0351275080667867,0.031662352407458065,0.008316098589844188,0.031568109264139055
1.0010358045528682,0.045271217739530065,0.04153208204420197,0.049643587368788454,0.02131540526048737,0.049412947135297265
1.0010828865779986,0.04665854735345898,0.042936207279329015,0.06394396252727896,0.033248377698318975,0.0636035166117096
1.001129968603129,0.04557434040645729,0.044196238529302316,0.06951556918541625,0.04317465510381886,0.06909351092755733
1.0011770506282593,0.04281463251624272,0.04264187946951563,0.06676401531502141,0.04998525041000699,0.06628418217093496
1.0012241326533897,0.03911406922799136,0.0366854438059645,0.05756222886158259,0.053585441541661366,0.05704093371459146
1.00127121467852,0.035734840091298535,0.028693970713712404,0.04469056838221148,0.05452840585587041,0.044142190899748156
1.0013182967036505,0.034632288517627896,0.02301922613524022,0.03354469161607427,0.05495612002637891,0.03297565396115024
1.0013653787287808,0.03686446430802818,0.022985842150773643,0.03235087082016887,0.05463898604852512,0.03178304622110798
1.0014124607539112,0.040499198873267514,0.026090006246162565,0.04235422606047071,0.05396559744251609,0.04180738895115514
1.0014595427790416,0.04245011553894062,0.02955713908348547,0.05148956578485458,0.0510723025573196,0.050980868616529035
1.001506624804172,0.04142424671447975,0.03016055040359095,0.057489670337512934,0.04476723083371714,0.05704232588362026
1.0015537068293023,0.03772147907862947,0.028422791562372755,0.05838903434484734,0.03656347472410775,0.05801512089594733
1.0016007888544327,0.032149333674356434,0.026448088720033666,0.05286952532393206,0.025947322282238804,0.052593412531102224
1.001647870879563,0.025799799790141527,0.02500833240596284,0.040386054375886556,0.01357465304919185,0.04023499682915731
1.0016949529046935,0.020580986012262138,0.020320978285845854,0.02276083148008517,0.0021781358972712862,0.022734984308424522
1.0017420349298238,0.01993155776046648,0.017697258155128612,0.008396000375120035,-0.007236152684191672,0.008477019833377867
1.0017891169549542,0.027489951613850306,0.01808100272077718,0.00883020356959996,-0.00959785890991094,0.008937927552236167
1.0018361989800846,0.042074300128446054,0.017902513145631103,0.022145335055818467,-0.006087924531158906,0.022212727830903216
1.001883281005215,0.05845891480384451,0.02056463344143104,0.04104344236602053,0.0007649155369757397,0.04103228964997908
1.0019303630303453,0.07582159493280267,0.02537852854293161,0.05832937685591873,0.009238452406165852,0.05822486627075725
1.0019774450554757,0.09824195100672209,0.029772724616189978,0.07041397317164165,0.021477124373263955,0.07018603362224339
1.002024527080606,0.1303669711588208,0.02832560968161284,0.07896421651578898,0.03164930582772823,0.07864597341960863
1.0020716091057364,0.17464242099810953,0.023885698139557206,0.08832693698111686,0.03947045668313878,0.08795090315980279
1.0021186911308668,0.22917237164395338,0.025107876141893366,0.11355266104308831,0.04477924180528431,0.11316397039876648
1.0021657731559972,0.2864808872447173,0.029339259169997394,0.14880372324738836,0.04666619985121746,0.14844542012092038
1.0022128551811276,0.335488571803669,0.034011227652718495,0.17945522269565434,0.047673111915015644,0.17913113980054823
1.002259937206258,0.3667004160945303,0.037698262331297624,0.20044309409803335,0.04787788203744062,0.20014514664003027
1.0023070192313883,0.37630521047742305,0.03993914445092897,0.20989430295355302,0.046821310743673926,0.20960944867683912
1.0023541012565187,0.3658732131217113,0.04052485925504043,0.20800353236518512,0.04451051787335896,0.20771968636253485
1.002401183281649,0.3393357840705059,0.04081843495350705,0.19716291122807472,0.04044453846933986,0.19687737144703013
1.0024482653067794,0.30043566038503033,0.0387322683197806,0.1783931936762516,0.034186689723101314,0.17811698647975002
1.0024953473319098,0.25183659939415354,0.031682836328339216,0.15384153094853617,0.024646149430089498,0.1536103306222445
1.0025424293570402,0.1956066522565673,0.02223351366891155,0.12081929242955049,0.013862776114615906,0.1206707707533938
1.0025895113821706,0.13475970805500284,0.012902931056865961,0.07564140824241966,0.002830150986802553,0.07560541876330504
1.002636593407301,0.07582916802294695,0.004636358318112198,0.025728531183742454,-0.004897549738762149,0.025782211090651444
1.0026836754324313,0.03145358980808763,0.0053328618454055975,-0.0040036080406334615,-0.006884770903094789,-0.003926063040179042
1.0027307574575617,0.01779891286180085,0.01174572670680411,-0.006351274616742859,0.0022022210795162324,-0.006375640997185244
1.002777839482692,0.04358985242398123,0.009099038497676347,0.006591376950054447,0.016282238692473524,0.006408804312285645
1.0028249215078224,0.1037077589167159,0.009654961118170779,0.04281328660270074,0.026751674940853128,0.04252590236381734
1.0028720035329528,0.18101238562213362,0.016085592538479045,0.0979436666785688,0.03539867029098033,0.09760592496746402
1.0029190855580832,0.25636899888384335,0.028316364697683557,0.15380629462607742,0.03426253421055723,0.1535132472842686
1.0029661675832136,0.31832235074100634,0.04077304198590733,0.19704252226634572,0.029021509246814715,0.19680281505673067
1.003013249608344,0.36361141655314383,0.04605514772838632,0.228525784613192,0.028301558181903913,0.22830522912753418
1.0030603316334743,0.39341420767750745,0.04884138351336803,0.24979870354304085,0.026659753597620135,0.24959500742154483
1.0031074136586047,0.4102870696014962,0.04947384662412018,0.26258314989231946,0.02432718829429395,0.26239433012610447
1.003154495683735,0.41662904201390033,0.049101613927592144,0.266777273312063,0.02215060255763179,0.2665994802535952
1.0032015777088654,0.41405085665469693,0.04744036603419581,0.26326150551395927,0.019439114576777605,0.2630960970257368
1.0032486597339958,0.4030953535584088,0.04457456592829233,0.251751202986526,0.015723432371179975,0.25160522599810337
1.0032957417591262,0.38301151602067063,0.040566237786089636,0.2324239377319079,0.011450952406821395,0.23230602570333045
1.0033428237842565,0.3514583105172215,0.03531113133634457,0.2047530276495091,0.006468795077707308,0.20467654874003904
1.003389905809387,0.3042863356687068,0.02838201847529605,0.16911475512504195,0.0013089221795644494,0.16909043147343625
1.0034369878345173,0.2364892670841809,0.020840419417203198,0.12615890065588273,-0.003920346516471218,0.12619502965534155
1.0034840698596477,0.14805992805189566,0.013873816384617951,0.07745804013496241,-0.008421785179069509,0.07754972169818991
1.003531151884778,0.05937981673678241,0.010149639938222833,0.035632586371168055,-0.010831162841499617,0.03575394582868872
1.0035782339099084,0.016571701488668728,0.011304928471704832,0.012038086514572617,-0.010223175286425325,0.012152847551858312
1.0036253159350388,0.04141534161646615,0.017744463722479,0.014399178728297872,-0.005337874473930114,0.014458455822813568
1.0036723979601692,0.0978579156313711,0.0264906041545324,0.03595348541122598,0.0033063185584798465,0.03591432097403247
1.0037194799852995,0.14599333246590304,0.036083486489919325,0.06503465797160808,0.011580170896263337,0.06490555905858619
1.00376656201043,0.17300879075255565,0.040738542318523106,0.0922030709843016,0.020112606688416933,0.09199254390798833
1.0038136440355603,0.18229222765708752,0.04541313355433795,0.11374971918924169,0.024533182505389425,0.11350591050014144
1.0038607260606907,0.18262972424027749,0.048807123384006876,0.12736778710133306,0.029094296624167813,0.12709368101729743
1.003907808085821,0.18292620727983336,0.04691816565912433,0.13485525602086357,0.03557902449506686,0.1345414417052528
1.0039548901109514,0.18798821740501145,0.04581673587821353,0.13913083302593265,0.039016108132950734,0.1387999434971222
1.0040019721360818,0.19658928748535154,0.04294694435376615,0.1397247738744464,0.0395700638318371,0.1393913121569476
1.0040490541612122,0.20361099360789395,0.03956332300094917,0.1356935801867525,0.03798028971040521,0.13536583501418264
1.0040961361863425,0.20356945018764083,0.03490351579006782,0.1287855413388881,0.036723670270653506,0.1284601718917558
1.004143218211473,0.19261735903368254,0.028405496521562996,0.11776025800915435,0.03489422725121244,0.11743933654690197
1.0041903002366033,0.1692114287165738,0.020589644041978217,0.09836742477706704,0.03057950186914179,0.09806792855816832
1.0042373822617336,0.13469585530973552,0.01216950094679769,0.07519967777083232,0.024124949394959815,0.07494776153359455
1.004284464286864,0.094068350002802,0.0050184686369501305,0.051842634052145065,0.015951388849375303,0.05166734514308513
1.0043315463119944,0.0558705414627791,-0.0003779619057306162,0.03082107495389939,0.0059328926179729015,0.030753077677794755
1.0043786283371248,0.029785725493520713,-0.002648910937633612,0.019809015244991575,-0.0032456561630743695,0.019844329467875895
1.0044257103622551,0.022326134922130727,-0.0023791070220735133,0.01684685304795892,-0.010194817483985501,0.016961214047657432
1.0044727923873855,0.03362727707623793,-0.0006159317080616102,0.01768087969631584,-0.013443118939439093,0.017832407303868005
1.004519874412516,0.057935866130881315,0.002900029058739328,0.0238553638180855,-0.012978350917870887,0.024001633358259136
1.0045669564376463,0.08691312585069338,0.008030028091150727,0.038233159934289905,-0.00840028344786339,0.03832631273132982
1.0046140384627766,0.11302745450084833,0.014143262841377112,0.05542672474865837,0.0011445429681941329,0.05541046434505548
1.004661120487907,0.13143773576861661,0.019416787385288313,0.07126698378066398,0.011672453348193963,0.07113712049074229
1.0047082025130374,0.140315951549541,0.023085881591122563,0.0817840112464661,0.02157303127164013,0.08155766728927137
1.0047552845381678,0.14016084842095028,0.024218349973457325,0.0846685751900148,0.029728014705283873,0.08436970896997376
1.0048023665632981,0.13271042804166153,0.02377675372664371,0.08028160564993014,0.034877691043119365,0.07993661973565358
1.0048494485884285,0.1199532079956697,0.023051788964218743,0.06958311394397716,0.039401329224200074,0.06919252164931797
1.0048965306135589,0.10352759540252561,0.019402215296463774,0.05738407400153901,0.04286576110987452,0.05695317367416235
1.0049436126386893,0.08458770500586026,0.011964306800962363,0.04469505929439128,0.04255899750923282,0.044255301247788245
1.0049906946638196,0.06411017510052013,0.007206604271915564,0.03435472552873721,0.03927296863829388,0.03393804108427593
1.00503777668895,0.043500849939608656,0.001864101907808615,0.022887706523455283,0.03340366276349134,0.02252364715749362
1.0050848587140804,0.02497562650004661,-0.00247876252334273,0.013888116903115118,0.024991515979098374,0.013610657289178436
1.0051319407392107,0.011013597455985432,-0.005324038722981262,0.011624969459267675,0.014944678211233332,0.011457565306174193
1.0051790227643411,0.003334338693202587,-0.007024586299044826,0.009001101837417943,0.005146127728566114,0.008942814569767612
1.0052261047894715,0.0027948227754708652,-0.010629255928108601,0.005716764128480125,-0.0017681893665808805,0.005736285971941769
1.0052731868146019,0.010164673003053454,-0.014837522634717609,0.005314070387151807,-0.007067941933240563,0.0053933118307786035
1.0053202688397322,0.026566180290056158,-0.018105206381041017,0.008193549268036414,-0.011590510517312799,0.008323858365930449
1.0053673508648626,0.05291846997433676,-0.01899429322195886,0.011498759854167706,-0.012745888401709232,0.011642218075942222
1.005414432889993,0.08828034555015178,-0.015697270830835088,0.017065936640710815,-0.010600352862734419,0.017184922915340507
1.0054615149151234,0.12763762777320273,-0.012632176168912873,0.025647230237824777,-0.006110558400313516,0.025714707458533097
1.0055085969402537,0.16155770115500132,-0.009905061929300069,0.038076850744054896,0.0011910986702616088,0.03806111648908381
1.0055556789653841,0.18078890709766565,-0.007831524717580184,0.05135766337998839,0.011391362121907259,0.05123020524138561
1.0056027609905145,0.18307418566708303,-0.007242999358973024,0.06056084021799014,0.02202419657881602,0.06032540399671288
1.0056498430156449,0.1741533504439713,-0.00708426802545893,0.06655908741414072,0.029460741657947754,0.06625457279056271
1.0056969250407752,0.16242605985016223,-0.00711655371223258,0.07063087442771013,0.03412369979526922,0.07028645617169685
1.0057440070659056,0.15418810481596457,-0.00721821000329282,0.07107575192890922,0.03442718909460062,0.07072894264647782
1.005791089091036,0.1523552110015489,-0.006980997844237067,0.0660360559428213,0.031643263106113366,0.06571129811488398
1.0058381711161664,0.15691036178882456,-0.005043191875286998,0.06130313889977103,0.028072603595411194,0.061009458917627477
1.0058852531412967,0.16538784679386007,-0.002560972293150274,0.06307528196508604,0.0246150751054082,0.06281523192208914
1.005932335166427,0.17322460684996496,-0.003423605219761048,0.06323184659303546,0.020031681917265287,0.06301664410957859
1.0059794171915575,0.17475929729964576,-0.0052522767252948235,0.05880087400333982,0.01392931297748665,0.058647081664711706
1.0060264992166879,0.16548577922015562,-0.006366524103443689,0.05204155960234529,0.007624291508164141,0.05195443472658918
1.0060735812418182,0.1445721481217929,-0.0071929370551498005,0.04234591607178599,0.0012700117112445176,0.04232904281026001
1.0061206632669486,0.11538472372115638,-0.007874866736723243,0.03266210113426135,-0.005695256410978664,0.032724483932527054
1.006167745292079,0.08342022676517998,-0.008753008458582418,0.0259645785337829,-0.011385536565335863,0.026092476372249814
1.0062148273172093,0.053714935068683495,-0.008659540687277216,0.01794830890199036,-0.015114677022440844,0.01811905529714546
1.0062619093423397,0.029620632829972474,-0.008978801090956692,0.006428025048282717,-0.015999669749490266,0.006608294593978573
1.00630899136747,0.012907514843990737,-0.00858096186950328,-0.004503164505502606,-0.014071084720869749,-0.004345151504897052
1.0063560733926005,0.004292560353454192,-0.008173450499585535,-0.010519166817943732,-0.01040862846001064,-0.010402088785598552
1.0064031554177308,0.0038095921685766332,-0.0057043921646054525,-0.007972360122875525,-0.006834539866783011,-0.007895225807611454
1.0064502374428612,0.010924293923755681,-0.00077346885317506,0.0013341291502741227,-0.0005819459734356754,0.0013405863297519373
1.0064973194679916,0.02453035587728399,0.0019217126914762572,0.011333716656649779,0.006415981395104752,0.011261128695914967
1.006544401493122,0.042966387475684646,0.003944924153963492,0.020787738978896356,0.013500281265584842,0.020636656466238905
1.0065914835182523,0.06411092062196938,0.003762327591651661,0.03329944681240632,0.01785110183857755,0.03310229404174217
1.0066385655433827,0.08556714248621351,0.004782371988331596,0.049462130528264495,0.01960822803006152,0.049248861160051435
1.006685647568513,0.10493697207975199,0.006469328128868525,0.06485229624100503,0.01943717622851835,0.0646432700900535
1.0067327295936435,0.12014720761669652,0.008064377930634671,0.07640706666955516,0.017041241725964034,0.07622339395174592
1.0067798116187738,0.12974860817624662,0.008400659676308658,0.08294186479002422,0.014041328070704837,0.08278856047629944
1.0068268936439042,0.1331160769266914,0.010623910405845953,0.08436945777741765,0.009766215119449962,0.08425954868976558
1.0068739756690346,0.13051634907150206,0.009397502163518371,0.08386978816652868,0.006166169650489676,0.08379752858386916
1.006921057694165,0.12301693370584733,0.005512815269986372,0.08185258015702256,0.001860713122188813,0.08182687929484912
1.0069681397192953,0.11219272060745543,0.0009014273502055111,0.07585112215539112,-0.0028173045009410374,0.07587805167521923
1.0070152217444257,0.09964098937742749,-0.0033475744224521417,0.06985230351433948,-0.006107408314006924,0.06991735668697979
1.007062303769556,0.08648287672211809,-0.006421026507658359,0.06302251331950957,-0.009030837048209818,0.06312201585752741
1.0071093857946865,0.07315337862299943,-0.006875517546657364,0.053521194673379444,-0.010947174482024648,0.05364354852289459
1.0071564678198168,0.05967551136841471,-0.00614676806917013,0.042771215350936226,-0.01222778085913165,0.04290878618882686
1.0072035498449472,0.046352747241279996,-0.006388143886053951,0.029687677967592516,-0.012719950552445578,0.029831001667737833
1.0072506318700776,0.03458526276589038,-0.005833746440950288,0.01916866027493343,-0.01210734334055564,0.019304878962985217
1.007297713895208,0.02727830692374265,-0.005311779162265601,0.01473006896934623,-0.011721648005163936,0.01486187109435443
1.0073447959203383,0.0280866607277734,-0.0037540408486673965,0.01711698325886342,-0.010474298162304411,0.017234529634023648
1.0073918779454687,0.03925806445151868,0.0005928746437600839,0.028584290137595406,-0.0072711163859769615,0.028664872126174017
1.007438959970599,0.059562255279517966,0.006110666045307775,0.043832242766228824,-0.0028821228019617097,0.04386196341512694
1.0074860419957294,0.08449757331606145,0.010804541339242761,0.058037587268334905,0.0022437800447053483,0.05800898513835294
1.0075331240208598,0.10858230355013457,0.013466993043319098,0.06858033205585247,0.006569336406832195,0.06850416952569048
1.0075802060459902,0.12742598805780986,0.015530193263461979,0.07621925524513734,0.009147121068514346,0.07611571090649305
1.0076272880711206,0.13840784538629322,0.015545984058716059,0.07904744927672683,0.010864124178408275,0.07892614040485084
1.007674370096251,0.14057521646913557,0.014269058193605494,0.0769603579802706,0.011668721453925744,0.07683072616681275
