freq,gls,usurper,pdc_unbiased,shape_periodogram,shift_periodogram
1.0,0.02176245538732735,0.027271208429964944,-0.007335655112181927,0.008606638187261918,-0.007690397916876607
1.0000470820251304,0.05134779247241603,0.04161295783088742,0.016081221596065367,0.014919996975803157,0.015443319986248583
1.0000941640502607,0.09689124580742478,0.05709702734025067,0.05094334186944231,0.02945293332190559,0.04968963959630042
1.0001412460753911,0.14848755125694818,0.07388082959467361,0.08456655871201842,0.04761194444971798,0.082609858167113
1.0001883281005215,0.19664060203551523,0.09007831682393239,0.10917973127593883,0.06814680042881713,0.10652130258010331
1.0002354101256519,0.23592916525893703,0.10201564230508327,0.12678225514793529,0.08433457265350533,0.12365202977150576
1.0002824921507822,0.26363730657080775,0.10827195089383186,0.13936052532630389,0.09450674892787565,0.13598594680349504
1.0003295741759126,0.2780607972143743,0.11231661360848554,0.14663287491158739,0.10101988777485418,0.14311928677128652
1.000376656201043,0.27778293516045677,0.11385166618263048,0.14742341655727248,0.10422292750850351,0.1438303715014719
1.0004237382261734,0.2619162710265795,0.11050907879832307,0.139633635428265,0.10473738099889146,0.13597869357701559
1.0004708202513037,0.23107843684954268,0.10267304886314729,0.12167319492364326,0.101341122478559,0.1180075693018962
1.0005179022764341,0.1884924826566669,0.09207970336531979,0.09811663264576473,0.09548990782069809,0.09450987007367354
1.0005649843015645,0.1401213853463462,0.08337077385478836,0.07552593926328457,0.08931525177760789,0.07203100029924267
1.0006120663266949,0.09311329616242185,0.07666791012169327,0.056936636782797936,0.08194143357129872,0.05364585245998453
1.0006591483518252,0.05338098213176131,0.0728618316928493,0.04656239048066332,0.07195961628150889,0.04362575629008517
1.0007062303769556,0.024158292773911582,0.06784777082095385,0.0379052596807291,0.059156927082797725,0.03545807388054929
1.000753312402086,0.006389706849983347,0.06155905124062865,0.024925530867037873,0.043858132707089874,0.023088102348232824
1.0008003944272164,4.4957735270936574e-05,0.05768924924552546,0.013623927240606612,0.030253432257789474,0.012349159450527262
1.0008474764523467,0.004476680458159687,0.053964545085413956,0.005279248516488982,0.025253392192190985,0.0042169178953303296
1.000894558477477,0.016631009383087918,0.05686130851116319,0.00604487589630294,0.02781240777303475,0.004875110146830975
1.0009416405026075,0.030279800796216314,0.0670638865979683,0.01614856324889533,0.0371775619550274,0.014585855035393664
1.0009887225277379,0.04019506929021177,0.08210471829895234,0.031662352407458065,0.05353444913279595,0.02943472681401874
1.0010358045528682,0.045271217739530065,0.0945749833071846,0.049643587368788454,0.07304319421513229,0.046671779631058806
1.0010828865779986,0.04665854735345898,0.1021784884603329,0.06394396252727896,0.09131445033276477,0.06033162914286734
1.001129968603129,0.04557434040645729,0.10630419288571566,0.06951556918541625,0.10446606149022236,0.06546001787611666
1.0011770506282593,0.04281463251624272,0.10405152249212667,0.06676401531502141,0.11008383847534614,0.06249596110373187
1.0012241326533897,0.03911406922799136,0.09609214808093036,0.05756222886158259,0.10952329215710882,0.05325911248122995
1.00127121467852,0.035734840091298535,0.08521865222785116,0.04469056838221148,0.1052987493514833,0.040471925519957784
1.0013182967036505,0.034632288517627896,0.07615504718034968,0.03354469161607427,0.1016684174837202,0.029410053105020997
1.0013653787287808,0.03686446430802818,0.07467967108542188,0.03235087082016887,0.09999961738294662,0.028276072138653966
1.0014124607539112,0.040499198873267514,0.0799870418767643,0.04235422606047071,0.10155990687509923,0.03826574551979326
1.0014595427790416,0.04245011553894062,0.08677069505974717,0.05148956578485458,0.104395780839176,0.04734031599705428
1.001506624804172,0.04142424671447975,0.09025244810103811,0.057489670337512934,0.1027064702566635,0.0534335168880208
1.0015537068293023,0.03772147907862947,0.08992274482190564,0.05838903434484734,0.09519682095455728,0.05461180856725848
1.0016007888544327,0.032149333674356434,0.08506167609825335,0.05286952532393206,0.08163552252416587,0.049578032989832446
1.001647870879563,0.025799799790141527,0.07538722706934904,0.040386054375886556,0.06232985281887581,0.03781601908462935
1.0016949529046935,0.020580986012262138,0.06100742894213788,0.02276083148008517,0.04145630756619186,0.021021550978374198
1.0017420349298238,0.01993155776046648,0.051160574086119584,0.008396000375120035,0.02562940987384089,0.007316280810088871
1.0017891169549542,0.027489951613850306,0.04961242652223239,0.00883020356959996,0.023079699533722953,0.007856721883102801
1.0018361989800846,0.042074300128446054,0.05240886884591345,0.022145335055818467,0.030557143120663755,0.020854990321832124
1.001883281005215,0.05845891480384451,0.06216348958836589,0.04104344236602053,0.04575984514341771,0.039133883310018186
1.0019303630303453,0.07582159493280267,0.07499255158183663,0.05832937685591873,0.06350714722851514,0.055740016162474836
1.0019774450554757,0.09824195100672209,0.08441508917111851,0.07041397317164165,0.08203401405852713,0.06716166443363661
1.002024527080606,0.1303669711588208,0.08499252437675722,0.07896421651578898,0.09489730408039505,0.07528855052537789
1.0020716091057364,0.17464242099810953,0.08162307112353943,0.08832693698111686,0.103055150019777,0.08442225810161548
1.0021186911308668,0.22917237164395338,0.08564753625493633,0.11355266104308831,0.1095909144897266,0.10959531820532985
1.0021657731559972,0.2864808872447173,0.09448316651289738,0.14880372324738836,0.11638744002112317,0.14491498483952409
1.0022128551811276,0.335488571803669,0.10285757374630115,0.17945522269565434,0.12227813664382797,0.17569124917346182
1.002259937206258,0.3667004160945303,0.10779061163875372,0.20044309409803335,0.1251220908870788,0.19681894216403462
1.0023070192313883,0.37630521047742305,0.10860910062313943,0.20989430295355302,0.12399452362368421,0.20637480248949078
1.0023541012565187,0.3658732131217113,0.10547893067428035,0.20800353236518512,0.11913895908788567,0.20454165400858484
1.002401183281649,0.3393357840705059,0.10030993548054952,0.19716291122807472,0.11092051382596996,0.19375785319457625
1.0024482653067794,0.30043566038503033,0.09330524906234595,0.1783931936762516,0.09760547116913303,0.17514805607520945
1.0024953473319098,0.25183659939415354,0.08272882208503582,0.15384153094853617,0.07815217657508862,0.15099633749090804
1.0025424293570402,0.1956066522565673,0.06610370066429898,0.12081929242955049,0.05403980228495823,0.1186676694527961
1.0025895113821706,0.13475970805500284,0.045401387610020466,0.07564140824241966,0.025814502423985388,0.07452647209956216
1.002636593407301,0.07582916802294695,0.027646503872560877,0.025728531183742454,0.002943652777593178,0.025582693744400167
1.0026836754324313,0.03145358980808763,0.022252409261356028,-0.0040036080406334615,-0.002539692168769713,-0.0038935922676388503
1.0027307574575617,0.01779891286180085,0.03134609316202697,-0.006351274616742859,0.013896037157295994,-0.006929084282785318
1.002777839482692,0.04358985242398123,0.04164252464023902,0.006591376950054447,0.04327327141165381,0.00477536224966668
1.0028249215078224,0.1037077589167159,0.059783331844592905,0.04281328660270074,0.07126010354620937,0.03989611630224088
1.0028720035329528,0.18101238562213362,0.08437767446448949,0.0979436666785688,0.09222090451008202,0.09444298931963604
1.0029190855580832,0.25636899888384335,0.10782542356449656,0.15380629462607742,0.1053294214659623,0.15022514891131905
1.0029661675832136,0.31832235074100634,0.12554556172839487,0.19704252226634572,0.11010783636475589,0.19365200655090084
1.003013249608344,0.36361141655314383,0.1347524441569795,0.228525784613192,0.11225278619222614,0.22533667462817317
1.0030603316334743,0.39341420767750745,0.13919418252696333,0.24979870354304085,0.11204571895879621,0.24677880170629027
1.0031074136586047,0.4102870696014962,0.1396660791424797,0.26258314989231946,0.10990403354630411,0.2596872832428717
1.003154495683735,0.41662904201390033,0.13773587609139132,0.266777273312063,0.10608744180306473,0.2639556407844609
1.0032015777088654,0.41405085665469693,0.13343693086854055,0.26326150551395927,0.10037275736262072,0.2604865952501634
1.0032486597339958,0.4030953535584088,0.12676543989186206,0.251751202986526,0.09257227699393221,0.24902248652510353
1.0032957417591262,0.38301151602067063,0.1175030930745443,0.2324239377319079,0.0826367168893552,0.229782333141696
1.0033428237842565,0.3514583105172215,0.1052236995133567,0.2047530276495091,0.07031232346880156,0.2022926867157681
1.003389905809387,0.3042863356687068,0.08952230655818268,0.16911475512504195,0.055919953799916954,0.1669774862334106
1.0034369878345173,0.2364892670841809,0.07107861365245649,0.12615890065588273,0.03978612178770294,0.12451730265210938
1.0034840698596477,0.14805992805189566,0.05136767553572674,0.07745804013496241,0.02324084000280614,0.07644480008837296
1.003531151884778,0.05937981673678241,0.03694018273943059,0.035632586371168055,0.010510720145389006,0.03516325062131264
1.0035782339099084,0.016571701488668728,0.033471048516459795,0.012038086514572617,0.005904540100769909,0.0117801329549569
1.0036253159350388,0.04141534161646615,0.04444730389327034,0.014399178728297872,0.0139306776852602,0.013803807364880634
1.0036723979601692,0.0978579156313711,0.06435687636804863,0.03595348541122598,0.031655460435054496,0.034614142696244084
1.0037194799852995,0.14599333246590304,0.08877114732048218,0.06503465797160808,0.052889650365964,0.06286081623744194
1.00376656201043,0.17300879075255565,0.10737106732587556,0.0922030709843016,0.07319434192497694,0.089328474185895
1.0038136440355603,0.18229222765708752,0.1199971448266956,0.11374971918924169,0.08614469899217783,0.11051168086702519
1.0038607260606907,0.18262972424027749,0.12595703302486394,0.12736778710133306,0.09568882655433512,0.1238985922824616
1.003907808085821,0.18292620727983336,0.12766088194927272,0.13485525602086357,0.1043599978572997,0.1311811810217941
1.0039548901109514,0.18798821740501145,0.12844250070686267,0.13913083302593265,0.1095242157802732,0.13534535314906643
1.0040019721360818,0.19658928748535154,0.12656777283899742,0.1397247738744464,0.1109676449543007,0.13590558008360928
1.0040490541612122,0.20361099360789395,0.12254306888895357,0.1356935801867525,0.10998262643584976,0.13187266204003847
1.0040961361863425,0.20356945018764083,0.11485834339784677,0.1287855413388881,0.10711664521070076,0.12499731229770661
1.004143218211473,0.19261735903368254,0.10363899424398436,0.11776025800915435,0.10204469763259465,0.11405171476535593
1.0041903002366033,0.1692114287165738,0.0891601583395353,0.09836742477706704,0.09257023712527157,0.09485716668129879
1.0042373822617336,0.13469585530973552,0.07253049238371741,0.07519967777083232,0.07891855410875537,0.07207465322869766
1.004284464286864,0.094068350002802,0.055964561797646445,0.051842634052145065,0.062494116975900196,0.049282408673272625
1.0043315463119944,0.0558705414627791,0.04116477535370815,0.03082107495389939,0.044052014197572126,0.028977128203013094
1.0043786283371248,0.029785725493520713,0.031563199964998526,0.019809015244991575,0.02683676207065194,0.01867347264273479
1.0044257103622551,0.022326134922130727,0.027478377871726092,0.01684685304795892,0.01390548661914707,0.016250683134176516
1.0044727923873855,0.03362727707623793,0.028566702867299648,0.01768087969631584,0.008009974328324091,0.01733012031943534
1.004519874412516,0.057935866130881315,0.034044379163384875,0.0238553638180855,0.008874800547801709,0.023463436303266524
1.0045669564376463,0.08691312585069338,0.04383370636430928,0.038233159934289905,0.017528115635164526,0.037471811769454653
1.0046140384627766,0.11302745450084833,0.05659963023041932,0.05542672474865837,0.033689553938089735,0.05400214831628099
1.004661120487907,0.13143773576861661,0.06892802337406292,0.07126698378066398,0.052303872601423024,0.06912142211265417
1.0047082025130374,0.140315951549541,0.0796187858628805,0.0817840112464661,0.07090558351052227,0.07896512331837184
1.0047552845381678,0.14016084842095028,0.0844930445971927,0.0846685751900148,0.08622088193136837,0.08131668199177708
1.0048023665632981,0.13271042804166153,0.08392014457526298,0.08028160564993014,0.09655910444329703,0.076554713311092
1.0048494485884285,0.1199532079956697,0.08006210690398656,0.06958311394397716,0.10404597853679709,0.06554264105325167
1.0048965306135589,0.10352759540252561,0.0761117000584867,0.05738407400153901,0.10723269153808068,0.05316282505346244
1.0049436126386893,0.08458770500586026,0.06973307401168753,0.04469505929439128,0.10584114040115071,0.040455961134086706
1.0049906946638196,0.06411017510052013,0.06419757042058019,0.03435472552873721,0.1003751283573351,0.030274364222900828
1.00503777668895,0.043500849939608656,0.057163017597228374,0.022887706523455283,0.09168068301520159,0.019105684675951418
1.0050848587140804,0.02497562650004661,0.04876766271528421,0.013888116903115118,0.07928982831350699,0.010584744691594743
1.0051319407392107,0.011013597455985432,0.0418163449718353,0.011624969459267675,0.06498806171847062,0.008908562467704419
1.0051790227643411,0.003334338693202587,0.035028888818768644,0.009001101837417943,0.04845317759007091,0.006969553674088222
1.0052261047894715,0.0027948227754708652,0.024786208321601562,0.005716764128480125,0.03078084309532832,0.0044230055282107605
1.0052731868146019,0.010164673003053454,0.015586656036441448,0.005314070387151807,0.015482470804012709,0.004660680359715176
1.0053202688397322,0.026566180290056158,0.009697361739485323,0.008193549268036414,0.0030112198515424944,0.00806010699164923
1.0053673508648626,0.05291846997433676,0.007970941946701731,0.011498759854167706,-0.0030351645625824133,0.011615960513812402
1.005414432889993,0.08828034555015178,0.00942058723206126,0.017065936640710815,-0.004157468156731633,0.017225353232301087
1.0054615149151234,0.12763762777320273,0.01261832659607551,0.025647230237824777,-0.000992852270065745,0.025666290855890565
1.0055085969402537,0.16155770115500132,0.017848150295347132,0.038076850744054896,0.00898564666285629,0.0376688922048285
1.0055556789653841,0.18078890709766565,0.024874758429597445,0.05135766337998839,0.023497892336262406,0.05034483525224736
1.0056027609905145,0.18307418566708303,0.030269702406844703,0.06056084021799014,0.039363461718344796,0.05891126086601761
1.0056498430156449,0.1741533504439713,0.03538036283121238,0.06655908741414072,0.05292838232488873,0.06438520084889268
1.0056969250407752,0.16242605985016223,0.0390984287589805,0.07063087442771013,0.06449682140445857,0.06802460505730104
1.0057440070659056,0.15418810481596457,0.03968154637731699,0.07107575192890922,0.07136473158858196,0.06821547332847072
1.005791089091036,0.1523552110015489,0.037608138551341035,0.0660360559428213,0.07347414544491432,0.06308590074753112
1.0058381711161664,0.15691036178882456,0.03671049122625009,0.06130313889977103,0.07303900416702303,0.05835804687167459
1.0058852531412967,0.16538784679386007,0.03789300249633013,0.06307528196508604,0.07088577706734898,0.06021503402821471
1.005932335166427,0.17322460684996496,0.03685513808022878,0.06323184659303546,0.06591653511722592,0.06055910872084389
1.0059794171915575,0.17475929729964576,0.033347729770336905,0.05880087400333982,0.05799781849144824,0.056423778306217275
1.0060264992166879,0.16548577922015562,0.029071780139893196,0.05204155960234529,0.04914976486550675,0.05000298496000063
1.0060735812418182,0.1445721481217929,0.024401378566391865,0.04234591607178599,0.038594347412011745,0.04072464496462713
1.0061206632669486,0.11538472372115638,0.020359397259778724,0.03266210113426135,0.027776434324253255,0.03148244925082118
1.006167745292079,0.08342022676517998,0.018040047987066172,0.0259645785337829,0.01911374433694106,0.025145541398865958
1.0062148273172093,0.053714935068683495,0.01875665360782312,0.01794830890199036,0.013791729743819434,0.017356051725078613
1.0062619093423397,0.029620632829972474,0.020185566889998886,0.006428025048282717,0.011245312031038455,0.005951171938393435
1.00630899136747,0.012907514843990737,0.021533202595879247,-0.004503164505502606,0.01120716841535663,-0.004969501003409598
1.0063560733926005,0.004292560353454192,0.023833981396498866,-0.010519166817943732,0.013410208926796226,-0.01107320289034535
1.0064031554177308,0.0038095921685766332,0.02727835881197487,-0.007972360122875525,0.015464499739729182,-0.008614854160446743
1.0064502374428612,0.010924293923755681,0.03523080882156449,0.0013341291502741227,0.02299118528447163,0.00036885866824056294
1.0064973194679916,0.02453035587728399,0.04282665504131322,0.011333716656649779,0.03306623320425209,0.00994269990659441
1.006544401493122,0.042966387475684646,0.049207819182430466,0.020787738978896356,0.04338261657672585,0.018969024506361117
1.0065914835182523,0.06411092062196938,0.05329832412268439,0.03329944681240632,0.05062780988603246,0.031190238386029558
1.0066385655433827,0.08556714248621351,0.058656335408704637,0.049462130528264495,0.05585048816367533,0.04715810594724177
1.006685647568513,0.10493697207975199,0.06177843426605413,0.06485229624100503,0.05861421483078904,0.06245919748953845
1.0067327295936435,0.12014720761669652,0.0624629121244443,0.07640706666955516,0.059001718209514956,0.07401499849160982
1.0067798116187738,0.12974860817624662,0.060154714789354684,0.08294186479002422,0.05669986406105252,0.0806441980538915
1.0068268936439042,0.1331160769266914,0.058162571165533826,0.08436945777741765,0.05202460933997113,0.08224722407888241
1.0068739756690346,0.13051634907150206,0.05327166502671307,0.08386978816652868,0.046723528532474405,0.08194607402756036
1.006921057694165,0.12301693370584733,0.04587318754164205,0.08185258015702256,0.03997171638460596,0.08018485472170861
1.0069681397192953,0.11219272060745543,0.0367500789178185,0.07585112215539112,0.03178808829381053,0.07450036868861641
1.0070152217444257,0.09964098937742749,0.028025352309502455,0.06985230351433948,0.023821493533862793,0.0688187560725617
1.007062303769556,0.08648287672211809,0.0214617548318697,0.06302251331950957,0.01767349258232253,0.062240139877104285
1.0071093857946865,0.07315337862299943,0.017683893006610878,0.053521194673379444,0.013015453964395091,0.05293519320327183
1.0071564678198168,0.05967551136841471,0.015080426094251104,0.042771215350936226,0.009131370123216824,0.04235350926028543
1.0072035498449472,0.046352747241279996,0.012870719360520096,0.029687677967592516,0.0071788816435221356,0.029361666685719726
1.0072506318700776,0.03458526276589038,0.012630809112079092,0.01916866027493343,0.007506909242912981,0.018837681596591535
1.007297713895208,0.02727830692374265,0.014257814332822173,0.01473006896934623,0.00824662956061254,0.014371867106307015
1.0073447959203383,0.0280866607277734,0.018890205616315364,0.01711698325886342,0.011288571864752583,0.016629774235124756
1.0073918779454687,0.03925806445151868,0.029306315413969546,0.028584290137595406,0.01910400881406885,0.02776400234584899
1.007438959970599,0.059562255279517966,0.04252932500897221,0.043832242766228824,0.02916668702690383,0.04259208095936939
1.0074860419957294,0.08449757331606145,0.05489652719897467,0.058037587268334905,0.04063958859397497,0.056337106579325474
1.0075331240208598,0.10858230355013457,0.06494076374860919,0.06858033205585247,0.05174313225717684,0.06645371421340528
1.0075802060459902,0.12742598805780986,0.07169732554441542,0.07621925524513734,0.059537713213150455,0.07380692922829006
1.0076272880711206,0.13840784538629322,0.07404258112766952,0.07904744927672683,0.06373799501468044,0.07648407495974606
1.007674370096251,0.14057521646913557,0.07099071921996827,0.0769603579802706,0.06457762549854017,0.07436233835977661
1.0077214521213813,0.1345761316442056,0.06502899503481702,0.07084930100861353,0.06175499648960474,0.0683460120637855
1.0077685341465117,0.12269802495893224,0.0560004398057235,0.062425783036096825,0.05524669274718834,0.060158722966910896
