freq,gls,usurper,pdc_unbiased,shape_periodogram,shift_periodogram
1.0,0.02176245538732735,0.005723964329512886,-0.007335655112181927,-0.0006154129305302201,-0.0073203050196336515
1.0000470820251304,0.05134779247241603,0.010371421671140475,0.016081221596065367,0.0014798045577308554,0.016044714942514793
1.0000941640502607,0.09689124580742478,0.014755797941963422,0.05094334186944231,0.006666984877717317,0.0507856839602772
1.0001412460753911,0.14848755125694818,0.020659132400964272,0.08456655871201842,0.011752442424582225,0.08429556140884024
1.0001883281005215,0.19664060203551523,0.026123320007930922,0.10917973127593883,0.017561296988870958,0.10878974792978213
1.0002354101256519,0.23592916525893703,0.02944482422648998,0.12678225514793529,0.0210691183082927,0.12632607841341226
1.0002824921507822,0.26363730657080775,0.028751377969923716,0.13936052532630389,0.021991118476275502,0.1388893624782294
1.0003295741759126,0.2780607972143743,0.028687546849568445,0.14663287491158739,0.02300185891807295,0.14614487142288615
1.000376656201043,0.27778293516045677,0.030156977802811052,0.14742341655727248,0.023755504265237124,0.1469220515255064
1.0004237382261734,0.2619162710265795,0.03008769814873871,0.139633635428265,0.02486188274698719,0.13911022264185852
1.0004708202513037,0.23107843684954268,0.028587101614131173,0.12167319492364326,0.024937332691264868,0.1211434338606205
1.0005179022764341,0.1884924826566669,0.025975391947901865,0.09811663264576473,0.024994507955159888,0.09757998934333513
1.0005649843015645,0.1401213853463462,0.02475682310465084,0.07552593926328457,0.023924030565569916,0.07500600110814411
1.0006120663266949,0.09311329616242185,0.024206786748688904,0.056936636782797936,0.021176124644205062,0.05647079724453986
1.0006591483518252,0.05338098213176131,0.026158602707023526,0.04656239048066332,0.015591110351512165,0.04621403938039079
1.0007062303769556,0.024158292773911582,0.027285843515299116,0.0379052596807291,0.008579674151511466,0.037708675060939334
1.000753312402086,0.006389706849983347,0.028757481149994598,0.024925530867037873,0.0007480715976160069,0.02490300299049434
1.0008003944272164,4.4957735270936574e-05,0.0324996408356552,0.013623927240606612,-0.006668192657326197,0.013767907959927864
1.0008474764523467,0.004476680458159687,0.033238195065876046,0.005279248516488982,-0.007328217878287145,0.005439684706445647
1.000894558477477,0.016631009383087918,0.03362916683729971,0.00604487589630294,-0.00401496644934579,0.006131977211776702
1.0009416405026075,0.030279800796216314,0.03728272085052555,0.01614856324889533,0.0018586185402767656,0.016103701336309163
1.0009887225277379,0.04019506929021177,0.042257783384468416,0.031662352407458065,0.010220262234384589,0.03143129143882942
1.0010358045528682,0.045271217739530065,0.046111264434626986,0.049643587368788454,0.021129267039201094,0.0491783239474708
1.0010828865779986,0.04665854735345898,0.044812785384274856,0.06394396252727896,0.03139462347007345,0.0632715155020134
1.001129968603129,0.04557434040645729,0.04234822312777883,0.06951556918541625,0.04008486114288042,0.06867616824974605
1.0011770506282593,0.04281463251624272,0.03743009499981441,0.06676401531502141,0.0460040078011629,0.06580955422509015
1.0012241326533897,0.03911406922799136,0.030877617837709963,0.05756222886158259,0.049537123338333114,0.05653053492205302
1.00127121467852,0.035734840091298535,0.0237794442255985,0.04469056838221148,0.05160522074833989,0.043603185503763395
1.0013182967036505,0.034632288517627896,0.01753389811593989,0.03354469161607427,0.05263773174052934,0.03242272387494616
1.0013653787287808,0.03686446430802818,0.017430601599724115,0.03235087082016887,0.05206390894756873,0.03123911706769972
1.0014124607539112,0.040499198873267514,0.022576613025341707,0.04235422606047071,0.05115253811026457,0.041272973951395175
1.0014595427790416,0.04245011553894062,0.028109065078484125,0.05148956578485458,0.04802912968690517,0.05048031330113094
1.001506624804172,0.04142424671447975,0.030552559747227943,0.057489670337512934,0.041371503899258935,0.056616299732179874
1.0015537068293023,0.03772147907862947,0.02960642378554446,0.05838903434484734,0.03275908331101067,0.05768708264944164
1.0016007888544327,0.032149333674356434,0.029107525978747478,0.05286952532393206,0.022334524473537086,0.05237932554225303
1.001647870879563,0.025799799790141527,0.02943624296003413,0.040386054375886556,0.010688748280897975,0.04014343727674013
1.0016949529046935,0.020580986012262138,0.02755452253172082,0.02276083148008517,-0.0005158251991527176,0.022766668609462068
1.0017420349298238,0.01993155776046648,0.02642907390841895,0.008396000375120035,-0.008544468786751393,0.008582649998771614
1.0017891169549542,0.027489951613850306,0.02752256201125208,0.00883020356959996,-0.008866014500466682,0.009023875805978564
1.0018361989800846,0.042074300128446054,0.02754732322853635,0.022145335055818467,-0.004985669986247856,0.022250078567703536
1.001883281005215,0.05845891480384451,0.030776771049114315,0.04104344236602053,0.002883065828408897,0.04097024233397895
1.0019303630303453,0.07582159493280267,0.03359421547739789,0.05832937685591873,0.011544475926116592,0.05806584762281556
1.0019774450554757,0.09824195100672209,0.036425663922732124,0.07041397317164165,0.022852076273279672,0.06991495526508548
1.002024527080606,0.1303669711588208,0.03425365950293393,0.07896421651578898,0.03166728836560427,0.07829239064361963
1.0020716091057364,0.17464242099810953,0.028769237824560645,0.08832693698111686,0.03798562627117117,0.08754046484908418
1.0021186911308668,0.22917237164395338,0.02826515757485435,0.11355266104308831,0.041190179717855546,0.11272902563896596
1.0021657731559972,0.2864808872447173,0.03035216694560679,0.14880372324738836,0.0428282376974625,0.1479878268835209
1.0022128551811276,0.335488571803669,0.03282411223581937,0.17945522269565434,0.04414639114778932,0.17865461593120976
1.002259937206258,0.3667004160945303,0.034176700891848474,0.20044309409803335,0.04449278531417263,0.19966338206777853
1.0023070192313883,0.37630521047742305,0.03422083381854705,0.20989430295355302,0.043419040171412904,0.20913905737754396
1.0023541012565187,0.3658732131217113,0.0327031535288047,0.20800353236518512,0.041003195587100257,0.2072756784475164
1.002401183281649,0.3393357840705059,0.030312441866255837,0.19716291122807472,0.03670770116855748,0.19648131497044863
1.0024482653067794,0.30043566038503033,0.02704138981375677,0.1783931936762516,0.029739036389651127,0.17780257250829787
1.0024953473319098,0.25183659939415354,0.020790704393976248,0.15384153094853617,0.020293818889878423,0.15340414349180137
1.0025424293570402,0.1956066522565673,0.013327271184939213,0.12081929242955049,0.01015307988906711,0.12057747982547393
1.0025895113821706,0.13475970805500284,0.005322418862041066,0.07564140824241966,0.0006757792685038462,0.07560836865398136
1.002636593407301,0.07582916802294695,-0.0006059927757279152,0.025728531183742454,-0.005413126414380075,0.025841894300188694
1.0026836754324313,0.03145358980808763,0.0036472547069040053,-0.0040036080406334615,-0.006034515921615382,-0.0038696527345529075
1.0027307574575617,0.01779891286180085,0.014644792618307643,-0.006351274616742859,0.0020589196812415083,-0.006395138699993449
1.002777839482692,0.04358985242398123,0.015991163958856594,0.006591376950054447,0.0156252651315355,0.0062460355812735185
1.0028249215078224,0.1037077589167159,0.014397280769238569,0.04281328660270074,0.02544585047087786,0.042257019027591915
1.0028720035329528,0.18101238562213362,0.019643507271671114,0.0979436666785688,0.02771488157168182,0.09735475302977513
1.0029190855580832,0.25636899888384335,0.03154716349009651,0.15380629462607742,0.028760841731120857,0.15321980339371521
1.0029661675832136,0.31832235074100634,0.040167026176961176,0.19704252226634572,0.029485455877841796,0.19646583741145382
1.003013249608344,0.36361141655314383,0.043980994386187335,0.228525784613192,0.03046503344019588,0.22795348069703858
1.0030603316334743,0.39341420767750745,0.046392969795262445,0.24979870354304085,0.02945900537694862,0.2492533532575861
1.0031074136586047,0.4102870696014962,0.046966457338822966,0.26258314989231946,0.02775911695787116,0.2620677509226899
1.003154495683735,0.41662904201390033,0.04706091406943212,0.266777273312063,0.025856164688849142,0.26628927092016386
1.0032015777088654,0.41405085665469693,0.046236120473962146,0.26326150551395927,0.023513309727230414,0.2628039711670167
1.0032486597339958,0.4030953535584088,0.0446425062473287,0.251751202986526,0.02051366065447309,0.2513333419735637
1.0032957417591262,0.38301151602067063,0.04217578845533301,0.2324239377319079,0.016909550059566313,0.2320587800149473
1.0033428237842565,0.3514583105172215,0.03844789601112543,0.2047530276495091,0.012355913791005828,0.20446477819687311
1.003389905809387,0.3042863356687068,0.033332316521468494,0.16911475512504195,0.007174473450574293,0.16892757841573092
1.0034369878345173,0.2364892670841809,0.027563086618373533,0.12615890065588273,0.0015287168340055838,0.12609595717899036
1.0034840698596477,0.14805992805189566,0.021240915455114473,0.07745804013496241,-0.003844385220228321,0.07752389464432201
1.003531151884778,0.05937981673678241,0.01710450112232663,0.035632586371168055,-0.007855782647435064,0.035797919502730154
1.0035782339099084,0.016571701488668728,0.016908572123200512,0.012038086514572617,-0.009876238352842381,0.012253471721231415
1.0036253159350388,0.04141534161646615,0.022127730590195675,0.014399178728297872,-0.00880334341537896,0.014590288627311501
1.0036723979601692,0.0978579156313711,0.027409929995416023,0.03595348541122598,-0.003963126350598811,0.03603225223286108
1.0037194799852995,0.14599333246590304,0.03279385559823268,0.06503465797160808,0.0027606369581198937,0.0649586763886477
1.00376656201043,0.17300879075255565,0.03486325372010908,0.0922030709843016,0.010978463329558855,0.09194734607546631
1.0038136440355603,0.18229222765708752,0.037868851205193683,0.11374971918924169,0.016241302196293415,0.11338598364505655
1.0038607260606907,0.18262972424027749,0.04150224104919464,0.12736778710133306,0.022468297772589102,0.12688539039026203
1.003907808085821,0.18292620727983336,0.04243028812947842,0.13485525602086357,0.030503174075103147,0.13423000334142648
1.0039548901109514,0.18798821740501145,0.042620203083321984,0.13913083302593265,0.037300620305193835,0.138393303322379
1.0040019721360818,0.19658928748535154,0.039874102448550684,0.1397247738744464,0.041869502150939396,0.13891447066107776
1.0040490541612122,0.20361099360789395,0.03846707024581649,0.1356935801867525,0.04365939100727439,0.1348510691003178
1.0040961361863425,0.20356945018764083,0.0353524327581822,0.1287855413388881,0.04472332430889034,0.12791878382699845
1.004143218211473,0.19261735903368254,0.029597805721229515,0.11776025800915435,0.04427024585999632,0.11688900413696045
1.0041903002366033,0.1692114287165738,0.023610006484789337,0.09836742477706704,0.041190404595085585,0.09753054228101742
1.0042373822617336,0.13469585530973552,0.01702313565906408,0.07519967777083232,0.03604592401884941,0.07444148750904574
1.004284464286864,0.094068350002802,0.012078672954482726,0.051842634052145065,0.028371636205433003,0.05122755259795958
1.0043315463119944,0.0558705414627791,0.008319764261017354,0.03082107495389939,0.018644996463565006,0.030408342725796657
1.0043786283371248,0.029785725493520713,0.007087508058393024,0.019809015244991575,0.008114610384253478,0.019626031842983373
1.0044257103622551,0.022326134922130727,0.007401237613749412,0.01684685304795892,-0.001428595448861471,0.01687426156963893
1.0044727923873855,0.03362727707623793,0.008725241344554801,0.01768087969631584,-0.007305731522698975,0.017838067035629377
1.004519874412516,0.057935866130881315,0.011240300653638643,0.0238553638180855,-0.009003973354848071,0.024048900517076185
1.0045669564376463,0.08691312585069338,0.014676845369334482,0.038233159934289905,-0.006156354753099923,0.03836004805147512
1.0046140384627766,0.11302745450084833,0.018765621154042567,0.05542672474865837,0.0007318049444322173,0.05539724470516192
1.004661120487907,0.13143773576861661,0.021994511926925715,0.07126698378066398,0.008677074199664918,0.07106253734514796
1.0047082025130374,0.140315951549541,0.023566802655706914,0.0817840112464661,0.016196326797807963,0.08142131638918408
1.0047552845381678,0.14016084842095028,0.02264929777057002,0.0846685751900148,0.022164675248353926,0.08418517642317921
1.0048023665632981,0.13271042804166153,0.02075958540056778,0.08028160564993014,0.026107740539217567,0.07971907744319245
1.0048494485884285,0.1199532079956697,0.018864654209974293,0.06958311394397716,0.030579449479414406,0.06892895462435175
1.0048965306135589,0.10352759540252561,0.015854919649701187,0.05738407400153901,0.03397597651969387,0.05665728393271063
1.0049436126386893,0.08458770500586026,0.0090923723369113,0.04469505929439128,0.0349404661956643,0.04394285662803682
1.0049906946638196,0.06411017510052013,0.004206993915610978,0.03435472552873721,0.0332875028555829,0.03363231266758186
1.00503777668895,0.043500849939608656,-0.0004537368023333206,0.022887706523455283,0.030420446357495037,0.02222219320296727
1.0050848587140804,0.02497562650004661,-0.003705892440370237,0.013888116903115118,0.026777862493826805,0.0132992455786951
1.0051319407392107,0.011013597455985432,-0.003392494009492255,0.011624969459267675,0.0206306410541367,0.011169722546186945
1.0051790227643411,0.003334338693202587,-0.003327982625729271,0.009001101837417943,0.013892482195376716,0.008693472094812834
1.0052261047894715,0.0027948227754708652,-0.005554379598935488,0.005716764128480125,0.008971645386382465,0.005517789223858726
1.0052731868146019,0.010164673003053454,-0.008505357305788276,0.005314070387151807,0.004339283137583976,0.005217154391170557
1.0053202688397322,0.026566180290056158,-0.011078976005262751,0.008193549268036414,0.00013033296164764038,0.008188684099112291
1.0053673508648626,0.05291846997433676,-0.012459550416124093,0.011498759854167706,-0.001180987035490726,0.011522007296476015
1.005414432889993,0.08828034555015178,-0.009617167084995264,0.017065936640710815,-9.59293980618088e-05,0.017063903248521653
1.0054615149151234,0.12763762777320273,-0.006863248246276317,0.025647230237824777,0.002870581598170493,0.0255778730983468
1.0055085969402537,0.16155770115500132,-0.0047139755167657435,0.038076850744054896,0.009239772900784418,0.037865933157050745
1.0055556789653841,0.18078890709766565,-0.0029979787089485666,0.05135766337998839,0.017419790021127285,0.05097034084290016
1.0056027609905145,0.18307418566708303,-0.001878901857268397,0.06056084021799014,0.026364512565338113,0.05998879840377837
1.0056498430156449,0.1741533504439713,-0.0012128678662734335,0.06655908741414072,0.03237748196882795,0.06586815434537902
1.0056969250407752,0.16242605985016223,-0.0012659222392877232,0.07063087442771013,0.03641013459988315,0.06986300666847448
1.0057440070659056,0.15418810481596457,-0.0007402288019255914,0.07107575192890922,0.036545783633790185,0.0703055195955102
1.005791089091036,0.1523552110015489,-0.0003097866094617426,0.0660360559428213,0.03434508166087416,0.06530604802417743
1.0058381711161664,0.15691036178882456,0.0014194800030206752,0.06130313889977103,0.03132298152147992,0.06063113420462851
1.0058852531412967,0.16538784679386007,0.005334586283567295,0.06307528196508604,0.028273318002122152,0.06246516067047039
1.005932335166427,0.17322460684996496,0.005951774968797087,0.06323184659303546,0.02296858469199404,0.06272959193824934
1.0059794171915575,0.17475929729964576,0.004711647999854419,0.05880087400333982,0.016217895907633565,0.05843853895346442
1.0060264992166879,0.16548577922015562,0.0038479670350167216,0.05204155960234529,0.00976943497790448,0.05181687154660324
1.0060735812418182,0.1445721481217929,0.0022681527305696675,0.04234591607178599,0.004418799953737745,0.04223888215052405
1.0061206632669486,0.11538472372115638,0.0005749027210006466,0.03266210113426135,-0.00035442597993824677,0.03266197341744181
1.006167745292079,0.08342022676517998,-0.002181150202478248,0.0259645785337829,-0.004073895889845567,0.026048221118427615
1.0062148273172093,0.053714935068683495,-0.002941792615145745,0.01794830890199036,-0.006387128069036741,0.018085077439055384
1.0062619093423397,0.029620632829972474,-0.0031964809189955687,0.006428025048282717,-0.007344776834448234,0.0065885754170974245
1.00630899136747,0.012907514843990737,-0.0019032698520917977,-0.004503164505502606,-0.005136096413849457,-0.004388884781396595
1.0063560733926005,0.004292560353454192,-0.0007683569061330299,-0.010519166817943732,-0.0017300929572776863,-0.010478484799816293
1.0064031554177308,0.0038095921685766332,0.0011592133250238974,-0.007972360122875525,0.0019236974267581779,-0.00801284860971283
1.0064502374428612,0.010924293923755681,0.00537897506013185,0.0013341291502741227,0.008826312777801455,0.001139237517093878
1.0064973194679916,0.02453035587728399,0.00813943825674921,0.011333716656649779,0.016162741153253744,0.010976088098803813
1.006544401493122,0.042966387475684646,0.009718030449246398,0.020787738978896356,0.02304089579876793,0.020280359666280626
1.0065914835182523,0.06411092062196938,0.009068368055292248,0.03329944681240632,0.02669237111650004,0.03271542318986722
1.0066385655433827,0.08556714248621351,0.008283825288448728,0.049462130528264495,0.02733069964798347,0.04886791179720708
1.006685647568513,0.10493697207975199,0.008822393824300952,0.06485229624100503,0.02550533763741802,0.064298569667813
1.0067327295936435,0.12014720761669652,0.009091107293153232,0.07640706666955516,0.02198130890234686,0.07592638091160725
1.0067798116187738,0.12974860817624662,0.008296718907251616,0.08294186479002422,0.01884460981168999,0.08252514470635657
1.0068268936439042,0.1331160769266914,0.010004224222474415,0.08436945777741765,0.014574514792581646,0.08404001166484386
1.0068739756690346,0.13051634907150206,0.009838804976070366,0.08386978816652868,0.011504373742370087,0.08360403749049437
1.006921057694165,0.12301693370584733,0.006940193935373049,0.08185258015702256,0.008184233090292483,0.0816568815953722
1.0069681397192953,0.11219272060745543,0.002679514152393905,0.07585112215539112,0.003980436573372894,0.07574637473126906
1.0070152217444257,0.09964098937742749,-0.0011786231010823167,0.06985230351433948,0.000407868643025873,0.06982648285793995
1.007062303769556,0.08648287672211809,-0.004285683054640207,0.06302251331950957,-0.0029797355454633592,0.06307284078962742
1.0071093857946865,0.07315337862299943,-0.005931922630716232,0.053521194673379444,-0.005527357445405169,0.05363038621229719
1.0071564678198168,0.05967551136841471,-0.006852988441201752,0.042771215350936226,-0.007096756012045025,0.042917961439501065
1.0072035498449472,0.046352747241279996,-0.008316979988986908,0.029687677967592516,-0.008256996298796388,0.029863301270052302
1.0072506318700776,0.03458526276589038,-0.008925027322568965,0.01916866027493343,-0.008739958650987216,0.019357341808016147
1.007297713895208,0.02727830692374265,-0.009158367371976376,0.01473006896934623,-0.009281432200448808,0.01493171131137973
1.0073447959203383,0.0280866607277734,-0.008349760317552845,0.01711698325886342,-0.008611121109216122,0.017303247518502943
1.0073918779454687,0.03925806445151868,-0.0054087955485141465,0.028584290137595406,-0.006629071735948697,0.028723962318621083
1.007438959970599,0.059562255279517966,-0.0016697986379583922,0.043832242766228824,-0.004529611307720766,0.04392164244062957
1.0074860419957294,0.08449757331606145,0.0016383397036886789,0.058037587268334905,-0.0031843339205453866,0.058093675709301046
1.0075331240208598,0.10858230355013457,0.00365876872407625,0.06858033205585247,-0.001156435929529176,0.06858910218183671
1.0075802060459902,0.12742598805780986,0.005809625400754002,0.07621925524513734,0.0009793358692399168,0.0761794637524367
1.0076272880711206,0.13840784538629322,0.006710889448220716,0.07904744927672683,0.0024465387060311553,0.0789751472090079
1.007674370096251,0.14057521646913557,0.0060318334938367765,0.0769603579802706,0.004751112220430029,0.07683879095447922
