freq,gls,usurper,pdc_unbiased,shape_periodogram,shift_periodogram
1.0,0.02176245538732735,0.013277418769494263,-0.007335655112181927,0.007148902809335886,-0.007477295576143913
1.0000470820251304,0.05134779247241603,0.017441839970702068,0.016081221596065367,0.007202980590083936,0.01593446825603042
1.0000941640502607,0.09689124580742478,0.022914500434557512,0.05094334186944231,0.010784457530260777,0.05072135021865812
1.0001412460753911,0.14848755125694818,0.02720257142104987,0.08456655871201842,0.018471655713596807,0.08419867424567273
1.0001883281005215,0.19664060203551523,0.03241050679489122,0.10917973127593883,0.03022392278844822,0.10861364927922822
1.0002354101256519,0.23592916525893703,0.03812792217091387,0.12678225514793529,0.040963124708012916,0.12606201465159303
1.0002824921507822,0.26363730657080775,0.043051997072193204,0.13936052532630389,0.04784353332616696,0.13855984723575662
1.0003295741759126,0.2780607972143743,0.046131545730631586,0.14663287491158739,0.05122498224378745,0.14580003301021208
1.000376656201043,0.27778293516045677,0.04655337283831503,0.14742341655727248,0.05365841817177889,0.14656294875450843
1.0004237382261734,0.2619162710265795,0.044675758640352885,0.139633635428265,0.054037238460488884,0.13875594237486924
1.0004708202513037,0.23107843684954268,0.04069371688826091,0.12167319492364326,0.05195273465583671,0.12079408106723453
1.0005179022764341,0.1884924826566669,0.035356985914905034,0.09811663264576473,0.048528361315479177,0.09725432548234685
1.0005649843015645,0.1401213853463462,0.0312758185223231,0.07552593926328457,0.04489648486480458,0.07469579493270503
1.0006120663266949,0.09311329616242185,0.028604263356524218,0.056936636782797936,0.04034941641972935,0.05616805176569904
1.0006591483518252,0.05338098213176131,0.028450576517917225,0.04656239048066332,0.03455908210789362,0.045891734776867886
1.0007062303769556,0.024158292773911582,0.02818092906474302,0.0379052596807291,0.02718077976694456,0.03736921246583677
1.000753312402086,0.006389706849983347,0.02873081320218842,0.024925530867037873,0.01914840405318823,0.024542567954717716
1.0008003944272164,4.4957735270936574e-05,0.029375984501818945,0.013623927240606612,0.01235875188406113,0.01337520613476329
1.0008474764523467,0.004476680458159687,0.02882946929876834,0.005279248516488982,0.010346055832392016,0.005071625398849255
1.000894558477477,0.016631009383087918,0.03324039490285832,0.00604487589630294,0.012991949525094769,0.005784422731992838
1.0009416405026075,0.030279800796216314,0.040707966420187855,0.01614856324889533,0.019574695483798598,0.01575714906522448
1.0009887225277379,0.04019506929021177,0.049353814156282566,0.031662352407458065,0.03130406064882257,0.031046294084248662
1.0010358045528682,0.045271217739530065,0.055420988100342704,0.049643587368788454,0.04582331764581538,0.04877197987268296
1.0010828865779986,0.04665854735345898,0.06132798465827132,0.06394396252727896,0.05917122621705787,0.062865057221827
1.001129968603129,0.04557434040645729,0.06562200207144402,0.06951556918541625,0.06948775246793527,0.06828663109065727
1.0011770506282593,0.04281463251624272,0.06704429543137819,0.06676401531502141,0.07455537537509734,0.0654512659804563
1.0012241326533897,0.03911406922799136,0.06485809291581984,0.05756222886158259,0.07428998880950477,0.05622755987571817
1.00127121467852,0.035734840091298535,0.05996713348831314,0.04469056838221148,0.07089896805355611,0.04337724156105136
1.0013182967036505,0.034632288517627896,0.055107473928578184,0.03354469161607427,0.06728431877485948,0.03226801336796305
1.0013653787287808,0.03686446430802818,0.050930683582871235,0.03235087082016887,0.06482469252445647,0.03111571413143032
1.0014124607539112,0.040499198873267514,0.04955521719909459,0.04235422606047071,0.06444935609849953,0.0411460051316971
1.0014595427790416,0.04245011553894062,0.050636399429757166,0.05148956578485458,0.06645609667157763,0.0502666369224579
1.001506624804172,0.04142424671447975,0.05145357943247703,0.057489670337512934,0.06513519117146045,0.056301461016675484
1.0015537068293023,0.03772147907862947,0.05237477062874715,0.05838903434484734,0.059288405796884804,0.05729845284955821
1.0016007888544327,0.032149333674356434,0.04990634164803916,0.05286952532393206,0.049899305222876555,0.05192997316151243
1.001647870879563,0.025799799790141527,0.04372412706656554,0.040386054375886556,0.03689487657758187,0.03966909629182844
1.0016949529046935,0.020580986012262138,0.034904770468817764,0.02276083148008517,0.023208572001377607,0.022298634082561997
1.0017420349298238,0.01993155776046648,0.030761366215919697,0.008396000375120035,0.013356732588471865,0.008128034814486668
1.0017891169549542,0.027489951613850306,0.029927646084620382,0.00883020356959996,0.011581488602562568,0.008597494107550755
1.0018361989800846,0.042074300128446054,0.02956180334781609,0.022145335055818467,0.015453503105262077,0.021834780587593118
1.001883281005215,0.05845891480384451,0.03452778492349994,0.04104344236602053,0.023718224331012176,0.040573635102835404
1.0019303630303453,0.07582159493280267,0.03931301125982961,0.05832937685591873,0.03431111237802238,0.05766907749704551
1.0019774450554757,0.09824195100672209,0.041326790380411794,0.07041397317164165,0.047357980057875095,0.06953772807508525
1.002024527080606,0.1303669711588208,0.03776615070005382,0.07896421651578898,0.05570682802476481,0.07796537539036577
1.0020716091057364,0.17464242099810953,0.03329534980020787,0.08832693698111686,0.06087127973350654,0.08726703948010908
1.0021186911308668,0.22917237164395338,0.03327170650896572,0.11355266104308831,0.06476272878302188,0.11249331610821159
1.0021657731559972,0.2864808872447173,0.03660675833809906,0.14880372324738836,0.06932392038912548,0.14778179991963
1.0022128551811276,0.335488571803669,0.04012908550539069,0.17945522269565434,0.0737742780522807,0.17848659382598908
1.002259937206258,0.3667004160945303,0.042021024405018106,0.20044309409803335,0.0765843035203881,0.199526915366959
1.0023070192313883,0.37630521047742305,0.04205193527386325,0.20989430295355302,0.07721579845726552,0.20900746179217725
1.0023541012565187,0.3658732131217113,0.04072744488302529,0.20800353236518512,0.07594443154496437,0.20711476133183346
1.002401183281649,0.3393357840705059,0.03952429573727926,0.19716291122807472,0.0734648851482611,0.19625040597159288
1.0024482653067794,0.30043566038503033,0.03873320599767216,0.1783931936762516,0.06651080207870953,0.17747206771019758
1.0024953473319098,0.25183659939415354,0.03675477798613242,0.15384153094853617,0.053821813723492394,0.15298973053789192
1.0025424293570402,0.1956066522565673,0.03154405439793903,0.12081929242955049,0.037712863992347245,0.12014208343512503
1.0025895113821706,0.13475970805500284,0.026673555930977585,0.07564140824241966,0.018128061737191756,0.07527933357830048
1.002636593407301,0.07582916802294695,0.024237623798429538,0.025728531183742454,0.0020639812653802593,0.025682222593857232
1.0026836754324313,0.03145358980808763,0.020810374584032513,-0.0040036080406334615,0.0015553496234248854,-0.00403390789960724
1.0027307574575617,0.01779891286180085,0.020330300264376076,-0.006351274616742859,0.01695878773862854,-0.006690001007424295
1.002777839482692,0.04358985242398123,0.022736970956471633,0.006591376950054447,0.037304048621791104,0.005848357159831333
1.0028249215078224,0.1037077589167159,0.034179879274270485,0.04281328660270074,0.05329360823971269,0.04180140691728702
1.0028720035329528,0.18101238562213362,0.04838591502789202,0.0979436666785688,0.06280733051386474,0.09687584391743094
1.0029190855580832,0.25636899888384335,0.059664763925072015,0.15380629462607742,0.0657542869940855,0.15283068312759207
1.0029661675832136,0.31832235074100634,0.06545525326781727,0.19704252226634572,0.06705891395495714,0.19616539087147658
1.003013249608344,0.36361141655314383,0.06941749484753469,0.228525784613192,0.06761433539738587,0.22772879564106108
1.0030603316334743,0.39341420767750745,0.07011516752799322,0.24979870354304085,0.06508042609051669,0.24906536347860384
1.0031074136586047,0.4102870696014962,0.06849741731722093,0.26258314989231946,0.062307663080415125,0.2618886339930456
1.003154495683735,0.41662904201390033,0.06591433792242271,0.266777273312063,0.05881741705288483,0.2661027129481972
1.0032015777088654,0.41405085665469693,0.062286831059117205,0.26326150551395927,0.05427036405454056,0.26259825286320126
1.0032486597339958,0.4030953535584088,0.05756415160322968,0.251751202986526,0.04862009387668558,0.2511008730597585
1.0032957417591262,0.38301151602067063,0.05173670215501394,0.2324239377319079,0.04189148099366358,0.23180171902676475
1.0033428237842565,0.3514583105172215,0.04459113394881902,0.2047530276495091,0.034061362641631884,0.20418860338072575
1.003389905809387,0.3042863356687068,0.035836014259147654,0.16911475512504195,0.02549148132709332,0.16864715247335182
1.0034369878345173,0.2364892670841809,0.0261484294225171,0.12615890065588273,0.016491277738194452,0.1258290347595071
1.0034840698596477,0.14805992805189566,0.016764257038343052,0.07745804013496241,0.007457413201372839,0.07729702875245753
1.003531151884778,0.05937981673678241,0.011153882177991068,0.035632586371168055,0.0007909191033909986,0.03560970167538029
1.0035782339099084,0.016571701488668728,0.011811784466160508,0.012038086514572617,-0.0006211052227440878,0.012048098032776459
1.0036253159350388,0.04141534161646615,0.02110712538422117,0.014399178728297872,0.0067613161427183726,0.014261490461081184
1.0036723979601692,0.0978579156313711,0.03638905311581459,0.03595348541122598,0.021255703102010547,0.03553017603959245
1.0037194799852995,0.14599333246590304,0.0555941312235602,0.06503465797160808,0.035297665898682155,0.06436037441680818
1.00376656201043,0.17300879075255565,0.06995572871014552,0.0922030709843016,0.04721852744676754,0.09135369861010766
1.0038136440355603,0.18229222765708752,0.07932969992515253,0.11374971918924169,0.05425140795694923,0.11282746343344144
1.0038607260606907,0.18262972424027749,0.08310694704810193,0.12736778710133306,0.058384812891597984,0.12641569515695966
1.003907808085821,0.18292620727983336,0.08535214043032038,0.13485525602086357,0.06200950837998489,0.13387542521564919
1.0039548901109514,0.18798821740501145,0.08718435099121823,0.13913083302593265,0.06539596318225424,0.13812357439428025
1.0040019721360818,0.19658928748535154,0.08571837795497081,0.1397247738744464,0.06694329999842318,0.13870280192943577
1.0040490541612122,0.20361099360789395,0.08030256267258822,0.1356935801867525,0.0678734573660818,0.13465180558146694
1.0040961361863425,0.20356945018764083,0.07200796213261007,0.1287855413388881,0.0656292511942063,0.12775122326977395
1.004143218211473,0.19261735903368254,0.06356191201085447,0.11776025800915435,0.06350547451715394,0.11672583188688537
1.0041903002366033,0.1692114287165738,0.05299976215529801,0.09836742477706704,0.05776799616167634,0.09737059491311048
1.0042373822617336,0.13469585530973552,0.0412813054024399,0.07519967777083232,0.04781262508130084,0.07432134212637662
1.004284464286864,0.094068350002802,0.02921498177412437,0.051842634052145065,0.03672200044535025,0.05113543522942064
1.0043315463119944,0.0558705414627791,0.018386519344354108,0.03082107495389939,0.024532829055125497,0.030334246750165012
1.0043786283371248,0.029785725493520713,0.011744883411324632,0.019809015244991575,0.012959485691790335,0.01954775106658481
1.0044257103622551,0.022326134922130727,0.008457457423230707,0.01684685304795892,0.0039542884582069605,0.0167645934991751
1.0044727923873855,0.03362727707623793,0.008704596569967768,0.01768087969631584,-0.0005025163562889466,0.01768739106250923
1.004519874412516,0.057935866130881315,0.011980411593970768,0.0238553638180855,-0.00036277095451680105,0.023857846590725443
1.0045669564376463,0.08691312585069338,0.017707081657796362,0.038233159934289905,0.005472268802157059,0.038116931514197976
1.0046140384627766,0.11302745450084833,0.02429966046162621,0.05542672474865837,0.01696595833063174,0.05508593780346327
1.004661120487907,0.13143773576861661,0.030953480332097112,0.07126698378066398,0.030462330958914558,0.07068101220108339
1.0047082025130374,0.140315951549541,0.03686702622031412,0.0817840112464661,0.043671373734057814,0.08098005912630923
1.0047552845381678,0.14016084842095028,0.03804046145015699,0.0846685751900148,0.05461652086244992,0.08369544815788514
1.0048023665632981,0.13271042804166153,0.036610917362383984,0.08028160564993014,0.06241064418856847,0.07918314539714569
1.0048494485884285,0.1199532079956697,0.03296071236638751,0.06958311394397716,0.06767100982381974,0.06838197767293196
1.0048965306135589,0.10352759540252561,0.030856204999204766,0.05738407400153901,0.07034518245906317,0.05611157677758843
1.0049436126386893,0.08458770500586026,0.02754188444063354,0.04469505929439128,0.06822889280778634,0.043427018847008274
1.0049906946638196,0.06411017510052013,0.0249424167118167,0.03435472552873721,0.06247019495744821,0.033165744019067356
1.00503777668895,0.043500849939608656,0.021144265415019008,0.022887706523455283,0.055570164097101214,0.021806636148682737
1.0050848587140804,0.02497562650004661,0.01657085606313254,0.013888116903115118,0.04781260271882762,0.012944488481934833
1.0051319407392107,0.011013597455985432,0.011781664401983626,0.011624969459267675,0.03899229201332674,0.01085147615577688
1.0051790227643411,0.003334338693202587,0.009257099866169828,0.009001101837417943,0.027451463238651323,0.008453716779066981
1.0052261047894715,0.0027948227754708652,0.005990746709962294,0.005716764128480125,0.014840397365379397,0.005419529495267734
1.0052731868146019,0.010164673003053454,0.004953049733634608,0.005314070387151807,0.004960705311515739,0.005213897626468574
1.0053202688397322,0.026566180290056158,0.006168993343082943,0.008193549268036414,-0.001107231506573235,0.008214051239364062
1.0053673508648626,0.05291846997433676,0.008424438873961885,0.011498759854167706,-0.004261547569289726,0.011581750650772233
1.005414432889993,0.08828034555015178,0.009430836241026785,0.017065936640710815,-0.004198755629033439,0.017146586103216867
1.0054615149151234,0.12763762777320273,0.011553863295453425,0.025647230237824777,-0.0006411000605754359,0.02565491736438595
1.0055085969402537,0.16155770115500132,0.014082945389943743,0.038076850744054896,0.007418378144160503,0.037922299181055205
1.0055556789653841,0.18078890709766565,0.017439959498457107,0.05135766337998839,0.017645077181810784,0.0510039535825441
1.0056027609905145,0.18307418566708303,0.01856002918113866,0.06056084021799014,0.028234041077643466,0.06001121006747553
1.0056498430156449,0.1741533504439713,0.02058379256417597,0.06655908741414072,0.037768406629775056,0.06584247046511502
1.0056969250407752,0.16242605985016223,0.020805078949255245,0.07063087442771013,0.045950281911510876,0.06977826940470562
1.0057440070659056,0.15418810481596457,0.019001029922929655,0.07107575192890922,0.05086619260930227,0.07014259442077539
1.005791089091036,0.1523552110015489,0.015270942680948819,0.0660360559428213,0.052384515249100615,0.06507129524425564
1.0058381711161664,0.15691036178882456,0.013576901705730225,0.06130313889977103,0.052040633774895075,0.06033770994476371
1.0058852531412967,0.16538784679386007,0.013067520193250857,0.06307528196508604,0.04959440722097598,0.06215319409463366
1.005932335166427,0.17322460684996496,0.011673432600953436,0.06323184659303546,0.04498630194441768,0.062388078497898784
1.0059794171915575,0.17475929729964576,0.008408284184402516,0.05880087400333982,0.03809642636406483,0.05807341345019042
1.0060264992166879,0.16548577922015562,0.005122101365508375,0.05204155960234529,0.03169716950767387,0.051425780248996716
1.0060735812418182,0.1445721481217929,0.002618951832244892,0.04234591607178599,0.024630767805232934,0.04185901191217716
1.0061206632669486,0.11538472372115638,0.00010133367906411185,0.03266210113426135,0.018061964867866598,0.03230030334846376
1.006167745292079,0.08342022676517998,-0.00041752836366883546,0.0259645785337829,0.012505962550974853,0.025711621451303946
1.0062148273172093,0.053714935068683495,0.0013243778398928621,0.01794830890199036,0.009095773678467383,0.017763693216963014
1.0062619093423397,0.029620632829972474,0.004344679617476532,0.006428025048282717,0.008213029615664613,0.006262759113209639
1.00630899136747,0.012907514843990737,0.007856185973254664,-0.004503164505502606,0.008436539280748072,-0.004671096257545759
1.0063560733926005,0.004292560353454192,0.012895423420435651,-0.010519166817943732,0.01006655581699782,-0.010718833187134454
1.0064031554177308,0.0038095921685766332,0.018304535391150085,-0.007972360122875525,0.011902839627245325,-0.00820929719376791
1.0064502374428612,0.010924293923755681,0.025978400417013818,0.0013341291502741227,0.016418050562005394,0.0010057542406163979
1.0064973194679916,0.02453035587728399,0.033936552259261475,0.011333716656649779,0.023091113031972987,0.010872777277371216
1.006544401493122,0.042966387475684646,0.04030658986083539,0.020787738978896356,0.02926901560726101,0.020207435656908787
1.0065914835182523,0.06411092062196938,0.04521101965531597,0.03329944681240632,0.034745436926165954,0.032618941525257385
1.0066385655433827,0.08556714248621351,0.050664727372429046,0.049462130528264495,0.03933899618507638,0.04870621859041646
1.006685647568513,0.10493697207975199,0.05270112797774863,0.06485229624100503,0.04260112118534596,0.06405087365301129
1.0067327295936435,0.12014720761669652,0.05227654806853723,0.07640706666955516,0.043695145644272446,0.07559763111370672
1.0067798116187738,0.12974860817624662,0.048247281281934694,0.08294186479002422,0.04243424384877869,0.08215916982463468
1.0068268936439042,0.1331160769266914,0.044033482840432195,0.08436945777741765,0.03873750066971673,0.08364876196091482
1.0068739756690346,0.13051634907150206,0.03886956665745743,0.08386978816652868,0.03455450110192433,0.08321886524567255
1.006921057694165,0.12301693370584733,0.03253030707133981,0.08185258015702256,0.027739714566656113,0.08131834275081494
1.0069681397192953,0.11219272060745543,0.024811230120325236,0.07585112215539112,0.019987743531796043,0.07545484799721264
1.0070152217444257,0.09964098937742749,0.016503522161019343,0.06985230351433948,0.012928338242904486,0.06958760405705135
1.007062303769556,0.08648287672211809,0.010064213779286811,0.06302251331950957,0.00779291611283713,0.0628569893040938
1.0071093857946865,0.07315337862299943,0.005146226187735794,0.053521194673379444,0.00451373245047666,0.05342121429908099
1.0071564678198168,0.05967551136841471,0.00018905783265082875,0.042771215350936226,0.0016376214839735447,0.04273008804136328
1.0072035498449472,0.046352747241279996,-0.002849162504940124,0.029687677967592516,0.0011094405166867769,0.02965961586580494
1.0072506318700776,0.03458526276589038,-0.004314964680178231,0.01916866027493343,0.0024604070576377765,0.019115724476574857
1.007297713895208,0.02727830692374265,-0.003744211824512984,0.01473006896934623,0.00345915517996517,0.014658076909606093
1.0073447959203383,0.0280866607277734,-0.0018372624235848641,0.01711698325886342,0.005670496442532094,0.01700051598549492
1.0073918779454687,0.03925806445151868,0.0034015629610466,0.028584290137595406,0.010736970088148688,0.02836581297138253
1.007438959970599,0.059562255279517966,0.010652444838496247,0.043832242766228824,0.016737796415922275,0.04349589925757463
1.0074860419957294,0.08449757331606145,0.016806064434141833,0.058037587268334905,0.024244034877552143,0.057560605727304065
1.0075331240208598,0.10858230355013457,0.02184066743008601,0.06858033205585247,0.029993458954457642,0.06800167273418364
1.0075802060459902,0.12742598805780986,0.02476092204588896,0.07621925524513734,0.0335941061628273,0.07558067392861269
1.0076272880711206,0.13840784538629322,0.02643415664460162,0.07904744927672683,0.035682829043566726,0.07837456419806779
1.007674370096251,0.14057521646913557,0.025623983831724022,0.0769603579802706,0.036246281151674636,0.07627659536589351
1.0077214521213813,0.1345761316442056,0.022565491758112195,0.07084930100861353,0.03494574834253184,0.07018440150496576
