freq,gls,usurper,pdc_unbiased,shape_periodogram,shift_periodogram
1.0,0.02176245538732735,0.038658702776435544,-0.007335655112181927,0.014762306090534744,-0.00875010819192852
1.0000470820251304,0.05134779247241603,0.06912217624230331,0.016081221596065367,0.03857627163846413,0.01222717997342081
1.0000941640502607,0.09689124580742478,0.10007019531119962,0.05094334186944231,0.07059295105344063,0.04390110950114609
1.0001412460753911,0.14848755125694818,0.13108115862124334,0.08456655871201842,0.10079736390272583,0.07473856119564673
1.0001883281005215,0.19664060203551523,0.1558998525353065,0.10917973127593883,0.12656244692523408,0.09720541552080428
1.0002354101256519,0.23592916525893703,0.1713512179543962,0.12678225514793529,0.14478740856038347,0.11345007481235247
1.0002824921507822,0.26363730657080775,0.179674241095679,0.13936052532630389,0.1553583655723842,0.12534188063019627
1.0003295741759126,0.2780607972143743,0.18374806315876815,0.14663287491158739,0.16103388832042606,0.13228118827863364
1.000376656201043,0.27778293516045677,0.1843427249150079,0.14742341655727248,0.16240082259459981,0.13298051320672316
1.0004237382261734,0.2619162710265795,0.17895048821051748,0.139633635428265,0.15946819605957438,0.12530158835237723
1.0004708202513037,0.23107843684954268,0.16623232949433175,0.12167319492364326,0.15130027149191608,0.10775703507356955
1.0005179022764341,0.1884924826566669,0.14959499892744624,0.09811663264576473,0.14024286027763336,0.08488447360658043
1.0005649843015645,0.1401213853463462,0.13760700907651174,0.07552593926328457,0.13217075454495705,0.06283055773605924
1.0006120663266949,0.09311329616242185,0.13186437452622862,0.056936636782797936,0.12737906842234278,0.0445693235601637
1.0006591483518252,0.05338098213176131,0.1336763906998587,0.04656239048066332,0.12471808695843646,0.03439387869835042
1.0007062303769556,0.024158292773911582,0.13631556772760087,0.0379052596807291,0.12148564329267997,0.026008232539825663
1.000753312402086,0.006389706849983347,0.133965032504361,0.024925530867037873,0.11461363574609192,0.013651114478040604
1.0008003944272164,4.4957735270936574e-05,0.13265143930544335,0.013623927240606612,0.10682881122952945,0.0030907732637264866
1.0008474764523467,0.004476680458159687,0.1307637051961453,0.005279248516488982,0.10556869037719027,-0.005137411182823894
1.000894558477477,0.016631009383087918,0.1369173193524891,0.00604487589630294,0.11244129467658791,-0.005053400073334758
1.0009416405026075,0.030279800796216314,0.15468313803790526,0.01614856324889533,0.12800658610447374,0.003536649508868537
1.0009887225277379,0.04019506929021177,0.18031645057714463,0.031662352407458065,0.15122683781686017,0.0168725354396366
1.0010358045528682,0.045271217739530065,0.2058817414265227,0.049643587368788454,0.1767975653866441,0.0326070014881244
1.0010828865779986,0.04665854735345898,0.22094430416447827,0.06394396252727896,0.19957407451446801,0.04503670123871128
1.001129968603129,0.04557434040645729,0.22637762549783416,0.06951556918541625,0.21398964948555352,0.049428314841840196
1.0011770506282593,0.04281463251624272,0.21968498978906767,0.06676401531502141,0.21807522026065862,0.04624872198095164
1.0012241326533897,0.03911406922799136,0.20496610545916882,0.05756222886158259,0.2139706545117134,0.037212721383562554
1.00127121467852,0.035734840091298535,0.186509996280404,0.04469056838221148,0.20453695798776955,0.024962034522379575
1.0013182967036505,0.034632288517627896,0.1725128231528526,0.03354469161607427,0.19777902187374063,0.014267966206455708
1.0013653787287808,0.03686446430802818,0.17482189709923188,0.03235087082016887,0.1986725237990297,0.012967272761023059
1.0014124607539112,0.040499198873267514,0.18939492133546001,0.04235422606047071,0.20697029313383464,0.022349859070156557
1.0014595427790416,0.04245011553894062,0.20565507095381108,0.05148956578485458,0.21707445073277215,0.03071933127897249
1.001506624804172,0.04142424671447975,0.21612039623460277,0.057489670337512934,0.22106051509598343,0.03648653017689551
1.0015537068293023,0.03772147907862947,0.21632815151633178,0.05838903434484734,0.21615671370680065,0.03785694239899695
1.0016007888544327,0.032149333674356434,0.20726683973916007,0.05286952532393206,0.20025379981220195,0.03369478745826193
1.001647870879563,0.025799799790141527,0.18860775602940347,0.040386054375886556,0.17471891601929454,0.023427487079427472
1.0016949529046935,0.020580986012262138,0.1626938370516178,0.02276083148008517,0.14431800795121985,0.008580069501861382
1.0017420349298238,0.01993155776046648,0.14078337100049565,0.008396000375120035,0.11946930239134361,-0.003395630644567985
1.0017891169549542,0.027489951613850306,0.1321047921931892,0.00883020356959996,0.1099544553868263,-0.0020174290822068683
1.0018361989800846,0.042074300128446054,0.13326952512760365,0.022145335055818467,0.11432760755829914,0.010892200468287995
1.001883281005215,0.05845891480384451,0.14305111640927884,0.04104344236602053,0.1275363614914608,0.02858255908070088
1.0019303630303453,0.07582159493280267,0.15620948938944287,0.05832937685591873,0.14064326735313032,0.04474148861392228
1.0019774450554757,0.09824195100672209,0.1637525942902689,0.07041397317164165,0.14780858310957803,0.05626918195821089
1.002024527080606,0.1303669711588208,0.1571730532175743,0.07896421651578898,0.1458055280613255,0.06507547468418798
1.0020716091057364,0.17464242099810953,0.1444044718754925,0.08832693698111686,0.1399499644981627,0.07503623687176485
1.0021186911308668,0.22917237164395338,0.14731356252879027,0.11355266104308831,0.14063732189496053,0.10042792134258251
1.0021657731559972,0.2864808872447173,0.1621449558433269,0.14880372324738836,0.14836643096059363,0.13544200126768116
1.0022128551811276,0.335488571803669,0.17770473942268447,0.17945522269565434,0.15709308132010696,0.16587370333599233
1.002259937206258,0.3667004160945303,0.18763221253563062,0.20044309409803335,0.16170932699832755,0.18688602049835495
1.0023070192313883,0.37630521047742305,0.19019261072975904,0.20989430295355302,0.16058551680220506,0.1965671977511848
1.0023541012565187,0.3658732131217113,0.18544071752027358,0.20800353236518512,0.153980387577352,0.1950644674413772
1.002401183281649,0.3393357840705059,0.1743375173960479,0.19716291122807472,0.1424520935838534,0.18483375133240276
1.0024482653067794,0.30043566038503033,0.1585570672087481,0.1783931936762516,0.12636740898548043,0.1670008313286931
1.0024953473319098,0.25183659939415354,0.13876214794625452,0.15384153094853617,0.10552277075060396,0.14388385675594395
1.0025424293570402,0.1956066522565673,0.11272582297401078,0.12081929242955049,0.08126691413424182,0.11279695968346778
1.0025895113821706,0.13475970805500284,0.0774836314272075,0.07564140824241966,0.05242536036553848,0.07026906929494858
1.002636593407301,0.07582916802294695,0.04130887164153525,0.025728531183742454,0.026409925460070396,0.023022295077807186
1.0026836754324313,0.03145358980808763,0.026177326446064214,-0.0040036080406334615,0.0136814769706582,-0.005327698766034783
1.0027307574575617,0.01779891286180085,0.03468589190691275,-0.006351274616742859,0.02054178125931358,-0.008338575643078355
1.002777839482692,0.04358985242398123,0.04518492375498805,0.006591376950054447,0.040742249327996236,0.002562557406532909
1.0028249215078224,0.1037077589167159,0.06599582788625459,0.04281328660270074,0.067190968440644,0.03610827089321043
1.0028720035329528,0.18101238562213362,0.1018267891342639,0.0979436666785688,0.09908431407847551,0.0883054076070219
1.0029190855580832,0.25636899888384335,0.14201905599976186,0.15380629462607742,0.12672544789632637,0.14216650053098956
1.0029661675832136,0.31832235074100634,0.17698268242067025,0.19704252226634572,0.14082252665118458,0.18482316908822713
1.003013249608344,0.36361141655314383,0.19651067312273168,0.228525784613192,0.1492605218757083,0.21619605508925718
1.0030603316334743,0.39341420767750745,0.20859562253365024,0.24979870354304085,0.15440874296430127,0.237510361354988
1.0031074136586047,0.4102870696014962,0.21403664039559472,0.26258314989231946,0.15560675034009466,0.25045030203772495
1.003154495683735,0.41662904201390033,0.2148036640709247,0.266777273312063,0.1539236709956424,0.25480598912870667
1.0032015777088654,0.41405085665469693,0.21126959521194408,0.26326150551395927,0.14904514486698794,0.25149059843252086
1.0032486597339958,0.4030953535584088,0.20335308072700584,0.251751202986526,0.1407858317813565,0.2402682802140549
1.0032957417591262,0.38301151602067063,0.19088341065673345,0.2324239377319079,0.129176185331662,0.2214019659976858
1.0033428237842565,0.3514583105172215,0.1732879611456995,0.2047530276495091,0.11394633475930398,0.1944946824047272
1.003389905809387,0.3042863356687068,0.15032026854868458,0.16911475512504195,0.09548577303696348,0.16003589372875396
1.0034369878345173,0.2364892670841809,0.12269854605062022,0.12615890065588273,0.07441126733269769,0.11874213113273022
1.0034840698596477,0.14805992805189566,0.09219890584704749,0.07745804013496241,0.052963933334250375,0.07203109869371865
1.003531151884778,0.05937981673678241,0.0699269364221555,0.035632586371168055,0.0389173663530148,0.031671027877969986
1.0035782339099084,0.016571701488668728,0.06688602289357115,0.012038086514572617,0.04086650984266955,0.007975781317955111
1.0036253159350388,0.04141534161646615,0.0898441023783048,0.014399178728297872,0.0643553213027909,0.008030411455216525
1.0036723979601692,0.0978579156313711,0.12779351790046475,0.03595348541122598,0.10094428295552482,0.026018469517631634
1.0037194799852995,0.14599333246590304,0.17086713029716444,0.06503465797160808,0.14377243618657687,0.05121067507537402
1.00376656201043,0.17300879075255565,0.20739938675292738,0.0922030709843016,0.1827029177629154,0.07527268188137733
1.0038136440355603,0.18229222765708752,0.23473749560138177,0.11374971918924169,0.21122779206317918,0.09492680172089459
1.0038607260606907,0.18262972424027749,0.2515589692934269,0.12736778710133306,0.23252830178605008,0.10730374721771209
1.003907808085821,0.18292620727983336,0.2591176386750921,0.13485525602086357,0.24710568835212418,0.11399575843646645
1.0039548901109514,0.18798821740501145,0.2618246560652568,0.13913083302593265,0.25247736421647415,0.11805591385165172
1.0040019721360818,0.19658928748535154,0.2592185417115406,0.1397247738744464,0.2506622725215771,0.11879500481890906
1.0040490541612122,0.20361099360789395,0.2537843992154904,0.1356935801867525,0.24231867156494766,0.11519719318174108
1.0040961361863425,0.20356945018764083,0.24233494504717507,0.1287855413388881,0.22887722095833868,0.10903095886679516
1.004143218211473,0.19261735903368254,0.22155385708802838,0.11776025800915435,0.20923080736041225,0.09918937536438362
1.0041903002366033,0.1692114287165738,0.19291682370204652,0.09836742477706704,0.183646952219176,0.08146116294496002
1.0042373822617336,0.13469585530973552,0.16003423398709563,0.07519967777083232,0.1544216384603538,0.06050707005372059
1.004284464286864,0.094068350002802,0.12922182150202963,0.051842634052145065,0.12419153392643212,0.03974765270968017
1.0043315463119944,0.0558705414627791,0.10282785539230375,0.03082107495389939,0.09560884675697445,0.021395002026124037
1.0043786283371248,0.029785725493520713,0.08633048660517884,0.019809015244991575,0.07397167531669628,0.012489423147099964
1.0044257103622551,0.022326134922130727,0.07964152826128917,0.01684685304795892,0.060736339627308206,0.010825361288949925
1.0044727923873855,0.03362727707623793,0.08125558491603782,0.01768087969631584,0.05735053180583154,0.011987599733977708
1.004519874412516,0.057935866130881315,0.08988022074990926,0.0238553638180855,0.06258284420004054,0.0176356314159471
1.0045669564376463,0.08691312585069338,0.10610706051284825,0.038233159934289905,0.07687087463852017,0.03060699306567602
1.0046140384627766,0.11302745450084833,0.12663147509809916,0.05542672474865837,0.09809980100560839,0.04578753319173984
1.004661120487907,0.13143773576861661,0.14549960917538682,0.07126698378066398,0.12046265199054419,0.05960769020322542
1.0047082025130374,0.140315951549541,0.1598911789573905,0.0817840112464661,0.14001243561303314,0.068433891162385
1.0047552845381678,0.14016084842095028,0.16645510909928213,0.0846685751900148,0.15394758535180242,0.07011680280245344
1.0048023665632981,0.13271042804166153,0.16449657154049213,0.08028160564993014,0.16000573020526865,0.06514895015727662
1.0048494485884285,0.1199532079956697,0.15636638679869314,0.06958311394397716,0.16120036119854808,0.05422223222178554
1.0048965306135589,0.10352759540252561,0.14258226800595483,0.05738407400153901,0.15529705351839757,0.042434311500068794
1.0049436126386893,0.08458770500586026,0.12453988399192491,0.04469505929439128,0.14397957422856117,0.0306962182469891
1.0049906946638196,0.06411017510052013,0.1066403491460437,0.03435472552873721,0.13019341395879355,0.021608166472664458
1.00503777668895,0.043500849939608656,0.08963876126780734,0.022887706523455283,0.11447336572833842,0.011622084402775828
1.0050848587140804,0.02497562650004661,0.07352100955044419,0.013888116903115118,0.09691731758758057,0.004329339316621796
1.0051319407392107,0.011013597455985432,0.06270687115294063,0.011624969459267675,0.0811363033962091,0.003617192601014432
1.0051790227643411,0.003334338693202587,0.052835993793489175,0.009001101837417943,0.06592814007980459,0.0024919187953447606
1.0052261047894715,0.0027948227754708652,0.041145200343720406,0.005716764128480125,0.05055800698998121,0.0007274172037560214
1.0052731868146019,0.010164673003053454,0.03045520778779011,0.005314070387151807,0.035186638491989955,0.001835703321022395
1.0053202688397322,0.026566180290056158,0.023352461744577984,0.008193549268036414,0.022299813491335925,0.005966686849563065
1.0053673508648626,0.05291846997433676,0.020130932612485608,0.011498759854167706,0.014496170621859246,0.010021594297305236
1.005414432889993,0.08828034555015178,0.021756308749972617,0.017065936640710815,0.01028946540581742,0.015974788927745825
1.0054615149151234,0.12763762777320273,0.02570720051595486,0.025647230237824777,0.009782424486349152,0.024565289798496804
1.0055085969402537,0.16155770115500132,0.03266569723714907,0.038076850744054896,0.015713713119652417,0.03635844658072512
1.0055556789653841,0.18078890709766565,0.04029274597767041,0.05135766337998839,0.026352650632073853,0.04854996865150939
1.0056027609905145,0.18307418566708303,0.04576539026774275,0.06056084021799014,0.03844224077951322,0.056556917412026966
1.0056498430156449,0.1741533504439713,0.04884161724688899,0.06655908741414072,0.04649046130648651,0.061770104539358384
1.0056969250407752,0.16242605985016223,0.05041902650979584,0.07063087442771013,0.05260172458601719,0.06525354965668549
1.0057440070659056,0.15418810481596457,0.05089825389954994,0.07107575192890922,0.05635358298609027,0.06534429943262789
1.005791089091036,0.1523552110015489,0.04943250199724028,0.0660360559428213,0.057133281316618385,0.06024168696566288
1.0058381711161664,0.15691036178882456,0.04855356984084008,0.06130313889977103,0.05716322377297648,0.05551608419516868
1.0058852531412967,0.16538784679386007,0.05181342844520237,0.06307528196508604,0.05821670313396212,0.05718478926374006
1.005932335166427,0.17322460684996496,0.05271891284005651,0.06323184659303546,0.05840921835614372,0.057322836733901886
1.0059794171915575,0.17475929729964576,0.05061104023954922,0.05880087400333982,0.05568489541337758,0.053159641563785456
1.0060264992166879,0.16548577922015562,0.046693138679677074,0.05204155960234529,0.05037430522940314,0.04692367425580554
1.0060735812418182,0.1445721481217929,0.04112777291534521,0.04234591607178599,0.042568105643187595,0.03800776679084255
1.0061206632669486,0.11538472372115638,0.03673429346421501,0.03266210113426135,0.03357342136575774,0.029230148273175563
1.006167745292079,0.08342022676517998,0.03192550423634683,0.0259645785337829,0.02528844420158854,0.0233666867159785
1.0062148273172093,0.053714935068683495,0.02926299741288398,0.01794830890199036,0.019641386189952745,0.015937564929444117
1.0062619093423397,0.029620632829972474,0.026191397498940016,0.006428025048282717,0.016130845197203755,0.004814284866836133
1.00630899136747,0.012907514843990737,0.023868658456544536,-0.004503164505502606,0.0162977295825564,-0.0060819392091399525
1.0063560733926005,0.004292560353454192,0.024531889795091015,-0.010519166817943732,0.020792571886382383,-0.012511665057169205
1.0064031554177308,0.0038095921685766332,0.029448853324989782,-0.007972360122875525,0.02829469372157988,-0.010715186602834569
1.0064502374428612,0.010924293923755681,0.04242086977920099,0.0013341291502741227,0.04403270455451621,-0.0029974461291556354
1.0064973194679916,0.02453035587728399,0.056666453057191264,0.011333716656649779,0.06190876362940825,0.005212685716935564
1.006544401493122,0.042966387475684646,0.06955586933721818,0.020787738978896356,0.0793737795296847,0.012940255576653884
1.0065914835182523,0.06411092062196938,0.08088331157538879,0.03329944681240632,0.0917771803321162,0.024243415179261853
1.0066385655433827,0.08556714248621351,0.09225953076050832,0.049462130528264495,0.10003365401088789,0.039632092109069206
1.006685647568513,0.10493697207975199,0.10208957947197195,0.06485229624100503,0.10486645399477164,0.05460151722220191
1.0067327295936435,0.12014720761669652,0.10798308345716677,0.07640706666955516,0.10574453300200407,0.06610767557691202
1.0067798116187738,0.12974860817624662,0.1097734244797107,0.08294186479002422,0.10189532724490862,0.07301033292721663
1.0068268936439042,0.1331160769266914,0.1086202498047359,0.08436945777741765,0.09390657198708136,0.07516445834025023
1.0068739756690346,0.13051634907150206,0.10249738916117994,0.08386978816652868,0.08324863704501902,0.07563422460691652
1.006921057694165,0.12301693370584733,0.0911434658056981,0.08185258015702256,0.07175583944147065,0.07467197521887868
1.0069681397192953,0.11219272060745543,0.07683432760912982,0.07585112215539112,0.05887817236647656,0.06987374796613101
1.0070152217444257,0.09964098937742749,0.06259526429731806,0.06985230351433948,0.045339276804843655,0.06516305082086252
1.007062303769556,0.08648287672211809,0.050153178487396755,0.06302251331950957,0.033431630180435504,0.05948920909046088
1.0071093857946865,0.07315337862299943,0.04072622459351643,0.053521194673379444,0.023368906077683823,0.05099280400406663
1.0071564678198168,0.05967551136841471,0.03403891712177663,0.042771215350936226,0.015692256807497407,0.04103376515063942
1.0072035498449472,0.046352747241279996,0.026649285338067433,0.029687677967592516,0.009697700957146924,0.028595057792045183
1.0072506318700776,0.03458526276589038,0.022465356117025354,0.01916866027493343,0.00745414674128205,0.01834531874740536
1.007297713895208,0.02727830692374265,0.021904417272859238,0.01473006896934623,0.008038663642192596,0.013870563594306618
1.0073447959203383,0.0280866607277734,0.027161822805839453,0.01711698325886342,0.012484044340417626,0.015810640638145083
1.0073918779454687,0.03925806445151868,0.04090496477928462,0.028584290137595406,0.023068436277576397,0.026191467325705008
1.007438959970599,0.059562255279517966,0.058303615496226154,0.043832242766228824,0.03626084282296808,0.040097288418541
1.0074860419957294,0.08449757331606145,0.07459309520179845,0.058037587268334905,0.049641091980696925,0.05297298666135743
1.0075331240208598,0.10858230355013457,0.087015506275114,0.06858033205585247,0.06246276806241195,0.0622795841441346
1.0075802060459902,0.12742598805780986,0.09497404690161902,0.07621925524513734,0.07081179599401727,0.06912976259176164
1.0076272880711206,0.13840784538629322,0.09620065879778651,0.07904744927672683,0.07425139754876706,0.07163786181151686
1.007674370096251,0.14057521646913557,0.09203378181058484,0.0769603579802706,0.07492942044460388,0.06948890001507001
1.0077214521213813,0.1345761316442056,0.08482493749271787,0.07084930100861353,0.07142998220839553,0.06370661490760957
1.0077685341465117,0.12269802495893224,0.07377203891926534,0.062425783036096825,0.06393803527401341,0.05599632766218149
1.007815616171642,0.10844877640211482,0.06176501695450218,0.054884533548136764,0.0540219712054734,0.049410959097415975
