freq,gls,usurper,pdc_unbiased,shape_periodogram,shift_periodogram
1.0,0.02176245538732735,0.010753993471877107,-0.007335655112181927,-0.005410504215000742,-0.007276351593189138
1.0000470820251304,0.05134779247241603,0.014242500062196933,0.016081221596065367,-0.005564092947321025,0.016141145700672262
1.0000941640502607,0.09689124580742478,0.017199180406721536,0.05094334186944231,0.0008337104323343221,0.05093128776796579
1.0001412460753911,0.14848755125694818,0.018444711117154917,0.08456655871201842,0.009278667660461487,0.0844651167744173
1.0001883281005215,0.19664060203551523,0.021492039438322928,0.10917973127593883,0.02012121798396603,0.10897968711631191
1.0002354101256519,0.23592916525893703,0.02568446054446676,0.12678225514793529,0.02923047862316772,0.1265170354601128
1.0002824921507822,0.26363730657080775,0.029023664780085803,0.13936052532630389,0.03462234540829003,0.13906767009079793
1.0003295741759126,0.2780607972143743,0.03152217808217534,0.14663287491158739,0.03729746028096227,0.1463304205425229
1.000376656201043,0.27778293516045677,0.03233106791183791,0.14742341655727248,0.03864277155887679,0.14711473455436241
1.0004237382261734,0.2619162710265795,0.031210133260434272,0.139633635428265,0.038835161934164995,0.13931750804315857
1.0004708202513037,0.23107843684954268,0.028606413131865713,0.12167319492364326,0.03713783462446084,0.12135264972834475
1.0005179022764341,0.1884924826566669,0.025121960379673507,0.09811663264576473,0.03351684646107064,0.0978051678304785
1.0005649843015645,0.1401213853463462,0.022651758444722194,0.07552593926328457,0.030163425513023992,0.07522950570704072
1.0006120663266949,0.09311329616242185,0.02020352190958932,0.056936636782797936,0.026602880672235422,0.0566646637869004
1.0006591483518252,0.05338098213176131,0.01971877505390728,0.04656239048066332,0.02152047291962479,0.046336505959965205
1.0007062303769556,0.024158292773911582,0.018481207841511745,0.0379052596807291,0.01592510948329045,0.037734564726813746
1.000753312402086,0.006389706849983347,0.017493405644250153,0.024925530867037873,0.008988342709981114,0.02482716377964215
1.0008003944272164,4.4957735270936574e-05,0.016895358951847433,0.013623927240606612,0.003119305774207857,0.013589190480746407
1.0008474764523467,0.004476680458159687,0.015105810839228396,0.005279248516488982,0.0005241787878729327,0.0052732218418951714
1.000894558477477,0.016631009383087918,0.01809881827453021,0.00604487589630294,0.001360944373102558,0.006029687740283169
1.0009416405026075,0.030279800796216314,0.025024672223478903,0.01614856324889533,0.005075498472234325,0.016092505737036113
1.0009887225277379,0.04019506929021177,0.034196076344374216,0.031662352407458065,0.015074664947954203,0.03149996841370782
1.0010358045528682,0.045271217739530065,0.040306348287921095,0.049643587368788454,0.027140617364247544,0.049364016736153545
1.0010828865779986,0.04665854735345898,0.044597288738884064,0.06394396252727896,0.039536253935401715,0.06356131974176113
1.001129968603129,0.04557434040645729,0.04884720480233614,0.06951556918541625,0.04920452812174853,0.06906219762474389
1.0011770506282593,0.04281463251624272,0.05016387214647775,0.06676401531502141,0.054536041152797476,0.06626770108702185
1.0012241326533897,0.03911406922799136,0.0482039468894259,0.05756222886158259,0.05563621572342526,0.05704338726147776
1.00127121467852,0.035734840091298535,0.04491658996238367,0.04469056838221148,0.05410242163340878,0.04416445822903288
1.0013182967036505,0.034632288517627896,0.04171860145551925,0.03354469161607427,0.05272015860667741,0.03301482411711618
1.0013653787287808,0.03686446430802818,0.03836560907055609,0.03235087082016887,0.051635472702797315,0.031829367426252406
1.0014124607539112,0.040499198873267514,0.03714059217898247,0.04235422606047071,0.05231008514842994,0.04184018821471091
1.0014595427790416,0.04245011553894062,0.03635226274520323,0.05148956578485458,0.05444305015757937,0.05097077220479294
1.001506624804172,0.04142424671447975,0.03517293725010382,0.057489670337512934,0.05213378615771516,0.056998011963230094
1.0015537068293023,0.03772147907862947,0.035175540183048686,0.05838903434484734,0.04603310936495913,0.05794754373487793
1.0016007888544327,0.032149333674356434,0.033293021257264535,0.05286952532393206,0.037121776752559385,0.05249950324214162
1.001647870879563,0.025799799790141527,0.029059456230912894,0.040386054375886556,0.024829868567085574,0.04012600162728013
1.0016949529046935,0.020580986012262138,0.022388845181620293,0.02276083148008517,0.01280484234532365,0.02262185809485461
1.0017420349298238,0.01993155776046648,0.019507002888495103,0.008396000375120035,0.0038408389149090787,0.008353699296938898
1.0017891169549542,0.027489951613850306,0.018533784139375023,0.00883020356959996,0.0012472752085822042,0.008816091085642182
1.0018361989800846,0.042074300128446054,0.017262918489426404,0.022145335055818467,0.004745073078894432,0.022092581302102354
1.001883281005215,0.05845891480384451,0.01952484283659952,0.04104344236602053,0.011258693354431876,0.040921177222806
1.0019303630303453,0.07582159493280267,0.026356691960267912,0.05832937685591873,0.018434875454584977,0.05813583489304011
1.0019774450554757,0.09824195100672209,0.03251822253193701,0.07041397317164165,0.027679328221757046,0.07013705503010496
1.002024527080606,0.1303669711588208,0.03226733749990113,0.07896421651578898,0.03590228647106098,0.07862220057057476
1.0020716091057364,0.17464242099810953,0.029975066377988607,0.08832693698111686,0.041429887092849525,0.08795028747290472
1.0021186911308668,0.22917237164395338,0.03119719279734693,0.11355266104308831,0.046186187883797795,0.11317142389431882
1.0021657731559972,0.2864808872447173,0.033881366924161486,0.14880372324738836,0.05056382148836964,0.148447742192469
1.0022128551811276,0.335488571803669,0.036363480242961634,0.17945522269565434,0.05389230267475437,0.17913748655533643
1.002259937206258,0.3667004160945303,0.03769899498513609,0.20044309409803335,0.055871541124090776,0.20015900192753647
1.0023070192313883,0.37630521047742305,0.03775148336311127,0.20989430295355302,0.056095463863083735,0.20962634750190945
1.0023541012565187,0.3658732131217113,0.03662367534068814,0.20800353236518512,0.05472844695067973,0.20773123931629317
1.002401183281649,0.3393357840705059,0.03554069614120994,0.19716291122807472,0.05233790184297653,0.1968733659774948
1.0024482653067794,0.30043566038503033,0.035213809296911286,0.1783931936762516,0.04618327584726216,0.17808727473735764
1.0024953473319098,0.25183659939415354,0.03448240288879809,0.15384153094853617,0.03522591111124169,0.15355518768403398
1.0025424293570402,0.1956066522565673,0.029760497217927222,0.12081929242955049,0.021885083574324362,0.12060731355277521
1.0025895113821706,0.13475970805500284,0.02413496329584947,0.07564140824241966,0.0063580260170543815,0.0755697440966159
1.002636593407301,0.07582916802294695,0.02058238804013009,0.025728531183742454,-0.004662064325104651,0.02577805323154558
1.0026836754324313,0.03145358980808763,0.01802926880036389,-0.0040036080406334615,-0.00360868682816651,-0.00396405928492693
1.0027307574575617,0.01779891286180085,0.01936322439714554,-0.006351274616742859,0.009644559102095596,-0.006456324631251236
1.002777839482692,0.04358985242398123,0.019688358874240697,0.006591376950054447,0.028737871901514694,0.006280332337924531
1.0028249215078224,0.1037077589167159,0.02785976993450666,0.04281328660270074,0.043747940641997184,0.04237565286351282
1.0028720035329528,0.18101238562213362,0.03591426549009345,0.0979436666785688,0.05809711647173874,0.0974767133617212
1.0029190855580832,0.25636899888384335,0.043385941238098004,0.15380629462607742,0.06093101903685755,0.15343489562378756
1.0029661675832136,0.31832235074100634,0.05181727890221734,0.19704252226634572,0.05707123669320558,0.1967532154565867
1.003013249608344,0.36361141655314383,0.055142362079511294,0.228525784613192,0.056379689396766595,0.2282899558677228
1.0030603316334743,0.39341420767750745,0.0552784181458584,0.24979870354304085,0.054478957280716174,0.24959313232702035
1.0031074136586047,0.4102870696014962,0.0534946593621207,0.26258314989231946,0.0511173121473664,0.2623873738800496
1.003154495683735,0.41662904201390033,0.05128925016462366,0.266777273312063,0.04706024438079034,0.26657763485779834
1.0032015777088654,0.41405085665469693,0.04857821572333927,0.26326150551395927,0.042102914866512284,0.26305192427481777
1.0032486597339958,0.4030953535584088,0.04516438569331996,0.251751202986526,0.03638771481979454,0.25153363554957786
1.0032957417591262,0.38301151602067063,0.040897141954678494,0.2324239377319079,0.02979667312769704,0.23220954061493423
1.0033428237842565,0.3514583105172215,0.035829265275389675,0.2047530276495091,0.022246870390209405,0.20456244398760848
1.003389905809387,0.3042863356687068,0.0296800662494138,0.16911475512504195,0.014117893880597147,0.1689740057158148
1.0034369878345173,0.2364892670841809,0.022624286189083572,0.12615890065588273,0.005777625422000628,0.12609211111173554
1.0034840698596477,0.14805992805189566,0.015936542264413663,0.07745804013496241,-0.0023328598821418887,0.07747887659900826
1.003531151884778,0.05937981673678241,0.01181849916085426,0.035632586371168055,-0.007810956707140156,0.03571654342508145
1.0035782339099084,0.016571701488668728,0.011435184365471852,0.012038086514572617,-0.00805938138821224,0.012125599713733339
1.0036253159350388,0.04141534161646615,0.01791251947959877,0.014399178728297872,0.0003273749637048546,0.014394756595506182
1.0036723979601692,0.0978579156313711,0.029527693519889285,0.03595348541122598,0.013501497635032925,0.03580771838674622
1.0037194799852995,0.14599333246590304,0.043121205206653454,0.06503465797160808,0.026721326125231763,0.06476439261771252
1.00376656201043,0.17300879075255565,0.052051461543620406,0.0922030709843016,0.03912784218502639,0.09184625808253201
1.0038136440355603,0.18229222765708752,0.05859305739473741,0.11374971918924169,0.04652515378587919,0.11336684109920106
1.0038607260606907,0.18262972424027749,0.06044200207591746,0.12736778710133306,0.052096853484772034,0.12697579979132284
1.003907808085821,0.18292620727983336,0.05919279570229667,0.13485525602086357,0.05840911841875978,0.13445329951100488
1.0039548901109514,0.18798821740501145,0.05955400892866975,0.13913083302593265,0.061578972412855475,0.13872899413660245
1.0040019721360818,0.19658928748535154,0.06065665516890615,0.1397247738744464,0.06174582497804164,0.13932377212962468
1.0040490541612122,0.20361099360789395,0.059153685183195484,0.1356935801867525,0.05921272023705725,0.13529090998440002
1.0040961361863425,0.20356945018764083,0.05447890893328862,0.1287855413388881,0.055218761669919264,0.1283835864936976
1.004143218211473,0.19261735903368254,0.04783868294110707,0.11776025800915435,0.05117839137913421,0.1173586628493837
1.0041903002366033,0.1692114287165738,0.04013550753362699,0.09836742477706704,0.04425640759567891,0.09798123772284748
1.0042373822617336,0.13469585530973552,0.03191635773721909,0.07519967777083232,0.034811307942167205,0.07486408207833567
1.004284464286864,0.094068350002802,0.02329589642641078,0.051842634052145065,0.024420360970264596,0.05158977133132872
1.0043315463119944,0.0558705414627791,0.015758201119800603,0.03082107495389939,0.013252734135980769,0.030677676262045202
1.0043786283371248,0.029785725493520713,0.01086307594274011,0.019809015244991575,0.0030069197586289546,0.019775169484541257
1.0044257103622551,0.022326134922130727,0.0077469844393661,0.01684685304795892,-0.004521903192464879,0.01689529644161646
1.0044727923873855,0.03362727707623793,0.0071718151871430266,0.01768087969631584,-0.008863642027568074,0.017777102999418093
1.004519874412516,0.057935866130881315,0.009524456755896018,0.0238553638180855,-0.009596449707531728,0.023959569339708914
1.0045669564376463,0.08691312585069338,0.014167228784733222,0.038233159934289905,-0.005251208458558075,0.0382885355582194
1.0046140384627766,0.11302745450084833,0.02000184315673515,0.05542672474865837,0.0036410886513406184,0.05538429942836156
1.004661120487907,0.13143773576861661,0.02516278017020505,0.07126698378066398,0.01485740173203765,0.07110985172755581
1.0047082025130374,0.140315951549541,0.02888787710718012,0.0817840112464661,0.02650584361240876,0.08152158443826597
1.0047552845381678,0.14016084842095028,0.029389298747538293,0.0846685751900148,0.036773514273192844,0.0843236307214059
1.0048023665632981,0.13271042804166153,0.02737478068773091,0.08028160564993014,0.043768420318640304,0.07988039385466937
1.0048494485884285,0.1199532079956697,0.024420221546401093,0.06958311394397716,0.04927642323243618,0.06912929178849803
1.0048965306135589,0.10352759540252561,0.022118190907572537,0.05738407400153901,0.052863552043773986,0.05688652025833487
1.0049436126386893,0.08458770500586026,0.019064571377316094,0.04469505929439128,0.052690193259755484,0.04418099296693207
1.0049906946638196,0.06411017510052013,0.01746075894483603,0.03435472552873721,0.04952932411489348,0.03385522123143691
1.00503777668895,0.043500849939608656,0.015666199746720587,0.022887706523455283,0.044239626621663586,0.0224264158461544
1.0050848587140804,0.02497562650004661,0.01357574933152701,0.013888116903115118,0.036924170375808446,0.013494101763024147
1.0051319407392107,0.011013597455985432,0.010348467836050831,0.011624969459267675,0.028585912068802104,0.011317354935035176
1.0051790227643411,0.003334338693202587,0.00874524447291041,0.009001101837417943,0.018597458145423008,0.008799385410462681
1.0052261047894715,0.0027948227754708652,0.005192814000651705,0.005716764128480125,0.008989320980334147,0.005618665278390738
1.0052731868146019,0.010164673003053454,0.0026462781663003634,0.005314070387151807,0.0020198210304971757,0.0052917486830853675
1.0053202688397322,0.026566180290056158,0.0031129940738545275,0.008193549268036414,-0.0051400837296819695,0.008249196867554131
1.0053673508648626,0.05291846997433676,0.005210179417962901,0.011498759854167706,-0.009890621327996963,0.011606438630524055
1.005414432889993,0.08828034555015178,0.0073864000651078735,0.017065936640710815,-0.011032269531998352,0.017186176385563953
1.0054615149151234,0.12763762777320273,0.01026280426657156,0.025647230237824777,-0.008617087200350093,0.025740502732407102
1.0055085969402537,0.16155770115500132,0.012530515488544109,0.038076850744054896,-0.0019832861929973324,0.03809623889430865
1.0055556789653841,0.18078890709766565,0.015332101575703484,0.05135766337998839,0.006809512567552484,0.05128186961195417
1.0056027609905145,0.18307418566708303,0.016097696148156832,0.06056084021799014,0.017145389566663293,0.06038022353753047
1.0056498430156449,0.1741533504439713,0.01746861996122986,0.06655908741414072,0.026561996370929705,0.06629080309314628
1.0056969250407752,0.16242605985016223,0.017248627588554357,0.07063087442771013,0.03488722729812243,0.0702918048546219
1.0057440070659056,0.15418810481596457,0.01554823823821404,0.07107575192890922,0.04024050945663988,0.07069316903307923
1.005791089091036,0.1523552110015489,0.012339410823331473,0.0660360559428213,0.0424908767845067,0.06563098867379824
1.0058381711161664,0.15691036178882456,0.011262932402521339,0.06130313889977103,0.04419801228341836,0.060879679794424435
1.0058852531412967,0.16538784679386007,0.010438637696125653,0.06307528196508604,0.04476551482826724,0.0626490133294551
1.005932335166427,0.17322460684996496,0.007610505788223864,0.06323184659303546,0.04398507018256684,0.0628120330276024
1.0059794171915575,0.17475929729964576,0.004153883087272082,0.05880087400333982,0.04024412632204854,0.05840811126422369
1.0060264992166879,0.16548577922015562,0.0016079146122670144,0.05204155960234529,0.03560881359145452,0.05168456538288531
1.0060735812418182,0.1445721481217929,0.000982050938576089,0.04234591607178599,0.028439936700458912,0.04205119291526974
1.0061206632669486,0.11538472372115638,-0.00023559725104249033,0.03266210113426135,0.019133467183571704,0.032457859200982236
1.006167745292079,0.08342022676517998,-0.0012946069648753214,0.0259645785337829,0.010542118290313896,0.025849670344187777
1.0062148273172093,0.053714935068683495,-0.00017292232609989564,0.01794830890199036,0.004297242329236475,0.017900587186905407
1.0062619093423397,0.029620632829972474,0.0016675414834514816,0.006428025048282717,0.0010318134009113804,0.006416399642313819
1.00630899136747,0.012907514843990737,0.004654923748178826,-0.004503164505502606,0.0008946616085571429,-0.004512651002431566
1.0063560733926005,0.004292560353454192,0.009339935150391731,-0.010519166817943732,0.0028504513596677556,-0.010549651810510149
1.0064031554177308,0.0038095921685766332,0.015632311730953058,-0.007972360122875525,0.004809194598492516,-0.008024398373569977
1.0064502374428612,0.010924293923755681,0.024375096056185364,0.0013341291502741227,0.010658563653076523,0.001217932312177547
1.0064973194679916,0.02453035587728399,0.03200643432177786,0.011333716656649779,0.0185793721462396,0.011132472710886196
1.006544401493122,0.042966387475684646,0.038003941044497856,0.020787738978896356,0.02702940341254311,0.02049953668946173
1.0065914835182523,0.06411092062196938,0.041788299226979284,0.03329944681240632,0.03335550817016776,0.03295278289423947
1.0066385655433827,0.08556714248621351,0.04557350360410842,0.049462130528264495,0.03766334322704311,0.049084873534402725
1.006685647568513,0.10493697207975199,0.04619557394461549,0.06485229624100503,0.04022745786335434,0.06446465625703172
1.0067327295936435,0.12014720761669652,0.045836754168012035,0.07640706666955516,0.041454050364288536,0.07601956667313992
1.0067798116187738,0.12974860817624662,0.04225504980862328,0.08294186479002422,0.04066925339553028,0.08256602960678042
1.0068268936439042,0.1331160769266914,0.039685439142221404,0.08436945777741765,0.038238387294256194,0.08401308164835532
1.0068739756690346,0.13051634907150206,0.03498644103774459,0.08386978816652868,0.03517216114219758,0.08353678088862954
1.006921057694165,0.12301693370584733,0.028815347872158666,0.08185258015702256,0.031062651881629336,0.08155161618635987
1.0069681397192953,0.11219272060745543,0.021270926157378828,0.07585112215539112,0.025214821666171297,0.075598037771453
1.0070152217444257,0.09964098937742749,0.014252064759505996,0.06985230351433948,0.019171513300889665,0.06965345084238095
1.007062303769556,0.08648287672211809,0.009087742006778258,0.06302251331950957,0.013913552021462874,0.06287407708695099
1.0071093857946865,0.07315337862299943,0.00684683400114636,0.053521194673379444,0.009417533936473859,0.05341816699719475
1.0071564678198168,0.05967551136841471,0.004489333955147373,0.042771215350936226,0.004002677402083967,0.04272550744925198
1.0072035498449472,0.046352747241279996,0.0017206142977322003,0.029687677967592516,7.1234747959966425e-06,0.029685838060921333
1.0072506318700776,0.03458526276589038,0.0006672441617968733,0.01916866027493343,-0.001364614400312652,0.019182406835465283
1.007297713895208,0.02727830692374265,0.001103818795236504,0.01473006896934623,-0.002847997756283309,0.014760289185435605
1.0073447959203383,0.0280866607277734,0.002755697921866744,0.01711698325886342,-0.003582144085576869,0.017155107668308398
1.0073918779454687,0.03925806445151868,0.006947250327693945,0.028584290137595406,-0.0007632187151300765,0.028590911001393115
1.007438959970599,0.059562255279517966,0.011966592546566185,0.043832242766228824,0.003909632297893942,0.04378748190615838
1.0074860419957294,0.08449757331606145,0.015581285363781361,0.058037587268334905,0.011541343069193175,0.05791281843245244
1.0075331240208598,0.10858230355013457,0.018716064757802055,0.06858033205585247,0.018439319889690005,0.06838825787358643
1.0075802060459902,0.12742598805780986,0.020914278709293875,0.07621925524513734,0.02263161913345654,0.07598954005993629
1.0076272880711206,0.13840784538629322,0.021396211777920608,0.07904744927672683,0.02521794135854944,0.07879535241141994
1.007674370096251,0.14057521646913557,0.020603418547684643,0.0769603579802706,0.026369986910795257,0.07669741299106575
1.0077214521213813,0.1345761316442056,0.018734251621824786,0.07084930100861353,0.026210106214469404,0.07058566927383779
