freq,gls,usurper,pdc_unbiased,shape_periodogram,shift_periodogram
1.0,0.02176245538732735,0.004225836910191838,-0.007335655112181927,-0.002336046050868218,-0.007266387980919145
1.0000470820251304,0.05134779247241603,0.009155969744183059,0.016081221596065367,0.0015570979039925667,0.01603055974746435
1.0000941640502607,0.09689124580742478,0.012714743064271235,0.05094334186944231,0.006503586454457515,0.050739962216880784
1.0001412460753911,0.14848755125694818,0.01885225750591833,0.08456655871201842,0.01085207071843144,0.08423275608080695
1.0001883281005215,0.19664060203551523,0.024047690815753708,0.10917973127593883,0.0140569224048555,0.10875477211935272
1.0002354101256519,0.23592916525893703,0.027157726299020118,0.12678225514793529,0.01564415998048307,0.1263135545984465
1.0002824921507822,0.26363730657080775,0.028788885234105267,0.13936052532630389,0.015615446446293658,0.13889141661296175
1.0003295741759126,0.2780607972143743,0.029370534864898476,0.14663287491158739,0.015952304551365287,0.14615471127012772
1.000376656201043,0.27778293516045677,0.029989619816342794,0.14742341655727248,0.016552358770181706,0.14693011474364362
1.0004237382261734,0.2619162710265795,0.029795796046959495,0.139633635428265,0.0174188475335146,0.1391188337099847
1.0004708202513037,0.23107843684954268,0.028079265442202114,0.12167319492364326,0.01730017517213707,0.12116228515313872
1.0005179022764341,0.1884924826566669,0.025359629277600937,0.09811663264576473,0.017014922557621198,0.09761520999936164
1.0005649843015645,0.1401213853463462,0.023605456023282997,0.07552593926328457,0.01621406266381033,0.0750489600120911
1.0006120663266949,0.09311329616242185,0.022520556797271,0.056936636782797936,0.014381054225548378,0.05651318132995878
1.0006591483518252,0.05338098213176131,0.02457587224153941,0.04656239048066332,0.010268580889233563,0.046255443119511054
1.0007062303769556,0.024158292773911582,0.026602775140499996,0.0379052596807291,0.00572235735763558,0.03772846959136999
1.000753312402086,0.006389706849983347,0.028431946436576105,0.024925530867037873,0.0006597890546974286,0.024896773437509522
1.0008003944272164,4.4957735270936574e-05,0.033304221276222845,0.013623927240606612,-0.004700752281630109,0.013752031364497602
1.0008474764523467,0.004476680458159687,0.03552892766168239,0.005279248516488982,-0.004253651614792249,0.005397950041544115
1.000894558477477,0.016631009383087918,0.03526703218799055,0.00604487589630294,-0.00023718935198113216,0.006049173431838091
1.0009416405026075,0.030279800796216314,0.0381845679930964,0.01614856324889533,0.005688518001658476,0.015980842995762645
1.0009887225277379,0.04019506929021177,0.0435337610881487,0.031662352407458065,0.012646215089457333,0.031293529005892294
1.0010358045528682,0.045271217739530065,0.04819174966215565,0.049643587368788454,0.02019738062148639,0.049062170352852506
1.0010828865779986,0.04665854735345898,0.04670826162630322,0.06394396252727896,0.02661296562729423,0.0631894451791904
1.001129968603129,0.04557434040645729,0.043016221910765026,0.06951556918541625,0.03191042916609662,0.0686227979444632
1.0011770506282593,0.04281463251624272,0.03657221834561516,0.06676401531502141,0.03522265052432851,0.06578424998163011
1.0012241326533897,0.03911406922799136,0.030664377049104814,0.05756222886158259,0.03746583416000541,0.05651995258602098
1.00127121467852,0.035734840091298535,0.025282385190737312,0.04469056838221148,0.038211878080163186,0.04362248622458801
1.0013182967036505,0.034632288517627896,0.01941808856092325,0.03354469161607427,0.03786978749781864,0.03248086021518896
1.0013653787287808,0.03686446430802818,0.018865559652243267,0.03235087082016887,0.03597478033003764,0.0313381169602269
1.0014124607539112,0.040499198873267514,0.02380855032678998,0.04235422606047071,0.0346244096086569,0.04138133472463297
1.0014595427790416,0.04245011553894062,0.028858077787413745,0.05148956578485458,0.03185392901569193,0.05059347208936676
1.001506624804172,0.04142424671447975,0.0325737524441489,0.057489670337512934,0.02666334075352185,0.05673323651035554
1.0015537068293023,0.03772147907862947,0.03325300812486937,0.05838903434484734,0.020682284856040935,0.05779356479764143
1.0016007888544327,0.032149333674356434,0.03289840523369498,0.05286952532393206,0.013671489998985015,0.05246655331613401
1.001647870879563,0.025799799790141527,0.0317262534283123,0.040386054375886556,0.006526369712209248,0.040185777875744705
1.0016949529046935,0.020580986012262138,0.029510132597763597,0.02276083148008517,-0.0006107900534388732,0.022768992743209163
1.0017420349298238,0.01993155776046648,0.027127630327362946,0.008396000375120035,-0.005586164540364067,0.008551355943783234
1.0017891169549542,0.027489951613850306,0.027147264414802846,0.00883020356959996,-0.003982645543732496,0.008939791751201532
1.0018361989800846,0.042074300128446054,0.02760298135718673,0.022145335055818467,0.00020338081003153368,0.02213063888670164
1.001883281005215,0.05845891480384451,0.03090625108304114,0.04104344236602053,0.007135321122417092,0.04082585147626518
1.0019303630303453,0.07582159493280267,0.03286560042348655,0.05832937685591873,0.014100146949631489,0.0579133121394303
1.0019774450554757,0.09824195100672209,0.03496722430625146,0.07041397317164165,0.022097637621854797,0.06977980761552686
1.002024527080606,0.1303669711588208,0.03236849685793465,0.07896421651578898,0.027113735164225244,0.07819834007126907
1.0020716091057364,0.17464242099810953,0.026064694159045457,0.08832693698111686,0.030648713279249624,0.08747213347843395
1.0021186911308668,0.22917237164395338,0.024355954732573175,0.11355266104308831,0.03226066202764066,0.11266679630358666
1.0021657731559972,0.2864808872447173,0.026134359366906182,0.14880372324738836,0.034337613040509994,0.1478872783562504
1.0022128551811276,0.335488571803669,0.028533039170922495,0.17945522269565434,0.03567165944195556,0.17853049914122804
1.002259937206258,0.3667004160945303,0.029604917822475745,0.20044309409803335,0.036129811568708876,0.19952552418272318
1.0023070192313883,0.37630521047742305,0.029309407624873118,0.20989430295355302,0.0350213610636908,0.20900619516714006
1.0023541012565187,0.3658732131217113,0.027345634831464054,0.20800353236518512,0.03223978798147903,0.20716935922546242
1.002401183281649,0.3393357840705059,0.02285182044979964,0.19716291122807472,0.027645682968198,0.19641877163499014
1.0024482653067794,0.30043566038503033,0.017709529494911926,0.1783931936762516,0.02108134067115726,0.17779141852424551
1.0024953473319098,0.25183659939415354,0.013196232314389147,0.15384153094853617,0.013236079118244965,0.15343145727413135
1.0025424293570402,0.1956066522565673,0.00864349649293126,0.12081929242955049,0.006116695436048435,0.12060359773778466
1.0025895113821706,0.13475970805500284,0.000892458294658131,0.07564140824241966,6.4580775911755855e-06,0.0756108986501786
1.002636593407301,0.07582916802294695,-0.007039738135877693,0.025728531183742454,-0.004745423794941866,0.025853070609986508
1.0026836754324313,0.03145358980808763,-0.007563980995688502,-0.0040036080406334615,-0.008626457365285152,-0.0037571821767078363
1.0027307574575617,0.01779891286180085,0.0015404094535327896,-0.006351274616742859,-0.006510218482969278,-0.006163990977996509
1.002777839482692,0.04358985242398123,0.006154511304147849,0.006591376950054447,0.0011199270521067763,0.006556923848259464
1.0028249215078224,0.1037077589167159,0.008271410112571782,0.04281328660270074,0.007632908113889532,0.04258114028467143
1.0028720035329528,0.18101238562213362,0.015182212523030234,0.0979436666785688,0.01112289009724922,0.09759920041612925
1.0029190855580832,0.25636899888384335,0.02773544100417136,0.15380629462607742,0.01742399612679715,0.1532910768155554
1.0029661675832136,0.31832235074100634,0.037198923237999976,0.19704252226634572,0.02219895370098954,0.19641853991671546
1.003013249608344,0.36361141655314383,0.041589319999355986,0.228525784613192,0.02595965527176809,0.22783086407856698
1.0030603316334743,0.39341420767750745,0.04510951590733929,0.24979870354304085,0.02855005048320466,0.2490631939225576
1.0031074136586047,0.4102870696014962,0.04668777958261299,0.26258314989231946,0.030122551518092008,0.26182648352576376
1.003154495683735,0.41662904201390033,0.04750692949717837,0.266777273312063,0.030846892610568513,0.2660105507934412
1.0032015777088654,0.41405085665469693,0.04750055947071472,0.26326150551395927,0.030710473529429155,0.26249467634304613
1.0032486597339958,0.4030953535584088,0.04658004277639536,0.251751202986526,0.029752504854413855,0.2509941210139442
1.0032957417591262,0.38301151602067063,0.04477793180005146,0.2324239377319079,0.02772076242128004,0.23169505169535137
1.0033428237842565,0.3514583105172215,0.041750673857887395,0.2047530276495091,0.02461184171394559,0.20407760335032338
1.003389905809387,0.3042863356687068,0.03763143577358119,0.16911475512504195,0.02100438446965399,0.16851348899514051
1.0034369878345173,0.2364892670841809,0.03237969533940052,0.12615890065588273,0.016095012554879606,0.1256786462425309
1.0034840698596477,0.14805992805189566,0.02570248343419785,0.07745804013496241,0.011237282672707022,0.07711559252883712
1.003531151884778,0.05937981673678241,0.02019336271419809,0.035632586371168055,0.006759974621711907,0.03542745137957715
1.0035782339099084,0.016571701488668728,0.01859579085872321,0.012038086514572617,0.0033952022471547367,0.01193691233399493
1.0036253159350388,0.04141534161646615,0.02273217945979826,0.014399178728297872,0.002405055563720697,0.014325142116152411
1.0036723979601692,0.0978579156313711,0.027773695017233434,0.03595348541122598,0.004327790238819479,0.03581668631125719
1.0037194799852995,0.14599333246590304,0.033188578131607346,0.06503465797160808,0.008165351889463483,0.06478029413509719
1.00376656201043,0.17300879075255565,0.038120454792955366,0.0922030709843016,0.013924829917944737,0.09178462731284404
1.0038136440355603,0.18229222765708752,0.042349456771854,0.11374971918924169,0.01785763016172924,0.11322494088821652
1.0038607260606907,0.18262972424027749,0.04678649943785962,0.12736778710133306,0.023013221120561245,0.1267125415543208
1.003907808085821,0.18292620727983336,0.04911479489735258,0.13485525602086357,0.029945916503377905,0.13403348437714513
1.0039548901109514,0.18798821740501145,0.049597301709132034,0.13913083302593265,0.03551405528403311,0.13818177593718647
1.0040019721360818,0.19658928748535154,0.04572586817840063,0.1397247738744464,0.03840023018192232,0.13871097048173298
1.0040490541612122,0.20361099360789395,0.044968967879326714,0.1356935801867525,0.03896491317668572,0.13466399059466233
1.0040961361863425,0.20356945018764083,0.04298246557043794,0.1287855413388881,0.03912769567857873,0.1277469069632546
1.004143218211473,0.19261735903368254,0.036334613874068215,0.11776025800915435,0.037951630037216376,0.1167408358594445
1.0041903002366033,0.1692114287165738,0.02892483693683062,0.09836742477706704,0.03487292486923965,0.0974107638596647
1.0042373822617336,0.13469585530973552,0.021074992546997906,0.07519967777083232,0.03068106361236271,0.07434039971695539
1.004284464286864,0.094068350002802,0.015381756163474362,0.051842634052145065,0.024912821688687053,0.05113299867616622
1.0043315463119944,0.0558705414627791,0.011536421030187023,0.03082107495389939,0.01760348219011685,0.030314183004755937
1.0043786283371248,0.029785725493520713,0.008911339547776271,0.019809015244991575,0.01034795638550143,0.01950840436462618
1.0044257103622551,0.022326134922130727,0.008448483368883954,0.01684685304795892,0.0036363964113878522,0.016736956740884414
1.0044727923873855,0.03362727707623793,0.009350440191123955,0.01768087969631584,-0.0005018966529109308,0.017687999551553587
1.004519874412516,0.057935866130881315,0.010397689066273006,0.0238553638180855,-0.001577576040054239,0.02389053794305285
1.0045669564376463,0.08691312585069338,0.012543394922050049,0.038233159934289905,0.0005360062151126759,0.038202583411914674
1.0046140384627766,0.11302745450084833,0.01551488539370389,0.05542672474865837,0.005183248215850276,0.055258674664832655
1.004661120487907,0.13143773576861661,0.017591628842814098,0.07126698378066398,0.010137501076055409,0.07095633466030933
1.0047082025130374,0.140315951549541,0.018928435657716652,0.0817840112464661,0.014462928835581828,0.08135310593434407
1.0047552845381678,0.14016084842095028,0.01826576402687582,0.0846685751900148,0.0169497629064003,0.08417051144712522
1.0048023665632981,0.13271042804166153,0.016726978569607264,0.08028160564993014,0.017742625993917273,0.07976292621584874
1.0048494485884285,0.1199532079956697,0.015886769062498817,0.06958311394397716,0.019053522148410763,0.0690305100502123
1.0048965306135589,0.10352759540252561,0.013999901449703629,0.05738407400153901,0.01932614062544356,0.05682548480958903
1.0049436126386893,0.08458770500586026,0.008494510767762089,0.04469505929439128,0.017224547479245296,0.04419595567825501
1.0049906946638196,0.06411017510052013,0.0037374120953239964,0.03435472552873721,0.013182560700433563,0.033970159779500506
1.00503777668895,0.043500849939608656,0.0005615599781167463,0.022887706523455283,0.009068180015697994,0.02262211157696645
1.0050848587140804,0.02497562650004661,-0.0020967426173435512,0.013888116903115118,0.004587966596349335,0.0137524198163605
1.0051319407392107,0.011013597455985432,-0.00172347293892942,0.011624969459267675,-0.0005117322797442702,0.01163481207396105
1.0051790227643411,0.003334338693202587,-0.0016438444669769966,0.009001101837417943,-0.004763987058683788,0.009132837531916035
1.0052261047894715,0.0027948227754708652,-0.0028214769566687063,0.005716764128480125,-0.006015598611299977,0.005885375662154191
1.0052731868146019,0.010164673003053454,-0.005603776973580903,0.005314070387151807,-0.007806955018691242,0.0055337726146232075
1.0053202688397322,0.026566180290056158,-0.007806439570554129,0.008193549268036414,-0.009176874094455988,0.00845116064059625
1.0053673508648626,0.05291846997433676,-0.01034737398266397,0.011498759854167706,-0.009419029217559743,0.01176205370600196
1.005414432889993,0.08828034555015178,-0.01054397334200141,0.017065936640710815,-0.008118264842548104,0.017290050609912417
1.0054615149151234,0.12763762777320273,-0.009581804149054223,0.025647230237824777,-0.005904887520497821,0.02580485319111189
1.0055085969402537,0.16155770115500132,-0.008746458862657536,0.038076850744054896,-0.0013228380391299818,0.03809903350495309
1.0055556789653841,0.18078890709766565,-0.00798060098565933,0.05135766337998839,0.0047605874875969265,0.0512029378937702
1.0056027609905145,0.18307418566708303,-0.0071430352740657534,0.06056084021799014,0.011562436882978512,0.060213985923463366
1.0056498430156449,0.1741533504439713,-0.006269146210609694,0.06655908741414072,0.014869914344462004,0.06612018201671484
1.0056969250407752,0.16242605985016223,-0.005341012881095185,0.07063087442771013,0.016495266128233797,0.07014710727559341
1.0057440070659056,0.15418810481596457,-0.0036729133580793633,0.07107575192890922,0.01542231371387962,0.07062095228055022
1.005791089091036,0.1523552110015489,-0.0017320131382328634,0.0660360559428213,0.012178458638230206,0.0656708189854397
1.0058381711161664,0.15691036178882456,0.0012684795156831523,0.06130313889977103,0.009146036326910934,0.061022798834708424
1.0058852531412967,0.16538784679386007,0.006182739460743168,0.06307528196508604,0.007442400048657403,0.06284160212175562
1.005932335166427,0.17322460684996496,0.007885101290840775,0.06323184659303546,0.00439617058766643,0.0630829698213591
1.0059794171915575,0.17475929729964576,0.008033457918451637,0.05880087400333982,0.0010998899591923158,0.0587462092160535
1.0060264992166879,0.16548577922015562,0.008600710609748438,0.05204155960234529,-0.0018720357073726658,0.05207366422972493
1.0060735812418182,0.1445721481217929,0.008034192666622884,0.04234591607178599,-0.003168131912593834,0.04241880333962719
1.0061206632669486,0.11538472372115638,0.0070867361108717065,0.03266210113426135,-0.004345551597183882,0.03277245160846599
1.006167745292079,0.08342022676517998,0.004285585915080462,0.0259645785337829,-0.005810052546994138,0.026119370440075645
1.0062148273172093,0.053714935068683495,0.0031976736672492843,0.01794830890199036,-0.007293129044533021,0.018148550589935843
1.0062619093423397,0.029620632829972474,0.0024272293340937274,0.006428025048282717,-0.008476007773619083,0.00666634166848145
1.00630899136747,0.012907514843990737,0.0026434563428186907,-0.004503164505502606,-0.006751220472027779,-0.004309744879680584
1.0063560733926005,0.004292560353454192,0.002871484706416596,-0.010519166817943732,-0.003897914204237463,-0.010404337533858408
1.0064031554177308,0.0038095921685766332,0.003439536387792412,-0.007972360122875525,-0.00027567947130797797,-0.007961318350634823
1.0064502374428612,0.010924293923755681,0.005574789614452957,0.0013341291502741227,0.006456977412299311,0.001150263321703706
1.0064973194679916,0.02453035587728399,0.008203609818895731,0.011333716656649779,0.01299331359126148,0.010961182921588507
1.006544401493122,0.042966387475684646,0.010584621502352405,0.020787738978896356,0.019574006336057437,0.020227761013524834
1.0065914835182523,0.06411092062196938,0.012075494117230063,0.03329944681240632,0.02273733156161811,0.03264986875988071
1.0066385655433827,0.08556714248621351,0.012385852803986607,0.049462130528264495,0.023391012693758713,0.04879374309120674
1.006685647568513,0.10493697207975199,0.012749934855302559,0.06485229624100503,0.022553987257308127,0.06420607039866358
1.0067327295936435,0.12014720761669652,0.012822049672661998,0.07640706666955516,0.01978280266198585,0.07583431116701617
1.0067798116187738,0.12974860817624662,0.012672844457871119,0.08294186479002422,0.017033910573187226,0.08244178398026818
1.0068268936439042,0.1331160769266914,0.014269447207029069,0.08436945777741765,0.013454327483674755,0.08396522610426872
1.0068739756690346,0.13051634907150206,0.014637452599368495,0.08386978816652868,0.012113944277324583,0.08350190814871017
1.006921057694165,0.12301693370584733,0.012048063673484051,0.08185258015702256,0.011026933010065049,0.08151472386380014
1.0069681397192953,0.11219272060745543,0.00789192029091765,0.07585112215539112,0.009765107349434882,0.07554938206159448
1.0070152217444257,0.09964098937742749,0.0038972764988866966,0.06985230351433948,0.008707122736883531,0.06958145028785094
1.007062303769556,0.08648287672211809,0.0007534472434530537,0.06302251331950957,0.006264282551014122,0.06282160269615017
1.0071093857946865,0.07315337862299943,-0.0010371188227611366,0.053521194673379444,0.004007060059096198,0.05338680426650365
1.0071564678198168,0.05967551136841471,-0.0020219623097031893,0.042771215350936226,0.0032188228196121577,0.042663068424834194
1.0072035498449472,0.046352747241279996,-0.004004058946302952,0.029687677967592516,0.001947264083778642,0.029620551547899693
1.0072506318700776,0.03458526276589038,-0.004992432419794517,0.01916866027493343,0.0007236222583180097,0.019140401745559428
1.007297713895208,0.02727830692374265,-0.004849309468620708,0.01473006896934623,-0.0008548480601386461,0.014748402131840999
1.0073447959203383,0.0280866607277734,-0.003854218930663012,0.01711698325886342,-0.0020308202847238448,0.017167760033459618
1.0073918779454687,0.03925806445151868,-0.0015628600661054702,0.028584290137595406,-0.002830378597140864,0.028653160402513114
1.007438959970599,0.059562255279517966,0.0017955755718303099,0.043832242766228824,-0.0035989865710483668,0.043916787292221524
1.0074860419957294,0.08449757331606145,0.005344888690497003,0.058037587268334905,-0.005018931934397742,0.05815678943095614
1.0075331240208598,0.10858230355013457,0.008622148155317297,0.06858033205585247,-0.0054680648909505684,0.06870800493144313
1.0075802060459902,0.12742598805780986,0.011324138053265737,0.07621925524513734,-0.004709646211864968,0.07632211027595377
1.0076272880711206,0.13840784538629322,0.012748631407503291,0.07904744927672683,-0.003852135341598748,0.07912471701567393
1.007674370096251,0.14057521646913557,0.011851279119584052,0.0769603579802706,-0.001059773202180742,0.07695937703569147
