freq,gls,usurper,pdc_unbiased,shape_periodogram,shift_periodogram
1.0,0.02176245538732735,0.045235337293787634,-0.007335655112181927,0.036683744094866695,-0.014224069061220274
1.0000470820251304,0.05134779247241603,0.09296300085384296,0.016081221596065367,0.08140252529636105,0.0002195813275395634
1.0000941640502607,0.09689124580742478,0.14567036087379553,0.05094334186944231,0.1323958026054317,0.024960440140982382
1.0001412460753911,0.14848755125694818,0.19821571282380723,0.08456655871201842,0.18063735785085144,0.04951333022818993
1.0001883281005215,0.19664060203551523,0.24042007541194857,0.10917973127593883,0.22025021512067391,0.06718943838241202
1.0002354101256519,0.23592916525893703,0.26979602245260076,0.12678225514793529,0.24850423141428135,0.08019472013567563
1.0002824921507822,0.26363730657080775,0.29010334630646506,0.13936052532630389,0.2666886993002773,0.09004128839722253
1.0003295741759126,0.2780607972143743,0.3021495039033913,0.14663287491158739,0.2774493990319756,0.09577426437474561
1.000376656201043,0.27778293516045677,0.30673137750013557,0.14742341655727248,0.2819631161485006,0.09584120719377336
1.0004237382261734,0.2619162710265795,0.30197555110437185,0.139633635428265,0.2782309019040773,0.08835856239833685
1.0004708202513037,0.23107843684954268,0.2850975820699776,0.12167319492364326,0.2646443121114203,0.07209946506401214
1.0005179022764341,0.1884924826566669,0.2616073629900729,0.09811663264576473,0.24604741108908962,0.05122753973286882
1.0005649843015645,0.1401213853463462,0.24581714005309035,0.07552593926328457,0.23533609163395444,0.030172153855381675
1.0006120663266949,0.09311329616242185,0.2410011725851414,0.056936636782797936,0.23502706752870473,0.011346585714373346
1.0006591483518252,0.05338098213176131,0.24776184346758512,0.04656239048066332,0.24388851268626993,-0.000916852282612462
1.0007062303769556,0.024158292773911582,0.25715602683777383,0.0379052596807291,0.25509372095199634,-0.011946703227644063
1.000753312402086,0.006389706849983347,0.2580342449356718,0.024925530867037873,0.25982914813966435,-0.026105214697127233
1.0008003944272164,4.4957735270936574e-05,0.2571033946724795,0.013623927240606612,0.2594441984115762,-0.037501598515286554
1.0008474764523467,0.004476680458159687,0.2580114433031969,0.005279248516488982,0.26361375818701527,-0.046839332633294734
1.000894558477477,0.016631009383087918,0.2709536545181058,0.00604487589630294,0.27851677771447864,-0.04922098376471767
1.0009416405026075,0.030279800796216314,0.3014847419918527,0.01614856324889533,0.30707622418692726,-0.045004302340313794
1.0009887225277379,0.04019506929021177,0.3439978689554376,0.031662352407458065,0.34602514135506607,-0.03736476192284486
1.0010358045528682,0.045271217739530065,0.39071381284486834,0.049643587368788454,0.3878679732845184,-0.027535226345571116
1.0010828865779986,0.04665854735345898,0.4243875532897559,0.06394396252727896,0.4223866370245308,-0.01972848960940747
1.001129968603129,0.04557434040645729,0.43923873041986267,0.06951556918541625,0.44033629333130314,-0.01760956805640443
1.0011770506282593,0.04281463251624272,0.4334380012562697,0.06676401531502141,0.43952164940913957,-0.020454574120406507
1.0012241326533897,0.03911406922799136,0.412047925013351,0.05756222886158259,0.4230015435715133,-0.026810062357206847
1.00127121467852,0.035734840091298535,0.38161744730339103,0.04469056838221148,0.396477549465951,-0.03474166286435636
1.0013182967036505,0.034632288517627896,0.3582647425555849,0.03354469161607427,0.37625602464070135,-0.04206879069320228
1.0013653787287808,0.03686446430802818,0.3586768269758863,0.03235087082016887,0.3751367796032381,-0.04308067842934034
1.0014124607539112,0.040499198873267514,0.37929695847434436,0.04235422606047071,0.3918672804822556,-0.03620553139979087
1.0014595427790416,0.04245011553894062,0.40731525269275864,0.05148956578485458,0.41679189998825955,-0.031998775853522385
1.001506624804172,0.04142424671447975,0.4278251901587979,0.057489670337512934,0.43434901213412297,-0.029455940057622473
1.0015537068293023,0.03772147907862947,0.4312291840900595,0.05838903434484734,0.4366433966018827,-0.028994416234091717
1.0016007888544327,0.032149333674356434,0.4156302657781317,0.05286952532393206,0.4196359589728876,-0.031147102991363692
1.001647870879563,0.025799799790141527,0.38048132292476367,0.040386054375886556,0.38438394708359014,-0.0366287774032912
1.0016949529046935,0.020580986012262138,0.3330194928102893,0.02276083148008517,0.33773436509402893,-0.04483446860323874
1.0017420349298238,0.01993155776046648,0.29148210532767294,0.008396000375120035,0.2977133601229001,-0.050940700444596046
1.0017891169549542,0.027489951613850306,0.2725920535550255,0.00883020356959996,0.2794458888885441,-0.04658141657073765
1.0018361989800846,0.042074300128446054,0.2740477987809425,0.022145335055818467,0.28216895505064205,-0.03356650878281829
1.001883281005215,0.05845891480384451,0.2893912916403889,0.04104344236602053,0.2977970165474155,-0.01741928347703967
1.0019303630303453,0.07582159493280267,0.3067713670979606,0.05832937685591873,0.31190334931925445,-0.002419334776204013
1.0019774450554757,0.09824195100672209,0.31384985591075193,0.07041397317164165,0.311503185584199,0.010221839887444361
1.002024527080606,0.1303669711588208,0.2993792766131527,0.07896421651578898,0.29175890955182354,0.022945461875353828
1.0020716091057364,0.17464242099810953,0.27639348074250436,0.08832693698111686,0.26665980621738417,0.0373681529403298
1.0021186911308668,0.22917237164395338,0.2770632264350495,0.11355266104308831,0.2610491718145082,0.0643614036976195
1.0021657731559972,0.2864808872447173,0.2991744326047393,0.14880372324738836,0.2750517273513856,0.09843497696198668
1.0022128551811276,0.335488571803669,0.3241568678737278,0.17945522269565434,0.29346699573214585,0.12753813915468604
1.002259937206258,0.3667004160945303,0.3396010237799055,0.20044309409803335,0.3042860127512183,0.14807606102863108
1.0023070192313883,0.37630521047742305,0.3422412909184537,0.20989430295355302,0.30415075220659715,0.1581196877791304
1.0023541012565187,0.3658732131217113,0.33281243262438476,0.20800353236518512,0.2937744132426136,0.15759530310586553
1.002401183281649,0.3393357840705059,0.31326742010884145,0.19716291122807472,0.27538457073655387,0.14887699848223257
1.0024482653067794,0.30043566038503033,0.28593522597688986,0.1783931936762516,0.25070546079595035,0.13310370217516815
1.0024953473319098,0.25183659939415354,0.2518305029661891,0.15384153094853617,0.2193702641759791,0.1129097813528852
1.0025424293570402,0.1956066522565673,0.2065419632291411,0.12081929242955049,0.17962482670641072,0.08619781102940564
1.0025895113821706,0.13475970805500284,0.1456095524778692,0.07564140824241966,0.12796631913905018,0.05033651833003138
1.002636593407301,0.07582916802294695,0.08122777143159128,0.025728531183742454,0.07517666910568481,0.010915307571678618
1.0026836754324313,0.03145358980808763,0.043503494595189506,-0.0040036080406334615,0.040785162592499084,-0.011738547349807022
1.0027307574575617,0.01779891286180085,0.04042037243843418,-0.006351274616742859,0.034459867384694996,-0.01283091947586872
1.002777839482692,0.04358985242398123,0.055844509754248796,0.006591376950054447,0.05116232678090712,-0.0033188641154185032
1.0028249215078224,0.1037077589167159,0.09356832944426421,0.04281328660270074,0.08671910700536065,0.02556527358808226
1.0028720035329528,0.18101238562213362,0.15683681279671574,0.0979436666785688,0.14495665564565796,0.06944573261695076
1.0029190855580832,0.25636899888384335,0.2250948456519383,0.15380629462607742,0.20214480525594558,0.11574931082359231
1.0029661675832136,0.31832235074100634,0.2820158306969426,0.19704252226634572,0.24196697009336995,0.15377243318083142
1.003013249608344,0.36361141655314383,0.3179559705858775,0.228525784613192,0.2685441136877735,0.18274549587923003
1.0030603316334743,0.39341420767750745,0.3411233570580416,0.24979870354304085,0.2853918370776904,0.20294336665152746
1.0031074136586047,0.4102870696014962,0.35392181355214025,0.26258314989231946,0.29435386396872254,0.2154110057570028
1.003154495683735,0.41662904201390033,0.358499543035857,0.266777273312063,0.2969331090878968,0.21957247097317045
1.0032015777088654,0.41405085665469693,0.35576922501431174,0.26326150551395927,0.2932535255514098,0.21626517171723864
1.0032486597339958,0.4030953535584088,0.3456028386263614,0.251751202986526,0.2831243289662253,0.20529773796884587
1.0032957417591262,0.38301151602067063,0.3277458618349013,0.2324239377319079,0.266505798248288,0.18711512460106974
1.0033428237842565,0.3514583105172215,0.30149873953259815,0.2047530276495091,0.24314651523003467,0.1615861653990838
1.003389905809387,0.3042863356687068,0.2666146402338775,0.16911475512504195,0.2135443774040714,0.1294933224280861
1.0034369878345173,0.2364892670841809,0.223649645810549,0.12615890065588273,0.17838997585949978,0.09180150978267312
1.0034840698596477,0.14805992805189566,0.1758391736317461,0.07745804013496241,0.14136570718409,0.04966039206444515
1.003531151884778,0.05937981673678241,0.14134918343291453,0.035632586371168055,0.11807631605525884,0.012502452880733865
1.0035782339099084,0.016571701488668728,0.13927140982264283,0.012038086514572617,0.12530814819243952,-0.012243041292370803
1.0036253159350388,0.04141534161646615,0.1809082611923792,0.014399178728297872,0.1721671298766342,-0.019072114074208703
1.0036723979601692,0.0978579156313711,0.24986719120632714,0.03595348541122598,0.24368176993117013,-0.01163962600723691
1.0037194799852995,0.14599333246590304,0.3278890273691246,0.06503465797160808,0.32486465166114276,0.001947530738357143
1.00376656201043,0.17300879075255565,0.39563507503400974,0.0922030709843016,0.3951261861383984,0.016678701418854892
1.0038136440355603,0.18229222765708752,0.4442013396613154,0.11374971918924169,0.4453014835611485,0.03038554920159152
1.0038607260606907,0.18262972424027749,0.47481280501801715,0.12736778710133306,0.47743234776542554,0.039504287538435115
1.003907808085821,0.18292620727983336,0.4902935968878214,0.13485525602086357,0.49373164008251097,0.04499064546901011
1.0039548901109514,0.18798821740501145,0.49663993590130917,0.13913083302593265,0.49746083147092657,0.049241980074699467
1.0040019721360818,0.19658928748535154,0.4935078790640909,0.1397247738744464,0.4920422530065792,0.05094084951739776
1.0040490541612122,0.20361099360789395,0.48219826052579595,0.1356935801867525,0.4758214191668016,0.04932391912394544
1.0040961361863425,0.20356945018764083,0.4609231843169795,0.1287855413388881,0.4489708044074693,0.046514478185180425
1.004143218211473,0.19261735903368254,0.4265056492874665,0.11776025800915435,0.4117928960607347,0.04127433336639325
1.0041903002366033,0.1692114287165738,0.377373728657305,0.09836742477706704,0.3627009686786712,0.02966661714219677
1.0042373822617336,0.13469585530973552,0.32023313689743643,0.07519967777083232,0.3075474457301992,0.015977707076654735
1.004284464286864,0.094068350002802,0.26593368450813404,0.051842634052145065,0.2547037437304628,0.002320719489729595
1.0043315463119944,0.0558705414627791,0.21830129712524413,0.03082107495389939,0.20832702743807383,-0.009788643137669122
1.0043786283371248,0.029785725493520713,0.1871972622107797,0.019809015244991575,0.17733035454432136,-0.014697199648182857
1.0044257103622551,0.022326134922130727,0.1727352108272966,0.01684685304795892,0.16212206607555404,-0.014658693190413442
1.0044727923873855,0.03362727707623793,0.17263291052445304,0.01768087969631584,0.16233257399892512,-0.01387023905295496
1.004519874412516,0.057935866130881315,0.18456572625947704,0.0238553638180855,0.17515649165249925,-0.010233255795400709
1.0045669564376463,0.08691312585069338,0.2094270828408166,0.038233159934289905,0.20044526376138866,-0.0007947769219784327
1.0046140384627766,0.11302745450084833,0.24137140912849936,0.05542672474865837,0.23376614248857278,0.010059750177655702
1.004661120487907,0.13143773576861661,0.271516723164239,0.07126698378066398,0.2673461300789581,0.019716020204203082
1.0047082025130374,0.140315951549541,0.2943176387066965,0.0817840112464661,0.2938999909489443,0.025454536575031095
1.0047552845381678,0.14016084842095028,0.30493311945474133,0.0846685751900148,0.30933148230956736,0.025490418052448328
1.0048023665632981,0.13271042804166153,0.3023353160117286,0.08028160564993014,0.3107242663187314,0.02064937718575397
1.0048494485884285,0.1199532079956697,0.2881254255265892,0.06958311394397716,0.3010177887997837,0.011426733584400434
1.0048965306135589,0.10352759540252561,0.26262313437534246,0.05738407400153901,0.2788702797500689,0.0032136042822693525
1.0049436126386893,0.08458770500586026,0.22962879344998513,0.04469505929439128,0.24799975458276188,-0.003627308648915574
1.0049906946638196,0.06411017510052013,0.1962509012287504,0.03435472552873721,0.21590909709586392,-0.007732533547461832
1.00503777668895,0.043500849939608656,0.1647628343270318,0.022887706523455283,0.18375444826594894,-0.012888868352490075
1.0050848587140804,0.02497562650004661,0.1342907164803876,0.013888116903115118,0.1510384334481402,-0.015426988955350626
1.0051319407392107,0.011013597455985432,0.11130445818224495,0.011624969459267675,0.12426335766183384,-0.012448749362734657
1.0051790227643411,0.003334338693202587,0.09250149779677237,0.009001101837417943,0.10291926152508633,-0.010904440533500103
1.0052261047894715,0.0027948227754708652,0.07284626556972244,0.005716764128480125,0.08116516498289758,-0.00994317911890609
1.0052731868146019,0.010164673003053454,0.05595855248474378,0.005314070387151807,0.06021645856363991,-0.006311193068956604
1.0053202688397322,0.026566180290056158,0.04543902708188506,0.008193549268036414,0.046023361713160515,-0.0007598235445371217
1.0053673508648626,0.05291846997433676,0.03987015982986785,0.011498759854167706,0.03803093221956929,0.004017026962743283
1.005414432889993,0.08828034555015178,0.039114780636512574,0.017065936640710815,0.03341257271619922,0.010368727162739793
1.0054615149151234,0.12763762777320273,0.042716721996262697,0.025647230237824777,0.032811546127852004,0.018913989660241517
1.0055085969402537,0.16155770115500132,0.051996514599908616,0.038076850744054896,0.03894954295446138,0.029961676986037935
1.0055556789653841,0.18078890709766565,0.0627138171218668,0.05135766337998839,0.04920514918110121,0.04108135486417405
1.0056027609905145,0.18307418566708303,0.0702056250204587,0.06056084021799014,0.05935959674141984,0.04822926333943537
1.0056498430156449,0.1741533504439713,0.07382308254107386,0.06655908741414072,0.06500106358251422,0.05308231897911704
1.0056969250407752,0.16242605985016223,0.07605003140316642,0.07063087442771013,0.06895464468246629,0.05635841084173451
1.0057440070659056,0.15418810481596457,0.07859537912739585,0.07107575192890922,0.07269373274149298,0.056098846784563894
1.005791089091036,0.1523552110015489,0.07915914772217465,0.0660360559428213,0.07460569665787503,0.05076737060244229
1.0058381711161664,0.15691036178882456,0.07948515510404995,0.06130313889977103,0.0764314884265508,0.04575413020706013
1.0058852531412967,0.16538784679386007,0.08471606858910596,0.06307528196508604,0.08073649287993251,0.04669600750547532
1.005932335166427,0.17322460684996496,0.08880267237685215,0.06323184659303546,0.08543589576871506,0.04596987929124847
1.0059794171915575,0.17475929729964576,0.08822336527899201,0.05880087400333982,0.08621260426933756,0.04144693216728971
1.0060264992166879,0.16548577922015562,0.08370511170377785,0.05204155960234529,0.0825273416249864,0.03546635742636535
1.0060735812418182,0.1445721481217929,0.07573173609064011,0.04234591607178599,0.07527196209505121,0.027273727410653373
1.0061206632669486,0.11538472372115638,0.06931291924754407,0.03266210113426135,0.0676230495762666,0.019184377883457164
1.006167745292079,0.08342022676517998,0.062125995304392,0.0259645785337829,0.05956214815406041,0.014126819827483792
1.0062148273172093,0.053714935068683495,0.057354000922340796,0.01794830890199036,0.05409423616052739,0.007285246572493634
1.0062619093423397,0.029620632829972474,0.051824653151622886,0.006428025048282717,0.049089651705779225,-0.00308220133953586
1.00630899136747,0.012907514843990737,0.046336935237961514,-0.004503164505502606,0.045614209066432584,-0.013156011369766659
1.0063560733926005,0.004292560353454192,0.046121745320079864,-0.010519166817943732,0.047503068009163804,-0.01942844465071678
1.0064031554177308,0.0038095921685766332,0.053499729884602484,-0.007972360122875525,0.05674544908748605,-0.01870445738940616
1.0064502374428612,0.010924293923755681,0.07388312362717323,0.0013341291502741227,0.07900466471158855,-0.013841462100799794
1.0064973194679916,0.02453035587728399,0.09839319623941656,0.011333716656649779,0.10519250028549063,-0.009041798234461496
1.006544401493122,0.042966387475684646,0.12185044735080833,0.020787738978896356,0.13097621699243114,-0.004679976319457691
1.0065914835182523,0.06411092062196938,0.14392127868288393,0.03329944681240632,0.15257962888017015,0.0035650286659038217
1.0066385655433827,0.08556714248621351,0.16594656541474534,0.049462130528264495,0.17149763276244653,0.01604682136550025
1.006685647568513,0.10493697207975199,0.18582048010902222,0.06485229624100503,0.18691317678260871,0.028535384418067574
1.0067327295936435,0.12014720761669652,0.198568771571092,0.07640706666955516,0.19526446420105173,0.03858848387277149
1.0067798116187738,0.12974860817624662,0.20329286755852702,0.08294186479002422,0.19461399054998335,0.04529446101780045
1.0068268936439042,0.1331160769266914,0.19932375849582895,0.08436945777741765,0.1852189288781027,0.04846949269524141
1.0068739756690346,0.13051634907150206,0.18843238687305058,0.08386978816652868,0.16983949689716202,0.05080575999950162
1.006921057694165,0.12301693370584733,0.16998478335376627,0.08185258015702256,0.14979402533334812,0.05248593971339937
1.0069681397192953,0.11219272060745543,0.14658377487094837,0.07585112215539112,0.1266349699822719,0.050792072861409715
1.0070152217444257,0.09964098937742749,0.12138153583635623,0.06985230351433948,0.10126068397986557,0.049559680152071565
1.007062303769556,0.08648287672211809,0.09842715789528543,0.06302251331950957,0.07849836015086928,0.04706349419444667
1.0071093857946865,0.07315337862299943,0.07909338895303755,0.053521194673379444,0.05956208422159685,0.0412561206082604
1.0071564678198168,0.05967551136841471,0.06465013323049873,0.042771215350936226,0.045773966703930885,0.03328277707682568
1.0072035498449472,0.046352747241279996,0.05121281274079653,0.029687677967592516,0.035150535678670526,0.022438532175815
1.0072506318700776,0.03458526276589038,0.04276511532048182,0.01916866027493343,0.03008602458988292,0.013069402853902935
1.007297713895208,0.02727830692374265,0.04041668960277636,0.01473006896934623,0.03060992018795158,0.008609570319345899
1.0073447959203383,0.0280866607277734,0.046924733774074336,0.01711698325886342,0.03788955884475775,0.009563862988855597
1.0073918779454687,0.03925806445151868,0.06620823349729058,0.028584290137595406,0.05557344954071271,0.017464516967414485
1.007438959970599,0.059562255279517966,0.09132905269088583,0.043832242766228824,0.07755918161081297,0.02830597938299525
1.0074860419957294,0.08449757331606145,0.11535118042908338,0.058037587268334905,0.09869816772148082,0.0383464545832437
1.0075331240208598,0.10858230355013457,0.13369719228681573,0.06858033205585247,0.11639640562233135,0.04547582294520611
1.0075802060459902,0.12742598805780986,0.14413253340559185,0.07621925524513734,0.1263054995827873,0.05121920179531799
1.0076272880711206,0.13840784538629322,0.1457388774351254,0.07904744927672683,0.12816041172979836,0.05368816864798529
1.007674370096251,0.14057521646913557,0.1400754781263034,0.0769603579802706,0.12513238416619227,0.05217349098392484
1.0077214521213813,0.1345761316442056,0.12868744219198627,0.07084930100861353,0.1162766367227569,0.04774955762195869
1.0077685341465117,0.12269802495893224,0.11141163886105299,0.062425783036096825,0.10131842523170119,0.04219668476776169
1.007815616171642,0.10844877640211482,0.09331931515207278,0.054884533548136764,0.08472645662403815,0.0378586403244979
