freq,gls,usurper,pdc_unbiased,shape_periodogram,shift_periodogram
1.0,0.02176245538732735,0.015560733124370158,-0.007335655112181927,-0.0011098038798744742,-0.007317359761226184
1.0000470820251304,0.05134779247241603,0.018915344866088788,0.016081221596065367,-0.0027510306372008865,0.016122420884015286
1.0000941640502607,0.09689124580742478,0.02240619305534792,0.05094334186944231,0.001835684701929006,0.05090851394444655
1.0001412460753911,0.14848755125694818,0.024301405737040573,0.08456655871201842,0.009640533741592829,0.08441060307247149
1.0001883281005215,0.19664060203551523,0.027609528453793063,0.10917973127593883,0.020272192221539156,0.10887639889559635
1.0002354101256519,0.23592916525893703,0.03190545026564898,0.12678225514793529,0.029104330813768176,0.12637421723208253
1.0002824921507822,0.26363730657080775,0.034545196680985664,0.13936052532630389,0.03394213349735099,0.13890543988424542
1.0003295741759126,0.2780607972143743,0.03656675532401146,0.14663287491158739,0.03633723298690123,0.1461582060516838
1.000376656201043,0.27778293516045677,0.037337795732232865,0.14742341655727248,0.03775752001036938,0.14693535204168165
1.0004237382261734,0.2619162710265795,0.03574686821973946,0.139633635428265,0.03817896950350084,0.13913505530262052
1.0004708202513037,0.23107843684954268,0.03238625532208174,0.12167319492364326,0.03661374861380775,0.12117712234145828
1.0005179022764341,0.1884924826566669,0.028093176105774362,0.09811663264576473,0.03353268066700518,0.09764087832061581
1.0005649843015645,0.1401213853463462,0.025006254389804833,0.07552593926328457,0.03040961672630466,0.07507851630493664
1.0006120663266949,0.09311329616242185,0.02255937348657957,0.056936636782797936,0.02666818727531106,0.05653361196841689
1.0006591483518252,0.05338098213176131,0.02295851562501085,0.04656239048066332,0.021311842129399298,0.046234105873038014
1.0007062303769556,0.024158292773911582,0.022556128841874416,0.0379052596807291,0.015013259592075194,0.03766997060758906
1.000753312402086,0.006389706849983347,0.022724205093733747,0.024925530867037873,0.007928862282881465,0.024799053489111694
1.0008003944272164,4.4957735270936574e-05,0.023713779167318955,0.013623927240606612,0.0028372555245120175,0.013577837074461134
1.0008474764523467,0.004476680458159687,0.022300341635053112,0.005279248516488982,0.0012794511018239195,0.005258545364083689
1.000894558477477,0.016631009383087918,0.0258654627075697,0.00604487589630294,0.0030697975895334637,0.0059960350413538225
1.0009416405026075,0.030279800796216314,0.03282321576803362,0.01614856324889533,0.007465435740403198,0.016030026688080696
1.0009887225277379,0.04019506929021177,0.041159990178631714,0.031662352407458065,0.01725388667907484,0.03139302717507373
1.0010358045528682,0.045271217739530065,0.04617439821117199,0.049643587368788454,0.028980407466112214,0.04920542149089251
1.0010828865779986,0.04665854735345898,0.04929475022948095,0.06394396252727896,0.04176419380563716,0.06334036318846267
1.001129968603129,0.04557434040645729,0.05206626294273892,0.06951556918541625,0.05178847533339995,0.06879280618239114
1.0011770506282593,0.04281463251624272,0.05198297291872131,0.06676401531502141,0.056992414540122785,0.06597496642410544
1.0012241326533897,0.03911406922799136,0.04861839326354752,0.05756222886158259,0.05769160552120277,0.056749315052114814
1.00127121467852,0.035734840091298535,0.04382232805482696,0.04469056838221148,0.05611416482184289,0.04387690347617531
1.0013182967036505,0.034632288517627896,0.03906881694088606,0.03354469161607427,0.054699942896367405,0.032733343762813165
1.0013653787287808,0.03686446430802818,0.035396772105976144,0.03235087082016887,0.05343523320395196,0.03155545141047664
1.0014124607539112,0.040499198873267514,0.03531706403057241,0.04235422606047071,0.05381440613048572,0.04156767234458369
1.0014595427790416,0.04245011553894062,0.03580656132965585,0.05148956578485458,0.05552615950214307,0.05069411564875985
1.001506624804172,0.04142424671447975,0.03545447124362076,0.057489670337512934,0.05276379982345803,0.05673820803361269
1.0015537068293023,0.03772147907862947,0.03568918362493767,0.05838903434484734,0.046084179929739934,0.05772413714272202
1.0016007888544327,0.032149333674356434,0.03426769019653094,0.05286952532393206,0.036689067316592675,0.05232534450168659
1.001647870879563,0.025799799790141527,0.03097678949117281,0.040386054375886556,0.02430218396952193,0.0400128064809559
1.0016949529046935,0.020580986012262138,0.025086235445802234,0.02276083148008517,0.012354050908344096,0.022566217049160193
1.0017420349298238,0.01993155776046648,0.022873234470448374,0.008396000375120035,0.004105758282477498,0.008330674729369922
1.0017891169549542,0.027489951613850306,0.02272854807276173,0.00883020356959996,0.0025480727494134174,0.008789202425724316
1.0018361989800846,0.042074300128446054,0.022334998764755958,0.022145335055818467,0.006601879742529077,0.022039665016639457
1.001883281005215,0.05845891480384451,0.025743884022682788,0.04104344236602053,0.013908511807448221,0.04082483640750207
1.0019303630303453,0.07582159493280267,0.031607857587106165,0.05832937685591873,0.021752035469537242,0.05799660463031243
1.0019774450554757,0.09824195100672209,0.03580554066326045,0.07041397317164165,0.031227240650583587,0.06995333525044668
1.002024527080606,0.1303669711588208,0.03378637063730897,0.07896421651578898,0.039823226942137156,0.07839780825991967
1.0020716091057364,0.17464242099810953,0.029693369478558194,0.08832693698111686,0.045787947296097156,0.08769788289403084
1.0021186911308668,0.22917237164395338,0.030481359665128625,0.11355266104308831,0.05081926357941845,0.11290141107584496
1.0021657731559972,0.2864808872447173,0.03348601514876434,0.14880372324738836,0.05541366473282935,0.1481682584243286
1.0022128551811276,0.335488571803669,0.03641354049607276,0.17945522269565434,0.0593188583139559,0.1788530950533948
1.002259937206258,0.3667004160945303,0.03803798457466724,0.20044309409803335,0.06177734330851169,0.1998749603430297
1.0023070192313883,0.37630521047742305,0.03814458835566415,0.20989430295355302,0.06240323931825262,0.2093450983916508
1.0023541012565187,0.3658732131217113,0.03671359209135141,0.20800353236518512,0.061375339225871406,0.2074526224503098
1.002401183281649,0.3393357840705059,0.03529837177566931,0.19716291122807472,0.05888460503743959,0.196597462289541
1.0024482653067794,0.30043566038503033,0.03466277572902926,0.1783931936762516,0.05198353736991967,0.1778282232932939
1.0024953473319098,0.25183659939415354,0.03319934790592999,0.15384153094853617,0.04007274287725125,0.15333715565849118
1.0025424293570402,0.1956066522565673,0.028299725539120895,0.12081929242955049,0.025346697474923605,0.12045404740358374
1.0025895113821706,0.13475970805500284,0.02257227449313715,0.07564140824241966,0.008885703154467574,0.07549700786757818
1.002636593407301,0.07582916802294695,0.019618489437524637,0.025728531183742454,-0.0020565015791790325,0.025757635534226362
1.0026836754324313,0.03145358980808763,0.018859994418440572,-0.0040036080406334615,-0.00040034886909002713,-0.003996839703207465
1.0027307574575617,0.01779891286180085,0.021799148781756636,-0.006351274616742859,0.012932596194653216,-0.006553788718945108
1.002777839482692,0.04358985242398123,0.02173246228009381,0.006591376950054447,0.030868548892123045,0.006109545472592706
1.0028249215078224,0.1037077589167159,0.02850467157007277,0.04281328660270074,0.04463728795340837,0.04215203531358877
1.0028720035329528,0.18101238562213362,0.03733534686538248,0.0979436666785688,0.05515031027764884,0.09722596628837472
1.0029190855580832,0.25636899888384335,0.04671140226329168,0.15380629462607742,0.05684259783290321,0.15316975966904078
1.0029661675832136,0.31832235074100634,0.05552091418177379,0.19704252226634572,0.05351817900025531,0.19649911952300972
1.003013249608344,0.36361141655314383,0.05976131615400301,0.228525784613192,0.05278746049521685,0.22803674082135023
1.0030603316334743,0.39341420767750745,0.06067557530180996,0.24979870354304085,0.051261548466868055,0.24934752044256547
1.0031074136586047,0.4102870696014962,0.05949758035841038,0.26258314989231946,0.04860644671053062,0.26215687332259136
1.003154495683735,0.41662904201390033,0.057752387639523,0.266777273312063,0.045230263521487186,0.2663651268979054
1.0032015777088654,0.41405085665469693,0.055257578067861725,0.26326150551395927,0.040887159279481916,0.26286031460903786
1.0032486597339958,0.4030953535584088,0.05189129034115147,0.251751202986526,0.03573071362154641,0.25136469223157354
1.0032957417591262,0.38301151602067063,0.04746201540933998,0.2324239377319079,0.029607960470848797,0.23206600610427178
1.0033428237842565,0.3514583105172215,0.04188852682417034,0.2047530276495091,0.022606770523562202,0.20444656313353524
1.003389905809387,0.3042863356687068,0.03500157783994756,0.16911475512504195,0.015167221972745604,0.16888575431622693
1.0034369878345173,0.2364892670841809,0.026929388021942204,0.12615890065588273,0.0074864833242931006,0.1260325306350129
1.0034840698596477,0.14805992805189566,0.01888130490266585,0.07745804013496241,-1.3779580781583121e-05,0.0774487909900595
1.003531151884778,0.05937981673678241,0.013598937780785846,0.035632586371168055,-0.005290734314946635,0.03571150223320751
1.0035782339099084,0.016571701488668728,0.012825965739526888,0.012038086514572617,-0.005643307422441214,0.01212525748076321
1.0036253159350388,0.04141534161646615,0.019688014336116277,0.014399178728297872,0.001343878421299847,0.014376359274563015
1.0036723979601692,0.0978579156313711,0.031241777305237514,0.03595348541122598,0.013267293911585947,0.03574460813052332
1.0037194799852995,0.14599333246590304,0.04561303204199534,0.06503465797160808,0.025274193104584567,0.06465350790176377
1.00376656201043,0.17300879075255565,0.05515463190021713,0.0922030709843016,0.0364613892102636,0.09168786995753143
1.0038136440355603,0.18229222765708752,0.06185122460581256,0.11374971918924169,0.043062529731353896,0.11317740291953542
1.0038607260606907,0.18262972424027749,0.06414849873128961,0.12736778710133306,0.04784212225016771,0.12676320637761013
1.003907808085821,0.18292620727983336,0.0640535551451597,0.13485525602086357,0.0535532863308214,0.13421115426782554
1.0039548901109514,0.18798821740501145,0.06505214263633749,0.13913083302593265,0.05693300654088604,0.1384673828972433
1.0040019721360818,0.19658928748535154,0.06614218331243445,0.1397247738744464,0.05791366565401972,0.13905513233163483
1.0040490541612122,0.20361099360789395,0.06407285659351127,0.1356935801867525,0.05635729885822112,0.13502846466282406
1.0040961361863425,0.20356945018764083,0.05813569005492484,0.1287855413388881,0.05343988357427884,0.12813285089306245
1.004143218211473,0.19261735903368254,0.05058403836504668,0.11776025800915435,0.05053259981257718,0.11711761732515619
1.0041903002366033,0.1692114287165738,0.04214263420005928,0.09836742477706704,0.04472827300485459,0.09776118119252353
1.0042373822617336,0.13469585530973552,0.03329908328615021,0.07519967777083232,0.0360622091679459,0.07467815458544132
1.004284464286864,0.094068350002802,0.024103710679022124,0.051842634052145065,0.02628302711697836,0.051443580967084415
1.0043315463119944,0.0558705414627791,0.015974547688917817,0.03082107495389939,0.015280475894469653,0.030581626331403544
1.0043786283371248,0.029785725493520713,0.01119966559421865,0.019809015244991575,0.004684620281676561,0.019733394758058263
1.0044257103622551,0.022326134922130727,0.008831031063243101,0.01684685304795892,-0.0034025226408537683,0.016898203295540103
1.0044727923873855,0.03362727707623793,0.009287489192812566,0.01768087969631584,-0.0076996870307335695,0.017799894638558106
1.004519874412516,0.057935866130881315,0.012538401832738511,0.0238553638180855,-0.008119811355256626,0.02398041800211025
1.0045669564376463,0.08691312585069338,0.017645999774552692,0.038233159934289905,-0.0035533787776341236,0.03828429709414568
1.0046140384627766,0.11302745450084833,0.023326737921548848,0.05542672474865837,0.005858791393901685,0.05532944698212726
1.004661120487907,0.13143773576861661,0.028534308754213086,0.07126698378066398,0.01738690465614158,0.070998418238469
1.0047082025130374,0.140315951549541,0.0322637771954531,0.0817840112464661,0.029324915605849867,0.08135360023570809
1.0047552845381678,0.14016084842095028,0.03205857325219647,0.0846685751900148,0.039804322572295166,0.08410701732372491
1.0048023665632981,0.13271042804166153,0.028993506495712106,0.08028160564993014,0.04711791764103259,0.0796280237350214
1.0048494485884285,0.1199532079956697,0.024607308640963117,0.06958311394397716,0.05316443815144488,0.06884395629653783
1.0048965306135589,0.10352759540252561,0.021566908085198608,0.05738407400153901,0.056962174510157886,0.05657989404648281
1.0049436126386893,0.08458770500586026,0.01786153990683323,0.04469505929439128,0.056680072155531634,0.043873942675012795
1.0049906946638196,0.06411017510052013,0.015808169759816103,0.03435472552873721,0.053210969330060844,0.03356519717812476
1.00503777668895,0.043500849939608656,0.013252675322150654,0.022887706523455283,0.04760256127198413,0.022164255732837278
1.0050848587140804,0.02497562650004661,0.010887948049537518,0.013888116903115118,0.03986581916181533,0.01327210926897548
1.0051319407392107,0.011013597455985432,0.00857274125278858,0.011624969459267675,0.030883896342932864,0.01114474790816677
1.0051790227643411,0.003334338693202587,0.008038632750994349,0.009001101837417943,0.020192543774491388,0.008685221515208914
1.0052261047894715,0.0027948227754708652,0.00541671597623983,0.005716764128480125,0.009899526040528838,0.005561135058631012
1.0052731868146019,0.010164673003053454,0.003862387411725377,0.005314070387151807,0.00250561006912747,0.00527415210734567
1.0053202688397322,0.026566180290056158,0.005339671533464868,0.008193549268036414,-0.004756661968921409,0.008267203914040414
1.0053673508648626,0.05291846997433676,0.008133251431785076,0.011498759854167706,-0.009210263090061078,0.011642211448677386
1.005414432889993,0.08828034555015178,0.011216040157197238,0.017065936640710815,-0.00981557444195131,0.017218491236192308
1.0054615149151234,0.12763762777320273,0.014410123128606924,0.025647230237824777,-0.006921166659973925,0.025753100108288622
1.0055085969402537,0.16155770115500132,0.016609442015256416,0.038076850744054896,0.0002030245670708426,0.03806900215625439
1.0055556789653841,0.18078890709766565,0.01939792597880631,0.05135766337998839,0.009423616513407621,0.051206472816894756
1.0056027609905145,0.18307418566708303,0.020058580972859022,0.06056084021799014,0.01993739201568221,0.06025448452209747
1.0056498430156449,0.1741533504439713,0.02118981049188585,0.06655908741414072,0.02937277097354346,0.06612187214558507
1.0056969250407752,0.16242605985016223,0.020510990796397236,0.07063087442771013,0.03753689727643805,0.07008724025512512
1.0057440070659056,0.15418810481596457,0.01797552231928307,0.07107575192890922,0.04260730256677461,0.0704677380537675
1.005791089091036,0.1523552110015489,0.013736626770977749,0.0660360559428213,0.04433015655439983,0.06540147172941871
1.0058381711161664,0.15691036178882456,0.011540235753947168,0.06130313889977103,0.04519616007133222,0.06065273536746634
1.0058852531412967,0.16538784679386007,0.01054887685815622,0.06307528196508604,0.04467365369077955,0.06243337709560452
1.005932335166427,0.17322460684996496,0.008261844667395341,0.06323184659303546,0.042900903536635754,0.06261290510350116
1.0059794171915575,0.17475929729964576,0.0055152728950836226,0.05880087400333982,0.03880229799222593,0.058232148129747745
1.0060264992166879,0.16548577922015562,0.0032710296177571718,0.05204155960234529,0.03433556003803999,0.0515293277088551
1.0060735812418182,0.1445721481217929,0.0023722065968814062,0.04234591607178599,0.027941789691813,0.04192014914320178
1.0061206632669486,0.11538472372115638,0.0010337594475527524,0.03266210113426135,0.019866342572083112,0.032353495127786756
1.006167745292079,0.08342022676517998,0.0002544336812166464,0.0259645785337829,0.01234151363021296,0.025770052629570515
1.0062148273172093,0.053714935068683495,0.001815464458596793,0.01794830890199036,0.00712487246092765,0.017834904874640015
1.0062619093423397,0.029620632829972474,0.0039899250100013835,0.006428025048282717,0.003941385539210325,0.006365494576726163
1.00630899136747,0.012907514843990737,0.007355691351291771,-0.004503164505502606,0.0036797089165563723,-0.004560331191348
1.0063560733926005,0.004292560353454192,0.01217495589214081,-0.010519166817943732,0.0055928515957954245,-0.0106057108523254
1.0064031554177308,0.0038095921685766332,0.01842700989406671,-0.007972360122875525,0.007321176919809656,-0.008086368482612795
1.0064502374428612,0.010924293923755681,0.02690678408784234,0.0013341291502741227,0.012544518684697872,0.001137380160782048
1.0064973194679916,0.02453035587728399,0.033937149545234475,0.011333716656649779,0.0194890673665449,0.011028922865048748
1.006544401493122,0.042966387475684646,0.039392377003090825,0.020787738978896356,0.026196433718085405,0.020381725925375637
1.0065914835182523,0.06411092062196938,0.04225958947233956,0.03329944681240632,0.030718311374986946,0.03283001748456009
1.0066385655433827,0.08556714248621351,0.04571593544437002,0.049462130528264495,0.03354355143245914,0.048959558483580766
1.006685647568513,0.10493697207975199,0.04674504363153975,0.06485229624100503,0.034915881319040776,0.06433943064947323
1.0067327295936435,0.12014720761669652,0.04653017564817708,0.07640706666955516,0.03530501108143219,0.07589605957215156
1.0067798116187738,0.12974860817624662,0.042870267974454715,0.08294186479002422,0.03398764563534389,0.08245164250232369
1.0068268936439042,0.1331160769266914,0.04037703846621619,0.08436945777741765,0.0315776140482498,0.0839108794713081
1.0068739756690346,0.13051634907150206,0.03575326183990303,0.08386978816652868,0.029033352700098936,0.0834440618632371
1.006921057694165,0.12301693370584733,0.029727696600453143,0.08185258015702256,0.02560863140241585,0.08147164031207497
1.0069681397192953,0.11219272060745543,0.0222730003221143,0.07585112215539112,0.020916591829597438,0.07553316311667249
1.0070152217444257,0.09964098937742749,0.015439973145073544,0.06985230351433948,0.01607041734066443,0.06960258484895722
1.007062303769556,0.08648287672211809,0.010350945461854142,0.06302251331950957,0.012036618012041866,0.0628317392848629
1.0071093857946865,0.07315337862299943,0.007697954107409131,0.053521194673379444,0.008458778736247135,0.05338448947796277
1.0071564678198168,0.05967551136841471,0.004793647721403031,0.042771215350936226,0.003677246954857789,0.04270876160831535
1.0072035498449472,0.046352747241279996,0.0014191027182005797,0.029687677967592516,0.00033397586312172283,0.02967880471875325
1.0072506318700776,0.03458526276589038,-0.0001760362921623596,0.01916866027493343,-0.0006344209041350521,0.019176250048993728
1.007297713895208,0.02727830692374265,-0.00010443324882815171,0.01473006896934623,-0.0015282055968209166,0.014752227755612623
1.0073447959203383,0.0280866607277734,0.0011630391486681505,0.01711698325886342,-0.0019006918434163562,0.017144697222231768
1.0073918779454687,0.03925806445151868,0.005259203025328544,0.028584290137595406,0.0008059076152616281,0.02856816930948194
1.007438959970599,0.059562255279517966,0.01070502175035689,0.043832242766228824,0.00522544147145053,0.0437457719918957
1.0074860419957294,0.08449757331606145,0.015084853430575812,0.058037587268334905,0.011645912839263157,0.0578527202754072
1.0075331240208598,0.10858230355013457,0.0184086554888138,0.06858033205585247,0.017480556699681453,0.06831019151078715
1.0075802060459902,0.12742598805780986,0.02078023448180549,0.07621925524513734,0.0214827543488175,0.07589346264299007
1.0076272880711206,0.13840784538629322,0.021531652189792562,0.07904744927672683,0.023962963090936158,0.07868805321280914
1.007674370096251,0.14057521646913557,0.020676370795190677,0.0769603579802706,0.025109697787208434,0.07658476029510693
1.0077214521213813,0.1345761316442056,0.018664091465681872,0.07084930100861353,0.02466008890220291,0.07047822929616139
