freq,gls,usurper,pdc_unbiased,shape_periodogram,shift_periodogram
1.0,0.02176245538732735,0.03423055776763643,-0.007335655112181927,0.017888093154387632,-0.008681370755304915
1.0000470820251304,0.05134779247241603,0.05762817309465947,0.016081221596065367,0.033539044259481635,0.013481782361651342
1.0000941640502607,0.09689124580742478,0.08336988982874668,0.05094334186944231,0.05760445801281241,0.046489141238340095
1.0001412460753911,0.14848755125694818,0.10990186650973191,0.08456655871201842,0.08466800759952775,0.07819930839867242
1.0001883281005215,0.19664060203551523,0.1338452857138805,0.10917973127593883,0.11237423740693704,0.10105853436410545
1.0002354101256519,0.23592916525893703,0.1512767037668973,0.12678225514793529,0.1336760935210726,0.1174760342423359
1.0002824921507822,0.26363730657080775,0.16166961152911088,0.13936052532630389,0.1475044592554321,0.1293904934167751
1.0003295741759126,0.2780607972143743,0.1682779031637791,0.14663287491158739,0.15632522835106927,0.13627387289055157
1.000376656201043,0.27778293516045677,0.1708508790209502,0.14742341655727248,0.16068704873959108,0.13684295139331715
1.0004237382261734,0.2619162710265795,0.16710042300647862,0.139633635428265,0.1608041744386134,0.12893180220292838
1.0004708202513037,0.23107843684954268,0.15693932687729528,0.12167319492364326,0.1551711352247817,0.11104014076847105
1.0005179022764341,0.1884924826566669,0.14310825172176275,0.09811663264576473,0.14635421160314582,0.08773814990225272
1.0005649843015645,0.1401213853463462,0.13256239772617845,0.07552593926328457,0.13898139359513267,0.06540478237740707
1.0006120663266949,0.09311329616242185,0.12594551848433758,0.056936636782797936,0.13270432535519314,0.047094485244260596
1.0006591483518252,0.05338098213176131,0.12406317149371673,0.04656239048066332,0.12606589407209212,0.03712167250696237
1.0007062303769556,0.024158292773911582,0.12127347828823862,0.0379052596807291,0.11703319815949796,0.02907311028393609
1.000753312402086,0.006389706849983347,0.1156128300951001,0.024925530867037873,0.1040250073853468,0.017007321100406564
1.0008003944272164,4.4957735270936574e-05,0.11157396495235018,0.013623927240606612,0.09167165884521553,0.00661338722450826
1.0008474764523467,0.004476680458159687,0.1086071952572112,0.005279248516488982,0.08820282580044887,-0.001476706164002433
1.000894558477477,0.016631009383087918,0.11472277807139286,0.00604487589630294,0.09432482961730235,-0.0011802396900335663
1.0009416405026075,0.030279800796216314,0.13108554568558856,0.01614856324889533,0.10991337694351305,0.007757684823944211
1.0009887225277379,0.04019506929021177,0.1538389458509119,0.031662352407458065,0.13362745461425285,0.02157090454601577
1.0010358045528682,0.045271217739530065,0.17451993062436544,0.049643587368788454,0.16036443554604865,0.037777173109848225
1.0010828865779986,0.04665854735345898,0.18871151836967337,0.06394396252727896,0.1837889349853661,0.05065338979672312
1.001129968603129,0.04557434040645729,0.19572014725725473,0.06951556918541625,0.19863306576990086,0.05533313553360687
1.0011770506282593,0.04281463251624272,0.1926879936059543,0.06676401531502141,0.2023482797966471,0.05227870219254668
1.0012241326533897,0.03911406922799136,0.1809947967271498,0.05756222886158259,0.19686756830833385,0.04326430192714789
1.00127121467852,0.035734840091298535,0.16470005850596514,0.04469056838221148,0.1862081124332253,0.030912586791693307
1.0013182967036505,0.034632288517627896,0.15160439362510447,0.03354469161607427,0.17777181763842717,0.020209392974730525
1.0013653787287808,0.03686446430802818,0.14992310175252765,0.03235087082016887,0.17575269679304686,0.019148046494059347
1.0014124607539112,0.040499198873267514,0.15863244946464594,0.04235422606047071,0.18106878233714493,0.028908681815936175
1.0014595427790416,0.04245011553894062,0.17044816611830316,0.05148956578485458,0.18965260774228365,0.03758220383526872
1.001506624804172,0.04142424671447975,0.17783570148638936,0.057489670337512934,0.1927320228920692,0.04347517086047259
1.0015537068293023,0.03772147907862947,0.1783226015818017,0.05838903434484734,0.18694632211764603,0.04478891948708527
1.0016007888544327,0.032149333674356434,0.17037365970451313,0.05286952532393206,0.17140245954873903,0.04026499019112476
1.001647870879563,0.025799799790141527,0.15366700072239473,0.040386054375886556,0.1464402235407372,0.029423958754463023
1.0016949529046935,0.020580986012262138,0.130203509180992,0.02276083148008517,0.11757569314446893,0.013817118236802583
1.0017420349298238,0.01993155776046648,0.11261255258460767,0.008396000375120035,0.09494015986798278,0.00112757521577306
1.0017891169549542,0.027489951613850306,0.10772284448276029,0.00883020356959996,0.08939981721452477,0.001986457997172588
1.0018361989800846,0.042074300128446054,0.11124582516055463,0.022145335055818467,0.0972727373986256,0.014726939914913037
1.001883281005215,0.05845891480384451,0.12389375273061415,0.04104344236602053,0.11472815950000237,0.032394894536223955
1.0019303630303453,0.07582159493280267,0.13905133401266925,0.05832937685591873,0.13411865328200218,0.048398439701552685
1.0019774450554757,0.09824195100672209,0.14810275146935092,0.07041397317164165,0.1510275640823077,0.059428823609878785
1.002024527080606,0.1303669711588208,0.1447701307855042,0.07896421651578898,0.15797057362148575,0.06761405675267707
1.0020716091057364,0.17464242099810953,0.13662991869894384,0.08832693698111686,0.15929865219145145,0.07700807525556827
1.0021186911308668,0.22917237164395338,0.1394900109799451,0.11355266104308831,0.16334995501936922,0.10232712287017703
1.0021657731559972,0.2864808872447173,0.1505619273663224,0.14880372324738836,0.17156017511086133,0.13767718481588997
1.0022128551811276,0.335488571803669,0.16163616315195184,0.17945522269565434,0.17966415637551483,0.1685027725183966
1.002259937206258,0.3667004160945303,0.16778944303167864,0.20044309409803335,0.18340195372209167,0.18976064678607063
1.0023070192313883,0.37630521047742305,0.1678452473902273,0.20989430295355302,0.1812819203373928,0.19948877220204353
1.0023541012565187,0.3658732131217113,0.16219055046465006,0.20800353236518512,0.17371851741318775,0.19784839740342602
1.002401183281649,0.3393357840705059,0.15310648626328752,0.19716291122807472,0.16163263781065784,0.18731392303439054
1.0024482653067794,0.30043566038503033,0.1410319729041973,0.1783931936762516,0.14355774303969707,0.16911631429605578
1.0024953473319098,0.25183659939415354,0.12416617164649496,0.15384153094853617,0.11827957634118177,0.14567198793330965
1.0025424293570402,0.1956066522565673,0.09948594937416072,0.12081929242955049,0.08675592906122061,0.11440918683070307
1.0025895113821706,0.13475970805500284,0.06847945105480426,0.07564140824241966,0.048909781730446675,0.07180303299444785
1.002636593407301,0.07582916802294695,0.040486598723069624,0.025728531183742454,0.016629397826882705,0.02438826777137046
1.0026836754324313,0.03145358980808763,0.028756342136373098,-0.0040036080406334615,0.00566541011717528,-0.004424570581263686
1.0027307574575617,0.01779891286180085,0.036656956322285744,-0.006351274616742859,0.02106114952412276,-0.007942527892948253
1.002777839482692,0.04358985242398123,0.05036119836620947,0.006591376950054447,0.052411222495406015,0.0025738665754877275
1.0028249215078224,0.1037077589167159,0.07642317105843693,0.04281328660270074,0.08674517971252549,0.036216744885860165
1.0028720035329528,0.18101238562213362,0.11232297665881973,0.0979436666785688,0.11815195202034594,0.08937728227708769
1.0029190855580832,0.25636899888384335,0.14609870884847354,0.15380629462607742,0.1416066660559369,0.14433397987952867
1.0029661675832136,0.31832235074100634,0.17112000543467867,0.19704252226634572,0.15415405837379648,0.18752075402644144
1.003013249608344,0.36361141655314383,0.1851502612965825,0.228525784613192,0.16111393550646394,0.21922000245528067
1.0030603316334743,0.39341420767750745,0.19257371406158366,0.24979870354304085,0.1637063033201113,0.2407727868414497
1.0031074136586047,0.4102870696014962,0.19473851604225612,0.26258314989231946,0.16315409497389544,0.25380406189868826
1.003154495683735,0.41662904201390033,0.19342130906761007,0.266777273312063,0.15991474455582294,0.2581704535926638
1.0032015777088654,0.41405085665469693,0.18878657808783916,0.26326150551395927,0.15386151459927766,0.25478473369791843
1.0032486597339958,0.4030953535584088,0.18072519397174927,0.251751202986526,0.14470736261688696,0.2434138683663704
1.0032957417591262,0.38301151602067063,0.16896641326281175,0.2324239377319079,0.13236014108593677,0.2243228489722759
1.0033428237842565,0.3514583105172215,0.153054636046678,0.2047530276495091,0.11660386019632704,0.1970984292691589
1.003389905809387,0.3042863356687068,0.13261028753656406,0.16911475512504195,0.09785754951359499,0.16222458885658025
1.0034369878345173,0.2364892670841809,0.10837851435819605,0.12615890065588273,0.07659962168136852,0.12042838358158904
1.0034840698596477,0.14805992805189566,0.08246010396852872,0.07745804013496241,0.05475612457590629,0.07319688385616419
1.003531151884778,0.05937981673678241,0.06445679632990169,0.035632586371168055,0.039585243812801825,0.03253682418600364
1.0035782339099084,0.016571701488668728,0.06304287751406751,0.012038086514572617,0.038262183126963695,0.009088524564592379
1.0036253159350388,0.04141534161646615,0.0830194066970679,0.014399178728297872,0.05633567751928408,0.010072519249833073
1.0036723979601692,0.0978579156313711,0.11671794485670936,0.03595348541122598,0.0884820499947126,0.029217700161001812
1.0037194799852995,0.14599333246590304,0.15607873606699108,0.06503465797160808,0.12500739422351834,0.05578850878194042
1.00376656201043,0.17300879075255565,0.18731193674112923,0.0922030709843016,0.15775432237295342,0.08103225801432971
1.0038136440355603,0.18229222765708752,0.20837767409895736,0.11374971918924169,0.17914021455631576,0.10160366146865354
1.0038607260606907,0.18262972424027749,0.21912362655481102,0.12736778710133306,0.19325276336402328,0.1146971877798119
1.003907808085821,0.18292620727983336,0.22303280741270898,0.13485525602086357,0.20318312537164557,0.12183281141749028
1.0039548901109514,0.18798821740501145,0.22406124284196058,0.13913083302593265,0.20771442605311832,0.12598475696639366
1.0040019721360818,0.19658928748535154,0.22066361453541541,0.1397247738744464,0.20710830809929168,0.12662321564154666
1.0040490541612122,0.20361099360789395,0.21338001279679936,0.1356935801867525,0.20258228720362276,0.1227213034616411
1.0040961361863425,0.20356945018764083,0.20092593296477115,0.1287855413388881,0.194241401981121,0.11609214116885366
1.004143218211473,0.19261735903368254,0.1835110005534197,0.11776025800915435,0.18212185937449232,0.10551519494954543
1.0041903002366033,0.1692114287165738,0.16046448945218614,0.09836742477706704,0.16358143810756093,0.08691277154487367
1.0042373822617336,0.13469585530973552,0.1341295426428531,0.07519967777083232,0.1400487752291631,0.0650036308210788
1.004284464286864,0.094068350002802,0.10838723359484725,0.051842634052145065,0.11481951884224297,0.04323942720457583
1.0043315463119944,0.0558705414627791,0.08547419168480863,0.03082107495389939,0.08912726698454275,0.024028969925560244
1.0043786283371248,0.029785725493520713,0.07069512171838371,0.019809015244991575,0.06778122475260442,0.014611568560688846
1.0044257103622551,0.022326134922130727,0.06427466784536934,0.01684685304795892,0.05355533242036989,0.012727991300112521
1.0044727923873855,0.03362727707623793,0.06513203554159025,0.01768087969631584,0.04833816560857054,0.013956039792450034
1.004519874412516,0.057935866130881315,0.07220179697670281,0.0238553638180855,0.051464808519724646,0.01988524077998946
1.0045669564376463,0.08691312585069338,0.08591335668207246,0.038233159934289905,0.06430964259989463,0.033289459894272413
1.0046140384627766,0.11302745450084833,0.10401374668685866,0.05542672474865837,0.08585836741677529,0.04891636832494035
1.004661120487907,0.13143773576861661,0.12177843681623615,0.07126698378066398,0.10988349421834191,0.06310661781124229
1.0047082025130374,0.140315951549541,0.13674774151658176,0.0817840112464661,0.13247601135615214,0.07215297928173806
1.0047552845381678,0.14016084842095028,0.14386601346385133,0.0846685751900148,0.14961136496032673,0.07393333742057251
1.0048023665632981,0.13271042804166153,0.14322762666314381,0.08028160564993014,0.15931852073458844,0.0688592127577525
1.0048494485884285,0.1199532079956697,0.1371106037489538,0.06958311394397716,0.16386113910564892,0.057721782543304644
1.0048965306135589,0.10352759540252561,0.1290192720711145,0.05738407400153901,0.1620063747071077,0.04549521046539349
1.0049436126386893,0.08458770500586026,0.11739720872596292,0.04469505929439128,0.15424267180249213,0.033211044571981464
1.0049906946638196,0.06411017510052013,0.1063463165582736,0.03435472552873721,0.14254495623618607,0.0236251470448253
1.00503777668895,0.043500849939608656,0.09362114971993389,0.022887706523455283,0.1277382842209282,0.013180051589308616
1.0050848587140804,0.02497562650004661,0.07925595601837147,0.013888116903115118,0.10932841183931964,0.005534057584699105
1.0051319407392107,0.011013597455985432,0.0674710939916257,0.011624969459267675,0.09050313365326741,0.004700547679176625
1.0051790227643411,0.003334338693202587,0.05641886310565753,0.009001101837417943,0.07028437171503316,0.003617438883047138
1.0052261047894715,0.0027948227754708652,0.04174202305945452,0.005716764128480125,0.04833362705420149,0.0020119268741593714
1.0052731868146019,0.010164673003053454,0.028597751550733998,0.005314070387151807,0.028895133658474452,0.0030935759282569772
1.0053202688397322,0.026566180290056158,0.019700331679275825,0.008193549268036414,0.013660798604821806,0.007127295937618517
1.0053673508648626,0.05291846997433676,0.01518425305378635,0.011498759854167706,0.0050422029166739555,0.011080403647074319
1.005414432889993,0.08828034555015178,0.014374272751745855,0.017065936640710815,0.0018057226273030622,0.016878336613586266
1.0054615149151234,0.12763762777320273,0.01654653788906377,0.025647230237824777,0.003719279458357417,0.025288863167483536
1.0055085969402537,0.16155770115500132,0.022512656411772546,0.038076850744054896,0.013778811394415995,0.03691945831385768
1.0055556789653841,0.18078890709766565,0.031056447000752035,0.05135766337998839,0.029093932061238482,0.04901567077169883
1.0056027609905145,0.18307418566708303,0.03783173592572835,0.06056084021799014,0.04574090216912137,0.05696951042195105
1.0056498430156449,0.1741533504439713,0.043968987486477075,0.06655908741414072,0.05988624012301887,0.06193181415806066
1.0056969250407752,0.16242605985016223,0.04872771941407344,0.07063087442771013,0.0721642492403612,0.06512240616433639
1.0057440070659056,0.15418810481596457,0.0503595474492606,0.07107575192890922,0.08008361526415515,0.06500448012088206
1.005791089091036,0.1523552110015489,0.04893298711206625,0.0660360559428213,0.08314256621773444,0.05973914892191953
1.0058381711161664,0.15691036178882456,0.048628358489745685,0.06130313889977103,0.08365163612671254,0.054961726414143305
1.0058852531412967,0.16538784679386007,0.05096781318965501,0.06307528196508604,0.08282898585089181,0.056795736620013366
1.005932335166427,0.17322460684996496,0.05125552939611281,0.06323184659303546,0.07937740231056381,0.05719966063878404
1.0059794171915575,0.17475929729964576,0.04821225197935287,0.05880087400333982,0.072335477184373,0.053271544412464567
1.0060264992166879,0.16548577922015562,0.04359002030548184,0.05204155960234529,0.06361624410437765,0.04714564236618739
1.0060735812418182,0.1445721481217929,0.03806455815955102,0.04234591607178599,0.05280218059126941,0.038253789403471544
1.0061206632669486,0.11538472372115638,0.033427621048033235,0.03266210113426135,0.041944399865511295,0.029394575702464825
1.006167745292079,0.08342022676517998,0.030859998042729753,0.0259645785337829,0.03330343639356868,0.023361158148302717
1.0062148273172093,0.053714935068683495,0.03122077509036059,0.01794830890199036,0.02774348112362528,0.01578450730230163
1.0062619093423397,0.029620632829972474,0.031941156811539355,0.006428025048282717,0.024541782249435044,0.004536785754702332
1.00630899136747,0.012907514843990737,0.03205644372896377,-0.004503164505502606,0.023183952618332688,-0.006261869965260341
1.0063560733926005,0.004292560353454192,0.034028847284425436,-0.010519166817943732,0.02477250176089784,-0.012383430575170551
1.0064031554177308,0.0038095921685766332,0.0383192380513123,-0.007972360122875525,0.02760589777767138,-0.010060553933867062
1.0064502374428612,0.010924293923755681,0.04923009865257573,0.0013341291502741227,0.03798753851370007,-0.0015714935902034384
1.0064973194679916,0.02453035587728399,0.060787335789764994,0.011333716656649779,0.05174512746195852,0.007359937012536073
1.006544401493122,0.042966387475684646,0.0710645293156327,0.020787738978896356,0.06569101461959666,0.01574765857950375
1.0065914835182523,0.06411092062196938,0.07902211463003458,0.03329944681240632,0.07647817288364625,0.027451125863472887
1.0066385655433827,0.08556714248621351,0.08809564073695493,0.049462130528264495,0.0853336352631612,0.042979552072264594
1.006685647568513,0.10493697207975199,0.0943404767862596,0.06485229624100503,0.09129699890922573,0.05797310757169405
1.0067327295936435,0.12014720761669652,0.09698665531844079,0.07640706666955516,0.09378327834927103,0.06938531546104754
1.0067798116187738,0.12974860817624662,0.09520747487233863,0.08294186479002422,0.09195826673728984,0.07606626219514614
1.0068268936439042,0.1331160769266914,0.09194147831469855,0.08436945777741765,0.086100847740111,0.07790250624911857
1.0068739756690346,0.13051634907150206,0.08507365373410228,0.08386978816652868,0.07851473383528958,0.0779290915610472
1.006921057694165,0.12301693370584733,0.0746751616304406,0.08185258015702256,0.06824985089435161,0.07663029563186859
1.0069681397192953,0.11219272060745543,0.06184725562400215,0.07585112215539112,0.05603209857724124,0.0714989279088819
1.0070152217444257,0.09964098937742749,0.04901228981349862,0.06985230351433948,0.04370674608427441,0.0663983611889141
1.007062303769556,0.08648287672211809,0.03872824896883021,0.06302251331950957,0.03372269233535869,0.06031310851041856
1.0071093857946865,0.07315337862299943,0.031413790718595305,0.053521194673379444,0.025757908199634638,0.05142371317709228
1.0071564678198168,0.05967551136841471,0.026088518607820712,0.042771215350936226,0.019545358795711894,0.04116593960073801
1.0072035498449472,0.046352747241279996,0.021734570085011087,0.029687677967592516,0.01583838789923153,0.028396803107123825
1.0072506318700776,0.03458526276589038,0.02024430391681167,0.01916866027493343,0.015271567808172466,0.01794932864765593
1.007297713895208,0.02727830692374265,0.021985440086132266,0.01473006896934623,0.016324185806078542,0.013442777713181486
1.0073447959203383,0.0280866607277734,0.02841709079577593,0.01711698325886342,0.02123409040427114,0.01544979048906918
1.0073918779454687,0.03925806445151868,0.04272626093304493,0.028584290137595406,0.032895389126842964,0.02600599398793516
1.007438959970599,0.059562255279517966,0.0608234525600543,0.043832242766228824,0.047567681013168536,0.04012733360422393
1.0074860419957294,0.08449757331606145,0.0781129727041855,0.058037587268334905,0.06369664447015876,0.053135088905705036
1.0075331240208598,0.10858230355013457,0.09222692833340736,0.06858033205585247,0.07858141080920329,0.06261219285412001
1.0075802060459902,0.12742598805780986,0.10123761510638442,0.07621925524513734,0.08848128031922381,0.06956689401104336
1.0076272880711206,0.13840784538629322,0.10395214820196554,0.07904744927672683,0.09287934894371969,0.07209648507109967
1.007674370096251,0.14057521646913557,0.09983357865438876,0.0769603579802706,0.09257001684282395,0.07002471395660469
1.0077214521213813,0.1345761316442056,0.09143145152129853,0.07084930100861353,0.0874336535666262,0.06425782127536377
1.0077685341465117,0.12269802495893224,0.07900502771520151,0.062425783036096825,0.07753250700615594,0.05652496391908691
1.007815616171642,0.10844877640211482,0.06616481989565855,0.054884533548136764,0.06416136167506595,0.04994839535335694
