freq,gls,usurper,pdc_unbiased,shape_periodogram,shift_periodogram
1.0,0.02176245538732735,0.014705137081789542,-0.007335655112181927,0.008789711146668896,-0.007542453462664196
1.0000470820251304,0.05134779247241603,0.02039931566480993,0.016081221596065367,0.010390604180077433,0.015831061299203055
1.0000941640502607,0.09689124580742478,0.028627976992426283,0.05094334186944231,0.016231009058467468,0.050551980118382724
1.0001412460753911,0.14848755125694818,0.036057414975698,0.08456655871201842,0.026623252442326648,0.08394737051833541
1.0001883281005215,0.19664060203551523,0.04364698228270948,0.10917973127593883,0.04089092480684134,0.10828560771414572
1.0002354101256519,0.23592916525893703,0.050879856265221214,0.12678225514793529,0.05293355502569879,0.12569424824208564
1.0002824921507822,0.26363730657080775,0.055884472521233824,0.13936052532630389,0.06031181984939409,0.1381785821123248
1.0003295741759126,0.2780607972143743,0.059041251264179744,0.14663287491158739,0.06405483847683258,0.14541294834054067
1.000376656201043,0.27778293516045677,0.05967313898178988,0.14742341655727248,0.06649830153956404,0.14617198637884257
1.0004237382261734,0.2619162710265795,0.05735124972189895,0.139633635428265,0.06663302198446801,0.13836092456734103
1.0004708202513037,0.23107843684954268,0.05238563622924026,0.12167319492364326,0.06386791603470916,0.12039914382195298
1.0005179022764341,0.1884924826566669,0.04576005596908766,0.09811663264576473,0.059568164475816456,0.0968661113065603
1.0005649843015645,0.1401213853463462,0.040642616378257244,0.07552593926328457,0.054960802299175646,0.07432317429621335
1.0006120663266949,0.09311329616242185,0.03723488716535863,0.056936636782797936,0.04947969233854152,0.055820188871563724
1.0006591483518252,0.05338098213176131,0.03621553638449118,0.04656239048066332,0.042368276470336176,0.0455879038125154
1.0007062303769556,0.024158292773911582,0.034864250701913735,0.0379052596807291,0.03342492917465537,0.03712377505229047
1.000753312402086,0.006389706849983347,0.03412771783535954,0.024925530867037873,0.0232198213207595,0.02437455194642471
1.0008003944272164,4.4957735270936574e-05,0.03406544644456485,0.013623927240606612,0.014943733171714688,0.013267036234727997
1.0008474764523467,0.004476680458159687,0.032880803796204144,0.005279248516488982,0.012436168986340371,0.004983033998842295
1.000894558477477,0.016631009383087918,0.03741835987195168,0.00604487589630294,0.015664204504788122,0.005672158778266649
1.0009416405026075,0.030279800796216314,0.04588596958039055,0.01614856324889533,0.02362273316450092,0.015587982100327078
1.0009887225277379,0.04019506929021177,0.05619872538059691,0.031662352407458065,0.03687793762716248,0.030800498341772314
1.0010358045528682,0.045271217739530065,0.0637829771587966,0.049643587368788454,0.053170595276410694,0.048440744583906195
1.0010828865779986,0.04665854735345898,0.07068724477805192,0.06394396252727896,0.06845663614915233,0.062457120352469996
1.001129968603129,0.04557434040645729,0.07546919993652165,0.06951556918541625,0.08028968610542328,0.06782209047420473
1.0011770506282593,0.04281463251624272,0.07658383909202139,0.06676401531502141,0.08609718602098297,0.06495552272393153
1.0012241326533897,0.03911406922799136,0.07319242966163696,0.05756222886158259,0.08617707575285692,0.05571742293496079
1.00127121467852,0.035734840091298535,0.0666806496394885,0.04469056838221148,0.08291948206993587,0.0428632061901685
1.0013182967036505,0.034632288517627896,0.06079602384479993,0.03354469161607427,0.07952551694584407,0.03175149075510622
1.0013653787287808,0.03686446430802818,0.0570586482665025,0.03235087082016887,0.07734080926334914,0.030600673257064927
1.0014124607539112,0.040499198873267514,0.057009464594279795,0.04235422606047071,0.07752610531393408,0.04062934930547436
1.0014595427790416,0.04245011553894062,0.059364865592125324,0.05148956578485458,0.07960943969775587,0.04975062463241303
1.001506624804172,0.04142424671447975,0.06032098287913907,0.057489670337512934,0.07757592691576981,0.05580905513545486
1.0015537068293023,0.03772147907862947,0.06045797805554054,0.05838903434484734,0.07035036451602064,0.05685184168292832
1.0016007888544327,0.032149333674356434,0.056887851350659796,0.05286952532393206,0.05894812823858981,0.05155088171653811
1.001647870879563,0.025799799790141527,0.04958054710011621,0.040386054375886556,0.0433581841993744,0.03938519130774634
1.0016949529046935,0.020580986012262138,0.03924286510983095,0.02276083148008517,0.02703499803501783,0.022121418786247397
1.0017420349298238,0.01993155776046648,0.03387750961161084,0.008396000375120035,0.01535649912657214,0.008030192105855602
1.0017891169549542,0.027489951613850306,0.03284620789270118,0.00883020356959996,0.013470041221597276,0.008508865124654933
1.0018361989800846,0.042074300128446054,0.03377348196311713,0.022145335055818467,0.018320842481081064,0.021708281704538052
1.001883281005215,0.05845891480384451,0.04045865376816504,0.04104344236602053,0.028688362432839863,0.040369373862201526
1.0019303630303453,0.07582159493280267,0.046838320184154084,0.05832937685591873,0.04143156823628514,0.057383824517807165
1.0019774450554757,0.09824195100672209,0.0498708883160514,0.07041397317164165,0.05592909773156639,0.069184423074447
1.002024527080606,0.1303669711588208,0.046935519498970034,0.07896421651578898,0.0653184330587034,0.07757088364464285
1.0020716091057364,0.17464242099810953,0.04269688811690883,0.08832693698111686,0.07133873054381773,0.08684830934557795
1.0021186911308668,0.22917237164395338,0.043566748772252924,0.11355266104308831,0.07626561485092158,0.11206786615037483
1.0021657731559972,0.2864808872447173,0.048218564469289,0.14880372324738836,0.08157435261461551,0.14737053104851083
1.0022128551811276,0.335488571803669,0.05287539863885431,0.17945522269565434,0.0865641013488369,0.1780967966727035
1.002259937206258,0.3667004160945303,0.055413906080253615,0.20044309409803335,0.08958579593894411,0.19915766154478506
1.0023070192313883,0.37630521047742305,0.05554327429124202,0.20989430295355302,0.08993106541923146,0.208650573695044
1.0023541012565187,0.3658732131217113,0.053731562436948814,0.20800353236518512,0.08782308199086028,0.20676075947084807
1.002401183281649,0.3393357840705059,0.05179108915488364,0.19716291122807472,0.08390652460375124,0.19589660112615845
1.0024482653067794,0.30043566038503033,0.04936687209051424,0.1783931936762516,0.07520581063897305,0.1771294536950448
1.0024953473319098,0.25183659939415354,0.0446956328913155,0.15384153094853617,0.06046408644859298,0.15268737039556435
1.0025424293570402,0.1956066522565673,0.03634126936042022,0.12081929242955049,0.04171580487949902,0.11992010078216996
1.0025895113821706,0.13475970805500284,0.02801317263714897,0.07564140824241966,0.019271064919660474,0.07518067903745673
1.002636593407301,0.07582916802294695,0.022750158859635827,0.025728531183742454,0.0013159763537070606,0.02569011373794514
1.0026836754324313,0.03145358980808763,0.019668334777560956,-0.0040036080406334615,0.0001259587884696851,-0.004005469656295397
1.0027307574575617,0.01779891286180085,0.02207697804729574,-0.006351274616742859,0.016577929917713324,-0.0067438010435343105
1.002777839482692,0.04358985242398123,0.026210389742292242,0.006591376950054447,0.03971236860090551,0.005651611068745581
1.0028249215078224,0.1037077589167159,0.03972226041521656,0.04281328660270074,0.0593177882340845,0.04147020979807675
1.0028720035329528,0.18101238562213362,0.05713338691437581,0.0979436666785688,0.07071553994565502,0.09650120573021068
1.0029190855580832,0.25636899888384335,0.07183119361076643,0.15380629462607742,0.07615789675912803,0.15245219773084612
1.0029661675832136,0.31832235074100634,0.07990917024125818,0.19704252226634572,0.07868548925069326,0.19581250897042216
1.003013249608344,0.36361141655314383,0.0851231155013103,0.228525784613192,0.07949114173484166,0.22740558898345517
1.0030603316334743,0.39341420767750745,0.0866953319675562,0.24979870354304085,0.07744026517257668,0.24876410159068377
1.0031074136586047,0.4102870696014962,0.08554006468759229,0.26258314989231946,0.07485768017434478,0.26160115316925736
1.003154495683735,0.41662904201390033,0.08311419706266239,0.266777273312063,0.07121369770578274,0.2658209709165487
1.0032015777088654,0.41405085665469693,0.07927272354551236,0.26326150551395927,0.06625887727874845,0.2623166803653863
1.0032486597339958,0.4030953535584088,0.0739913364065717,0.251751202986526,0.05987379315305896,0.2508178419843529
1.0032957417591262,0.38301151602067063,0.06718945984289727,0.2324239377319079,0.05212535991344856,0.2315212647263416
1.0033428237842565,0.3514583105172215,0.05857901143422938,0.2047530276495091,0.04292097373674096,0.20392238356330988
1.003389905809387,0.3042863356687068,0.04788243608204901,0.16911475512504195,0.032627135544017576,0.16841415012535185
1.0034369878345173,0.2364892670841809,0.03572424844485305,0.12615890065588273,0.02149757872487528,0.12565443107142307
1.0034840698596477,0.14805992805189566,0.023588470625857786,0.07745804013496241,0.010350920697928137,0.07719702767890305
1.003531151884778,0.05937981673678241,0.015764802982770696,0.035632586371168055,0.002187053660230069,0.0355708463706118
1.0035782339099084,0.016571701488668728,0.0157297590329918,0.012038086514572617,-8.620120917933939e-05,0.012036742049721801
1.0036253159350388,0.04141534161646615,0.025725675467422604,0.014399178728297872,0.007567433792967502,0.01421600248484393
1.0036723979601692,0.0978579156313711,0.04266100960763985,0.03595348541122598,0.023981726590209185,0.035385508241022975
1.0037194799852995,0.14599333246590304,0.06381875717910117,0.06503465797160808,0.040866558620424924,0.06410599477377522
1.00376656201043,0.17300879075255565,0.07968120877819336,0.0922030709843016,0.05571045308517932,0.09101200512346377
1.0038136440355603,0.18229222765708752,0.09055705973675614,0.11374971918924169,0.06511330360737809,0.11243796574223747
1.0038607260606907,0.18262972424027749,0.0955880231780553,0.12736778710133306,0.07094187144064776,0.12600166732601217
1.003907808085821,0.18292620727983336,0.0986427173923064,0.13485525602086357,0.07590757760216293,0.13344302661148216
1.0039548901109514,0.18798821740501145,0.10090989080807784,0.13913083302593265,0.08018789820039987,0.13767868189261237
1.0040019721360818,0.19658928748535154,0.0996169268987337,0.1397247738744464,0.08221285617427627,0.13825035021407575
1.0040490541612122,0.20361099360789395,0.09417043838630479,0.1356935801867525,0.08297585443493675,0.13419477424601794
1.0040961361863425,0.20356945018764083,0.0854664834196946,0.1287855413388881,0.08050166411987375,0.12729257008976136
1.004143218211473,0.19261735903368254,0.07605761644586333,0.11776025800915435,0.07752434977492265,0.11627055832390153
1.0041903002366033,0.1692114287165738,0.06414069779133962,0.09836742477706704,0.07042212605214822,0.0969309727045812
1.0042373822617336,0.13469585530973552,0.05075524414125698,0.07519967777083232,0.058844979144421966,0.07392116285865867
1.004284464286864,0.094068350002802,0.03680483988588604,0.051842634052145065,0.04562243465959207,0.050802430458625106
1.0043315463119944,0.0558705414627791,0.02416193319612181,0.03082107495389939,0.030758343985736097,0.030097714585695243
1.0043786283371248,0.029785725493520713,0.015952760369447667,0.019809015244991575,0.016665272718304553,0.01941087508193847
1.0044257103622551,0.022326134922130727,0.01211705432116216,0.01684685304795892,0.005956948887692641,0.016701100459393558
1.0044727923873855,0.03362727707623793,0.012275767817372404,0.01768087969631584,0.000754366075938961,0.017658013313084996
1.004519874412516,0.057935866130881315,0.015948919249691877,0.0238553638180855,0.001040172861926194,0.023823998802709093
1.0045669564376463,0.08691312585069338,0.022642502147271235,0.038233159934289905,0.00786183757422169,0.038037418282999766
1.0046140384627766,0.11302745450084833,0.0306430998831332,0.05542672474865837,0.020939124426882273,0.054928526451267404
1.004661120487907,0.13143773576861661,0.03892522936584297,0.07126698378066398,0.03632322967083993,0.07043775128086392
1.0047082025130374,0.140315951549541,0.0460980681100444,0.0817840112464661,0.05140504110948278,0.0806592121932653
1.0047552845381678,0.14016084842095028,0.04822886519078644,0.0846685751900148,0.06392057798542591,0.08331317578052388
1.0048023665632981,0.13271042804166153,0.04711380180611955,0.08028160564993014,0.072912161261393,0.07875350789378235
1.0048494485884285,0.1199532079956697,0.043168850320206315,0.06958311394397716,0.07911530628519288,0.06791125719612755
1.0048965306135589,0.10352759540252561,0.0405423178910812,0.05738407400153901,0.08216296203687291,0.055614900246907184
1.0049436126386893,0.08458770500586026,0.03646589704501195,0.04469505929439128,0.08031897922214148,0.04292031272488058
1.0049906946638196,0.06411017510052013,0.033018533238399504,0.03435472552873721,0.07445233346466701,0.03267177042747568
1.00503777668895,0.043500849939608656,0.02789878776991211,0.022887706523455283,0.06688695617784206,0.02134289515078731
1.0050848587140804,0.02497562650004661,0.02237584418082644,0.013888116903115118,0.05771532825059526,0.012535805547608853
1.0051319407392107,0.011013597455985432,0.017028961433642048,0.011624969459267675,0.046991268749334486,0.01051836172252989
1.0051790227643411,0.003334338693202587,0.01403578056858817,0.009001101837417943,0.0338246156524239,0.008200650835950816
1.0052261047894715,0.0027948227754708652,0.00902094984941394,0.005716764128480125,0.01948741650106855,0.0052537136033091215
1.0052731868146019,0.010164673003053454,0.006210082513178317,0.005314070387151807,0.007947234167699543,0.005124146246869907
1.0053202688397322,0.026566180290056158,0.006113155328058802,0.008193549268036414,-4.3402208210346576e-05,0.008192271813651803
1.0053673508648626,0.05291846997433676,0.007679746928134295,0.011498759854167706,-0.004096277424008193,0.011592809213903701
1.005414432889993,0.08828034555015178,0.009007726707541108,0.017065936640710815,-0.004144246608134038,0.0171595837981525
1.0054615149151234,0.12763762777320273,0.011688694500406467,0.025647230237824777,-6.676079402695963e-05,0.02564159492350396
1.0055085969402537,0.16155770115500132,0.015063166365139588,0.038076850744054896,0.00907378641533524,0.03785283271467864
1.0055556789653841,0.18078890709766565,0.019497455447342493,0.05135766337998839,0.02060187842606441,0.050867013230243494
1.0056027609905145,0.18307418566708303,0.02176965760979381,0.06056084021799014,0.03265189272485497,0.05980495750744497
1.0056498430156449,0.1741533504439713,0.02471799886678757,0.06655908741414072,0.04356894150037748,0.06557523941811765
1.0056969250407752,0.16242605985016223,0.025772524088893738,0.07063087442771013,0.052784945867615535,0.0694640003563982
1.0057440070659056,0.15418810481596457,0.02442106626043588,0.07107575192890922,0.0582627688522435,0.0698014473126518
1.005791089091036,0.1523552110015489,0.02091715545636823,0.0660360559428213,0.059855914198505236,0.0647217278908321
1.0058381711161664,0.15691036178882456,0.01904306174074287,0.06130313889977103,0.05916390148332232,0.05999435114624244
1.0058852531412967,0.16538784679386007,0.018534398783647932,0.06307528196508604,0.05619432976613988,0.06182913905114113
1.005932335166427,0.17322460684996496,0.01741046681787783,0.06323184659303546,0.0510944134857036,0.06208949096783702
1.0059794171915575,0.17475929729964576,0.014230049533142226,0.05880087400333982,0.04361372206258266,0.0578094579019802
1.0060264992166879,0.16548577922015562,0.010542164596203808,0.05204155960234529,0.03631892903059086,0.051202184506067595
1.0060735812418182,0.1445721481217929,0.00714656212351478,0.04234591607178599,0.028323937466652335,0.04168032270391327
1.0061206632669486,0.11538472372115638,0.003790751494146499,0.03266210113426135,0.02075025343357278,0.032168179312993705
1.006167745292079,0.08342022676517998,0.0025233724300796293,0.0259645785337829,0.01440154369799125,0.02561850171673414
1.0062148273172093,0.053714935068683495,0.003935641458016944,0.01794830890199036,0.010665068790798314,0.017691287696153545
1.0062619093423397,0.029620632829972474,0.006438021780380555,0.006428025048282717,0.009313314793964246,0.0062054813646576805
1.00630899136747,0.012907514843990737,0.009334901189193808,-0.004503164505502606,0.00938937118507109,-0.004724918219543867
1.0063560733926005,0.004292560353454192,0.013950098516560037,-0.010519166817943732,0.011288345326544302,-0.01078473178986168
1.0064031554177308,0.0038095921685766332,0.019612008051146573,-0.007972360122875525,0.013333162848801908,-0.008287231805156801
1.0064502374428612,0.010924293923755681,0.02804649440871993,0.0013341291502741227,0.018660437101954284,0.0008910754857911857
1.0064973194679916,0.02453035587728399,0.03635119406869731,0.011333716656649779,0.02599030247596824,0.01071747746533394
1.006544401493122,0.042966387475684646,0.04327333657753335,0.020787738978896356,0.03281843236199857,0.020014330152986176
1.0065914835182523,0.06411092062196938,0.04837650639718951,0.03329944681240632,0.03856438895166142,0.032400457810825935
1.0066385655433827,0.08556714248621351,0.05416798488293295,0.049462130528264495,0.0433069545986077,0.04846956679866944
1.006685647568513,0.10493697207975199,0.056813628999541094,0.06485229624100503,0.04656580955054896,0.0638048239088627
1.0067327295936435,0.12014720761669652,0.05707135595134002,0.07640706666955516,0.04777217669509111,0.07534728724308337
1.0067798116187738,0.12974860817624662,0.053493020072137944,0.08294186479002422,0.04656050440407467,0.0819132007714393
1.0068268936439042,0.1331160769266914,0.04958392329329256,0.08436945777741765,0.042837276529722454,0.0834160270370053
1.0068739756690346,0.13051634907150206,0.04433422268096268,0.08386978816652868,0.0384242133826755,0.08300485500727794
1.006921057694165,0.12301693370584733,0.03762964136747465,0.08185258015702256,0.031282622134936405,0.08113413480770576
1.0069681397192953,0.11219272060745543,0.029266584799191225,0.07585112215539112,0.023143052657840613,0.07530542353275446
1.0070152217444257,0.09964098937742749,0.020386020765944826,0.06985230351433948,0.01548023109675516,0.06947631832826331
1.007062303769556,0.08648287672211809,0.01330820265010684,0.06302251331950957,0.009736593760282736,0.0627781079541938
1.0071093857946865,0.07315337862299943,0.008100801416072808,0.053521194673379444,0.005759291350907993,0.05337095794134455
1.0071564678198168,0.05967551136841471,0.0030735664882532722,0.042771215350936226,0.0023755999172365527,0.0427030908455233
1.0072035498449472,0.046352747241279996,-0.0004226728825326835,0.029687677967592516,0.0012931541566954712,0.02964870178676529
1.0072506318700776,0.03458526276589038,-0.002149476472432966,0.01916866027493343,0.002249142362420242,0.0191099667709034
1.007297713895208,0.02727830692374265,-0.0017224914215925413,0.01473006896934623,0.0033632173811782387,0.014646217097042549
1.0073447959203383,0.0280866607277734,0.0005026425448799878,0.01711698325886342,0.006070066073481111,0.016968489633305325
1.0073918779454687,0.03925806445151868,0.006538669542969231,0.028584290137595406,0.012060642782356003,0.02829243672243363
1.007438959970599,0.059562255279517966,0.014888557713135181,0.043832242766228824,0.019289516797754445,0.043371518254338645
1.0074860419957294,0.08449757331606145,0.022420617585006967,0.058037587268334905,0.027884403175683088,0.057385109655651786
1.0075331240208598,0.10858230355013457,0.02844431774950957,0.06858033205585247,0.03493282821482464,0.06777905908037088
1.0075802060459902,0.12742598805780986,0.03232946416014144,0.07621925524513734,0.03977907057640973,0.07532129931235713
1.0076272880711206,0.13840784538629322,0.034305187439919824,0.07904744927672683,0.04267404809770681,0.07809267933346233
1.007674370096251,0.14057521646913557,0.03348293977898814,0.0769603579802706,0.04356686111061014,0.0759856967684924
1.0077214521213813,0.1345761316442056,0.030069889065143764,0.07084930100861353,0.041945700936344484,0.06990262714083657
1.0077685341465117,0.12269802495893224,0.025365984918667508,0.062425783036096825,0.0364569172936711,0.06158887365598103
