freq,gls,usurper,pdc_unbiased,shape_periodogram,shift_periodogram
1.0,0.02176245538732735,0.04407947160443276,-0.007335655112181927,0.03366262524030434,-0.011495295275023574
1.0000470820251304,0.05134779247241603,0.0853945480535616,0.016081221596065367,0.0765004182465983,0.006405096901858901
1.0000941640502607,0.09689124580742478,0.1305475348849858,0.05094334186944231,0.1225496509220307,0.03552290227284083
1.0001412460753911,0.14848755125694818,0.17537374580494916,0.08456655871201842,0.16443770836237467,0.06437637028381946
1.0001883281005215,0.19664060203551523,0.21195709458356235,0.10917973127593883,0.19906382929992977,0.085472746171741
1.0002354101256519,0.23592916525893703,0.23827434755080146,0.12678225514793529,0.22476001213690147,0.1007670534610679
1.0002824921507822,0.26363730657080775,0.2572075167186781,0.13936052532630389,0.243021085973119,0.11189390014943272
1.0003295741759126,0.2780607972143743,0.2704500650117877,0.14663287491158739,0.2554991791620163,0.11822334605089403
1.000376656201043,0.27778293516045677,0.27851268385107225,0.14742341655727248,0.26335217200898436,0.11830371205729492
1.0004237382261734,0.2619162710265795,0.2795751230329312,0.139633635428265,0.26499026259394004,0.11004153078571811
1.0004708202513037,0.23107843684954268,0.27136443817896205,0.12167319492364326,0.2589537293580325,0.09198416359349283
1.0005179022764341,0.1884924826566669,0.2581544902873784,0.09811663264576473,0.24891301834360935,0.06868208513107431
1.0005649843015645,0.1401213853463462,0.2518736185798401,0.07552593926328457,0.24610866028411832,0.04571790303608002
1.0006120663266949,0.09311329616242185,0.25541020813561055,0.056936636782797936,0.2527584295442678,0.025789175996014355
1.0006591483518252,0.05338098213176131,0.26919604857040375,0.04656239048066332,0.2689032891334276,0.013086884232221959
1.0007062303769556,0.024158292773911582,0.28545594217092163,0.0379052596807291,0.28714715539180374,0.0017865661651540721
1.000753312402086,0.006389706849983347,0.2923179530445941,0.024925530867037873,0.2981497495113241,-0.013159677954556585
1.0008003944272164,4.4957735270936574e-05,0.2952225429619079,0.013623927240606612,0.3022891300185636,-0.025483679015160864
1.0008474764523467,0.004476680458159687,0.2998566948156623,0.005279248516488982,0.3087075755809403,-0.0350752624779275
1.000894558477477,0.016631009383087918,0.31497120390973643,0.00604487589630294,0.3239704515820404,-0.036476727079688104
1.0009416405026075,0.030279800796216314,0.34592593916551556,0.01614856324889533,0.3521224894313061,-0.029932555732870948
1.0009887225277379,0.04019506929021177,0.38828351507468106,0.031662352407458065,0.3910334370195451,-0.019000075984362944
1.0010358045528682,0.045271217739530065,0.4349157548734294,0.049643587368788454,0.43255776099534726,-0.005323992459835974
1.0010828865779986,0.04665854735345898,0.4694797730404601,0.06394396252727896,0.46580843367306174,0.005986345843198425
1.001129968603129,0.04557434040645729,0.4855932765762091,0.06951556918541625,0.48247369336279095,0.010020412736020003
1.0011770506282593,0.04281463251624272,0.48267797885904234,0.06676401531502141,0.4808854043327329,0.007101988142241793
1.0012241326533897,0.03911406922799136,0.4644237166169454,0.05756222886158259,0.4640876279622743,-0.0009643837781777821
1.00127121467852,0.035734840091298535,0.4361834652148461,0.04469056838221148,0.4375980650001854,-0.011522453044274027
1.0013182967036505,0.034632288517627896,0.41341741193765397,0.03354469161607427,0.41668125075585094,-0.020707762422485274
1.0013653787287808,0.03686446430802818,0.4123806255892279,0.03235087082016887,0.4149104278554207,-0.021749048696507685
1.0014124607539112,0.040499198873267514,0.4308959400933463,0.04235422606047071,0.43134961040016306,-0.013193736622237209
1.0014595427790416,0.04245011553894062,0.45826037058759544,0.05148956578485458,0.45600286407874074,-0.006623340747023574
1.001506624804172,0.04142424671447975,0.4777192790448921,0.057489670337512934,0.47428477571543454,-0.0025015381252150278
1.0015537068293023,0.03772147907862947,0.4799546001885612,0.05838903434484734,0.47778911544955505,-0.0019851249778982064
1.0016007888544327,0.032149333674356434,0.46371021649556216,0.05286952532393206,0.462395423436318,-0.005999576055985641
1.001647870879563,0.025799799790141527,0.42900275126780213,0.040386054375886556,0.42910022153807675,-0.015033395206002451
1.0016949529046935,0.020580986012262138,0.3821412979225477,0.02276083148008517,0.3842428862937583,-0.02759073425963447
1.0017420349298238,0.01993155776046648,0.33973450741231337,0.008396000375120035,0.3440463612360359,-0.03694270985464364
1.0017891169549542,0.027489951613850306,0.31797213289026466,0.00883020356959996,0.32341268891213887,-0.03348049790454091
1.0018361989800846,0.042074300128446054,0.3156134762885683,0.022145335055818467,0.3229808893041537,-0.01946932561805517
1.001883281005215,0.05845891480384451,0.3247091321747468,0.04104344236602053,0.33361754257983467,-0.001041111115441521
1.0019303630303453,0.07582159493280267,0.3362639006934807,0.05832937685591873,0.3432576012095284,0.015997053539679965
1.0019774450554757,0.09824195100672209,0.3377096090838036,0.07041397317164165,0.3378427755042027,0.02949114856446521
1.002024527080606,0.1303669711588208,0.3179224620826826,0.07896421651578898,0.3128100543038269,0.0415044140703246
1.0020716091057364,0.17464242099810953,0.2881626454995678,0.08832693698111686,0.28062447741101915,0.05499968942592566
1.0021186911308668,0.22917237164395338,0.27722427380332687,0.11355266104308831,0.2659988497353681,0.08282518169765937
1.0021657731559972,0.2864808872447173,0.2865426805200079,0.14880372324738836,0.270480918881636,0.11907569814247608
1.0022128551811276,0.335488571803669,0.2998841691963606,0.17945522269565434,0.2793832878375385,0.1503587077993979
1.002259937206258,0.3667004160945303,0.3058486622097011,0.20044309409803335,0.2819270704682225,0.17219754260305348
1.0023070192313883,0.37630521047742305,0.3019555352316809,0.20989430295355302,0.27584254017163895,0.1825643296057788
1.0023541012565187,0.3658732131217113,0.2890946189277695,0.20800353236518512,0.2622049906875806,0.18157220829256898
1.002401183281649,0.3393357840705059,0.2694917245114545,0.19716291122807472,0.24317863918445048,0.17175084237511828
1.0024482653067794,0.30043566038503033,0.24471205655989156,0.1783931936762516,0.2198886259724338,0.15431990174035465
1.0024953473319098,0.25183659939415354,0.2136081886346927,0.15384153094853617,0.19167073401613188,0.1317983672875031
1.0025424293570402,0.1956066522565673,0.17392561476382676,0.12081929242955049,0.15669637622513538,0.10188360888204614
1.0025895113821706,0.13475970805500284,0.1236895330200487,0.07564140824241966,0.11210138900879067,0.06151021893220443
1.002636593407301,0.07582916802294695,0.0717965566631579,0.025728531183742454,0.06655595607556841,0.017244130738278952
1.0026836754324313,0.03145358980808763,0.04201561536892836,-0.0040036080406334615,0.036907476443062415,-0.008594987690664978
1.0027307574575617,0.01779891286180085,0.03840169818603619,-0.006351274616742859,0.03065841939053743,-0.01014123245382498
1.002777839482692,0.04358985242398123,0.05022792680058357,0.006591376950054447,0.0444339099535297,0.0009818564721443476
1.0028249215078224,0.1037077589167159,0.07817701084472098,0.04281328660270074,0.07374587101883909,0.03336234267969728
1.0028720035329528,0.18101238562213362,0.12744507070777955,0.0979436666785688,0.12445846197191866,0.08243505120457116
1.0029190855580832,0.25636899888384335,0.18148465769333705,0.15380629462607742,0.17264577908396808,0.1336520881433451
1.0029661675832136,0.31832235074100634,0.22746264561298113,0.19704252226634572,0.20369430010799977,0.17490690629254543
1.003013249608344,0.36361141655314383,0.25531195586235195,0.228525784613192,0.22329152369249383,0.20576800139706658
1.0030603316334743,0.39341420767750745,0.27328442558785343,0.24979870354304085,0.23604196383559325,0.22692608141066023
1.0031074136586047,0.4102870696014962,0.28386602270980765,0.26258314989231946,0.24337509886498987,0.23976906382840632
1.003154495683735,0.41662904201390033,0.28857945933835033,0.266777273312063,0.24647757223989672,0.24395958960955
1.0032015777088654,0.41405085665469693,0.28815485412522573,0.26326150551395927,0.24540720086262818,0.24035568444739147
1.0032486597339958,0.4030953535584088,0.28262213915071366,0.251751202986526,0.23986872230142603,0.22870917248873354
1.0032957417591262,0.38301151602067063,0.27199236018276496,0.2324239377319079,0.23008130591256803,0.20930813302120704
1.0033428237842565,0.3514583105172215,0.25585551264460993,0.2047530276495091,0.21593643494571924,0.18180767705341416
1.003389905809387,0.3042863356687068,0.23390372719562832,0.16911475512504195,0.1977244494148141,0.14682390830917677
1.0034369878345173,0.2364892670841809,0.2066365969466813,0.12615890065588273,0.17597838339610677,0.10522422429346961
1.0034840698596477,0.14805992805189566,0.17653839703891663,0.07745804013496241,0.15343874602494947,0.05847876051655775
1.003531151884778,0.05937981673678241,0.15871806448335335,0.035632586371168055,0.1439530299025303,0.017546126837784136
1.0035782339099084,0.016571701488668728,0.16849346179130803,0.012038086514572617,0.16105252786277752,-0.008312119160746508
1.0036253159350388,0.04141534161646615,0.21532903445664694,0.014399178728297872,0.21245187526878623,-0.012577130826360259
1.0036723979601692,0.0978579156313711,0.2844197001010465,0.03595348541122598,0.2843845429340898,0.0001215528130482658
1.0037194799852995,0.14599333246590304,0.35843622640496503,0.06503465797160808,0.3606525460659873,0.020947077829200987
1.00376656201043,0.17300879075255565,0.42100875263357845,0.0922030709843016,0.4247345015977303,0.04274604831630433
1.0038136440355603,0.18229222765708752,0.4648610067733244,0.11374971918924169,0.46958658741426235,0.0620020776238184
1.0038607260606907,0.18262972424027749,0.4923454659083141,0.12736778710133306,0.4963587219255122,0.07501798939240148
1.003907808085821,0.18292620727983336,0.50561238214575,0.13485525602086357,0.5076616003888589,0.08272670233298927
1.0039548901109514,0.18798821740501145,0.5104654622218809,0.13913083302593265,0.5070144102116039,0.08779152571437153
1.0040019721360818,0.19658928748535154,0.5078323730606618,0.1397247738744464,0.49888106670901716,0.08916820812698666
1.0040490541612122,0.20361099360789395,0.4952799226326197,0.1356935801867525,0.4813976961072323,0.08600021382600057
1.0040961361863425,0.20356945018764083,0.47283305181539786,0.1287855413388881,0.45480116410077626,0.08052585062988647
1.004143218211473,0.19261735903368254,0.44071423385056996,0.11776025800915435,0.41978001402556003,0.07158299263130553
1.0041903002366033,0.1692114287165738,0.39581977644818706,0.09836742477706704,0.3746864968639931,0.055134128846462294
1.0042373822617336,0.13469585530973552,0.3439905291217948,0.07519967777083232,0.32475076042068884,0.036129095211623996
1.004284464286864,0.094068350002802,0.29457001226919055,0.051842634052145065,0.2779788452264644,0.017412136300842995
1.0043315463119944,0.0558705414627791,0.25045401988837623,0.03082107495389939,0.2373398399564442,0.0009278823093673397
1.0043786283371248,0.029785725493520713,0.22081883550108575,0.019809015244991575,0.21062786671393577,-0.006846520986064647
1.0044257103622551,0.022326134922130727,0.2060577357608638,0.01684685304795892,0.19780583597478923,-0.008190950281385978
1.0044727923873855,0.03362727707623793,0.20396604930125584,0.01768087969631584,0.1973773908468112,-0.007291177071864033
1.004519874412516,0.057935866130881315,0.21211333515942174,0.0238553638180855,0.20678128418741967,-0.0022428937145378383
1.0045669564376463,0.08691312585069338,0.2311306249046191,0.038233159934289905,0.22617112376682882,0.009922327493585703
1.0046140384627766,0.11302745450084833,0.2561903791587384,0.05542672474865837,0.25253444766489297,0.024262421358237196
1.004661120487907,0.13143773576861661,0.2791467597190952,0.07126698378066398,0.2791478543128598,0.0374275109166962
1.0047082025130374,0.140315951549541,0.2960960846955785,0.0817840112464661,0.29963064029140757,0.045996093879207375
1.0047552845381678,0.14016084842095028,0.3033155160353746,0.0846685751900148,0.31079126417846625,0.047737219847448886
1.0048023665632981,0.13271042804166153,0.2990286849287957,0.08028160564993014,0.3093929909268019,0.04328793037790738
1.0048494485884285,0.1199532079956697,0.2842752902054924,0.06958311394397716,0.2976775921044267,0.03346269101035305
1.0048965306135589,0.10352759540252561,0.2583193664245036,0.05738407400153901,0.2752093450794563,0.023498678945985438
1.0049436126386893,0.08458770500586026,0.22604746526614647,0.04469505929439128,0.24497895601533096,0.014170928881698902
1.0049906946638196,0.06411017510052013,0.1931032285456786,0.03435472552873721,0.21375744893609416,0.007537099358734229
1.00503777668895,0.043500849939608656,0.16241726066488493,0.022887706523455283,0.1820365951570602,-6.06264485970406e-05
1.0050848587140804,0.02497562650004661,0.1327226638159169,0.013888116903115118,0.15045758283574598,-0.005100463927993204
1.0051319407392107,0.011013597455985432,0.10880420801283876,0.011624969459267675,0.12401660366149557,-0.0040114560261370665
1.0051790227643411,0.003334338693202587,0.08899177278102816,0.009001101837417943,0.10219508661782582,-0.003874494785851018
1.0052261047894715,0.0027948227754708652,0.06877556606663868,0.005716764128480125,0.07930680087203316,-0.004263021229443738
1.0052731868146019,0.010164673003053454,0.05159863557924984,0.005314070387151807,0.057513601150389754,-0.0019259545969756676
1.0053202688397322,0.026566180290056158,0.04031259772516829,0.008193549268036414,0.042459417199315716,0.002820151566347343
1.0053673508648626,0.05291846997433676,0.03292461609893336,0.011498759854167706,0.03258888180049456,0.007335884695554691
1.005414432889993,0.08828034555015178,0.02982612669699956,0.017065936640710815,0.02508280258346895,0.01379940304220036
1.0054615149151234,0.12763762777320273,0.029856624608904436,0.025647230237824777,0.020781613003188253,0.022853219386168425
1.0055085969402537,0.16155770115500132,0.034526880433615535,0.038076850744054896,0.021633196943788034,0.0350853297909681
1.0055556789653841,0.18078890709766565,0.04014071882684397,0.05135766337998839,0.02631045192524488,0.0476921739507248
1.0056027609905145,0.18307418566708303,0.04297940137473317,0.06056084021799014,0.0316724574072051,0.056172593676370994
1.0056498430156449,0.1741533504439713,0.04303107054294563,0.06655908741414072,0.03499289547015207,0.06172514888337766
1.0056969250407752,0.16242605985016223,0.043320521957830226,0.07063087442771013,0.03820124517352485,0.0653799493448101
1.0057440070659056,0.15418810481596457,0.04512275407383921,0.07107575192890922,0.04280116501942492,0.06526207570758397
1.005791089091036,0.1523552110015489,0.04641212914058118,0.0660360559428213,0.04669156323429776,0.05977751036483202
1.0058381711161664,0.15691036178882456,0.04771861893533996,0.06130313889977103,0.05091193904690244,0.054556341583442684
1.0058852531412967,0.16538784679386007,0.0522276721402582,0.06307528196508604,0.05683345906243624,0.05559839547209221
1.005932335166427,0.17322460684996496,0.0567781852734008,0.06323184659303546,0.0630448561480144,0.05499992394104887
1.0059794171915575,0.17475929729964576,0.05814454359060018,0.05880087400333982,0.06602922589516146,0.0502258055350926
1.0060264992166879,0.16548577922015562,0.05671534865470137,0.05204155960234529,0.06567663399184538,0.0435391390717921
1.0060735812418182,0.1445721481217929,0.052588276849674175,0.04234591607178599,0.061770619737651564,0.03436857092143335
1.0061206632669486,0.11538472372115638,0.050165725341299726,0.03266210113426135,0.058132022065412056,0.025184875936373145
1.006167745292079,0.08342022676517998,0.04714078110891591,0.0259645785337829,0.0546008570464319,0.018963392075418833
1.0062148273172093,0.053714935068683495,0.046322302713773904,0.01794830890199036,0.053313928912833215,0.011155570927503957
1.0062619093423397,0.029620632829972474,0.04570151263659667,0.006428025048282717,0.05210538294828821,-0.00014111322426271048
1.00630899136747,0.012907514843990737,0.044907465515570046,-0.004503164505502606,0.05082554716125337,-0.010839670580210004
1.0063560733926005,0.004292560353454192,0.04843804279323487,-0.010519166817943732,0.05415766768477125,-0.017235166042530798
1.0064031554177308,0.0038095921685766332,0.05803997354283431,-0.007972360122875525,0.06350152343013854,-0.01588431371106663
1.0064502374428612,0.010924293923755681,0.07810843219976656,0.0013341291502741227,0.08310911380263797,-0.009104733142594289
1.0064973194679916,0.02453035587728399,0.10131235597749089,0.011333716656649779,0.10616469359505747,-0.0020477700230466076
1.006544401493122,0.042966387475684646,0.1230306108736848,0.020787738978896356,0.12851090604014478,0.0045896972338098285
1.0065914835182523,0.06411092062196938,0.14276465366179597,0.03329944681240632,0.14805042866459747,0.014694877995051023
1.0066385655433827,0.08556714248621351,0.16167504893767404,0.049462130528264495,0.16504092798847625,0.028870478617745145
1.006685647568513,0.10493697207975199,0.1785650471819984,0.06485229624100503,0.17760883218235907,0.04290218948729487
1.0067327295936435,0.12014720761669652,0.18883367715591162,0.07640706666955516,0.18392203184479736,0.05386158147049611
1.0067798116187738,0.12974860817624662,0.19180450452095865,0.08294186479002422,0.18179096645769133,0.060733581448266606
1.0068268936439042,0.1331160769266914,0.18597743422576177,0.08436945777741765,0.17186558497210835,0.0633218840592459
1.0068739756690346,0.13051634907150206,0.17427600949690633,0.08386978816652868,0.1564702190134334,0.06459218358694359
1.006921057694165,0.12301693370584733,0.1562172430760944,0.08185258015702256,0.13685028594260065,0.06483703472835028
1.0069681397192953,0.11219272060745543,0.13393369684277837,0.07585112215539112,0.11483647070349957,0.06139706119800655
1.0070152217444257,0.09964098937742749,0.11013930207950043,0.06985230351433948,0.09160310807269653,0.05815965661030946
1.007062303769556,0.08648287672211809,0.0890331565554085,0.06302251331950957,0.07137107287478016,0.05378254508381946
1.0071093857946865,0.07315337862299943,0.07189499402816388,0.053521194673379444,0.05537352912097492,0.04627095369455419
1.0071564678198168,0.05967551136841471,0.05951826582319052,0.042771215350936226,0.04422063331880501,0.03695280946046892
1.0072035498449472,0.046352747241279996,0.04907088350329756,0.029687677967592516,0.03648607422972265,0.024911745042726825
1.0072506318700776,0.03458526276589038,0.04243707986060818,0.01916866027493343,0.03287104328849757,0.014915671627106327
1.007297713895208,0.02727830692374265,0.04060360403273674,0.01473006896934623,0.03459204027665947,0.010293952836857547
1.0073447959203383,0.0280866607277734,0.04540067172313332,0.01711698325886342,0.040838251160480926,0.011885053564294899
1.0073918779454687,0.03925806445151868,0.06019593224374381,0.028584290137595406,0.055208899770773645,0.02149229771662197
1.007438959970599,0.059562255279517966,0.07952041260932098,0.043832242766228824,0.07296240846640635,0.034473283141314676
1.0074860419957294,0.08449757331606145,0.09865127625876623,0.058037587268334905,0.09097772972171252,0.046439833918025135
1.0075331240208598,0.10858230355013457,0.11295111743053414,0.06858033205585247,0.1055548375494696,0.05522139123957984
1.0075802060459902,0.12742598805780986,0.12010940135317459,0.07621925524513734,0.11288336005082646,0.06199647947761691
1.0076272880711206,0.13840784538629322,0.11974088565886219,0.07904744927672683,0.11239358277531405,0.06488672498659963
1.007674370096251,0.14057521646913557,0.11335060251024559,0.0769603579802706,0.10649330831498353,0.06349357299712055
1.0077214521213813,0.1345761316442056,0.10296870965348116,0.07084930100861353,0.09576147647944121,0.058658519479362875
1.0077685341465117,0.12269802495893224,0.08788752937688103,0.062425783036096825,0.08100988904969804,0.05202241631060545
1.007815616171642,0.10844877640211482,0.07201300687232459,0.054884533548136764,0.06644252079821689,0.046276075136017884
