freq,gls,usurper,pdc_unbiased,shape_periodogram,shift_periodogram
1.0,0.02176245538732735,0.006399132058652714,-0.007335655112181927,0.00399442197882422,-0.007414418659856019
1.0000470820251304,0.05134779247241603,0.00528930517551906,0.016081221596065367,0.0015422885951844043,0.016047050759288875
1.0000941640502607,0.09689124580742478,0.00976646024686934,0.05094334186944231,0.0009373058584251844,0.050914380699525544
1.0001412460753911,0.14848755125694818,0.015198920836893729,0.08456655871201842,0.007466023198523405,0.08440369246838703
1.0001883281005215,0.19664060203551523,0.021221613460150515,0.10917973127593883,0.018613854894832433,0.10880957693646501
1.0002354101256519,0.23592916525893703,0.027158451472338127,0.12678225514793529,0.02794937431320267,0.12625797208628053
1.0002824921507822,0.26363730657080775,0.029930252373472317,0.13936052532630389,0.033689434953495995,0.13875341550937317
1.0003295741759126,0.2780607972143743,0.03234164182480561,0.14663287491158739,0.03655943599619921,0.14598895697805572
1.000376656201043,0.27778293516045677,0.03367723011555834,0.14742341655727248,0.03881320878656416,0.14674848917241742
1.0004237382261734,0.2619162710265795,0.032472620672960605,0.139633635428265,0.039676283626868085,0.13893986868764918
1.0004708202513037,0.23107843684954268,0.029504682305562913,0.12167319492364326,0.03852970720506409,0.12098106266687401
1.0005179022764341,0.1884924826566669,0.025590923091046932,0.09811663264576473,0.03734916580945243,0.09742530129018802
1.0005649843015645,0.1401213853463462,0.022765992095144856,0.07552593926328457,0.03614773306729942,0.07483990522721758
1.0006120663266949,0.09311329616242185,0.021131422349825495,0.056936636782797936,0.03487007771036938,0.056262638555052126
1.0006591483518252,0.05338098213176131,0.02172369964413819,0.04656239048066332,0.0324871382989257,0.045927119076519925
1.0007062303769556,0.024158292773911582,0.022219727638737724,0.0379052596807291,0.02756377792014958,0.037359630110582694
1.000753312402086,0.006389706849983347,0.023578249920572024,0.024925530867037873,0.021322998876103907,0.024498403757605973
1.0008003944272164,4.4957735270936574e-05,0.025368458601520243,0.013623927240606612,0.016492868713243822,0.01329198041642865
1.0008474764523467,0.004476680458159687,0.024090184541620475,0.005279248516488982,0.015685503965388006,0.004963916524182879
1.000894558477477,0.016631009383087918,0.027163129576896365,0.00604487589630294,0.01750332556400139,0.005693163542125845
1.0009416405026075,0.030279800796216314,0.03172721141595917,0.01614856324889533,0.023044990577541773,0.015687015390249227
1.0009887225277379,0.04019506929021177,0.03747802685831913,0.031662352407458065,0.02975869396836082,0.031073192916737977
1.0010358045528682,0.045271217739530065,0.040765118726188085,0.049643587368788454,0.038123902616680944,0.04890651104915392
1.0010828865779986,0.04665854735345898,0.04567009475289632,0.06394396252727896,0.04688497050338016,0.0630646567537075
1.001129968603129,0.04557434040645729,0.049634453446811486,0.06951556918541625,0.054116403181561926,0.06852290627596143
1.0011770506282593,0.04281463251624272,0.0518691663375661,0.06676401531502141,0.05655190150976034,0.06572750917396512
1.0012241326533897,0.03911406922799136,0.04921699068679281,0.05756222886158259,0.05434787842310976,0.056548239655367795
1.00127121467852,0.035734840091298535,0.04221184808562599,0.04469056838221148,0.050334967288718876,0.04372937327802024
1.0013182967036505,0.034632288517627896,0.0363055355488639,0.03354469161607427,0.04709992558161131,0.03263011935306287
1.0013653787287808,0.03686446430802818,0.033281496902515494,0.03235087082016887,0.04545700018454848,0.031465680939490724
1.0014124607539112,0.040499198873267514,0.033867456570899915,0.04235422606047071,0.04614875439435322,0.04146579534188296
1.0014595427790416,0.04245011553894062,0.037032645370489205,0.05148956578485458,0.049280453029346784,0.05055502091678792
1.001506624804172,0.04142424671447975,0.03744444106622227,0.057489670337512934,0.05074520080826376,0.056536961632559085
1.0015537068293023,0.03772147907862947,0.036742037369412915,0.05838903434484734,0.04854771461605206,0.05747514070722512
1.0016007888544327,0.032149333674356434,0.03423313432461793,0.05286952532393206,0.04335029548458269,0.05204100537670491
1.001647870879563,0.025799799790141527,0.030544363943320347,0.040386054375886556,0.03528348682506036,0.039695981654072655
1.0016949529046935,0.020580986012262138,0.024332309695584954,0.02276083148008517,0.02564169921651735,0.02224918494339462
1.0017420349298238,0.01993155776046648,0.021412178420742993,0.008396000375120035,0.019004060534811604,0.008014282037942624
1.0017891169549542,0.027489951613850306,0.02121584079479487,0.00883020356959996,0.019969023536563858,0.00842926552927466
1.0018361989800846,0.042074300128446054,0.02260512303928844,0.022145335055818467,0.02418528894807231,0.02166202997479136
1.001883281005215,0.05845891480384451,0.027671622039320564,0.04104344236602053,0.03300689732859853,0.040396182762302627
1.0019303630303453,0.07582159493280267,0.03009651695375674,0.05832937685591873,0.04203363223683722,0.057528739696153526
1.0019774450554757,0.09824195100672209,0.02903246664486664,0.07041397317164165,0.049505299937467974,0.06949809932573636
1.002024527080606,0.1303669711588208,0.025166642077186153,0.07896421651578898,0.05363620793466976,0.07799314189248643
1.0020716091057364,0.17464242099810953,0.0220028700380159,0.08832693698111686,0.05658967561572242,0.08732518882701333
1.0021186911308668,0.22917237164395338,0.0223625028019609,0.11355266104308831,0.05867354342808513,0.11256612811045094
1.0021657731559972,0.2864808872447173,0.025357566197442255,0.14880372324738836,0.06275967670956507,0.14784083128047093
1.0022128551811276,0.335488571803669,0.02853843766851706,0.17945522269565434,0.06795248446282438,0.1785204592370996
1.002259937206258,0.3667004160945303,0.03042730695935823,0.20044309409803335,0.07204438694955446,0.19954163471291347
1.0023070192313883,0.37630521047742305,0.031037892563862423,0.20989430295355302,0.07424657600451663,0.20901186326490073
1.0023541012565187,0.3658732131217113,0.03072213526834915,0.20800353236518512,0.07466728407865354,0.20711345754914728
1.002401183281649,0.3393357840705059,0.03190085351779807,0.19716291122807472,0.07337449811501255,0.19624482619453282
1.0024482653067794,0.30043566038503033,0.03200990764993836,0.1783931936762516,0.0673657053385204,0.1774600319022492
1.0024953473319098,0.25183659939415354,0.027166785063492495,0.15384153094853617,0.05590257076079995,0.15296192653673088
1.0025424293570402,0.1956066522565673,0.020089615707341562,0.12081929242955049,0.04021332803450508,0.12010124327462174
1.0025895113821706,0.13475970805500284,0.015961550722129948,0.07564140824241966,0.021469505381804393,0.07521615530179007
1.002636593407301,0.07582916802294695,0.015183005971369946,0.025728531183742454,0.0066070641298018665,0.025591399953584563
1.0026836754324313,0.03145358980808763,0.01598272740533892,-0.0040036080406334615,0.005333338318014474,-0.00410992537324364
1.0027307574575617,0.01779891286180085,0.018486824196772132,-0.006351274616742859,0.019509499271319175,-0.006742911835540032
1.002777839482692,0.04358985242398123,0.018391728831678736,0.006591376950054447,0.03658379887950895,0.0058595830482107425
1.0028249215078224,0.1037077589167159,0.024788840076051713,0.04281328660270074,0.05005640423584488,0.04185485134509952
1.0028720035329528,0.18101238562213362,0.037303372124370744,0.0979436666785688,0.04956751960665198,0.09706135944825986
1.0029190855580832,0.25636899888384335,0.04847065921300957,0.15380629462607742,0.052234636849870154,0.1529680880534235
1.0029661675832136,0.31832235074100634,0.05181808085722266,0.19704252226634572,0.0549227769480755,0.1962498276537132
1.003013249608344,0.36361141655314383,0.05427528120768129,0.228525784613192,0.05253293614170444,0.22780693893304851
1.0030603316334743,0.39341420767750745,0.05500407614147286,0.24979870354304085,0.0499286786433504,0.24913261256019753
1.0031074136586047,0.4102870696014962,0.05418478799862483,0.26258314989231946,0.04818749713162048,0.2619479080843576
1.003154495683735,0.41662904201390033,0.05283940324545985,0.266777273312063,0.04565190097414731,0.2661644814161012
1.0032015777088654,0.41405085665469693,0.05053053473350256,0.26326150551395927,0.04247886659001358,0.2626669252824088
1.0032486597339958,0.4030953535584088,0.04723424835526493,0.251751202986526,0.03840550626701327,0.2511782115270139
1.0032957417591262,0.38301151602067063,0.042990026881266456,0.2324239377319079,0.033575107733243674,0.2318830204630511
1.0033428237842565,0.3514583105172215,0.03755313565594586,0.2047530276495091,0.0277655279552587,0.20426614195266055
1.003389905809387,0.3042863356687068,0.030619023737860386,0.16911475512504195,0.02117743840419162,0.16871132166153072
1.0034369878345173,0.2364892670841809,0.022830766183308072,0.12615890065588273,0.014029955110565505,0.12587109782372222
1.0034840698596477,0.14805992805189566,0.015465521366188836,0.07745804013496241,0.00717635736795572,0.07730172656730225
1.003531151884778,0.05937981673678241,0.011846347404683752,0.035632586371168055,0.0019970826833206824,0.03558546954311489
1.0035782339099084,0.016571701488668728,0.013244026845995726,0.012038086514572617,0.0002266886956260328,0.012031111295835901
1.0036253159350388,0.04141534161646615,0.02149038021077168,0.014399178728297872,0.004907910854403922,0.014297952292243612
1.0036723979601692,0.0978579156313711,0.03300682457707138,0.03595348541122598,0.01735802924315261,0.03560380751036049
1.0037194799852995,0.14599333246590304,0.04715653726620673,0.06503465797160808,0.029950698735210203,0.0644529070147207
1.00376656201043,0.17300879075255565,0.056968237916042296,0.0922030709843016,0.03985711324139366,0.0914666678764897
1.0038136440355603,0.18229222765708752,0.0640642555963866,0.11374971918924169,0.045923235063307685,0.11294049426672556
1.0038607260606907,0.18262972424027749,0.06803124101490136,0.12736778710133306,0.04775965061165478,0.1265489049093483
1.003907808085821,0.18292620727983336,0.07231952164142134,0.13485525602086357,0.047968841129519435,0.1340430811116956
1.0039548901109514,0.18798821740501145,0.07437017215332553,0.13913083302593265,0.04929388181067187,0.13830706125587072
1.0040019721360818,0.19658928748535154,0.07305967448637976,0.1397247738744464,0.05046208893187225,0.13888696500903858
1.0040490541612122,0.20361099360789395,0.06619636017975024,0.1356935801867525,0.051355693304068244,0.1348385815180984
1.0040961361863425,0.20356945018764083,0.05670152269186944,0.1287855413388881,0.04940918436505353,0.12794621238319961
1.004143218211473,0.19261735903368254,0.04918444121194477,0.11776025800915435,0.04735439333148444,0.11693513747424968
1.0041903002366033,0.1692114287165738,0.04054712559804795,0.09836742477706704,0.04366087310908023,0.09757602561316876
1.0042373822617336,0.13469585530973552,0.03158220486315469,0.07519967777083232,0.0363281659310918,0.07451033611944528
1.004284464286864,0.094068350002802,0.021693589936536663,0.051842634052145065,0.02712885656004624,0.05130859957605822
1.0043315463119944,0.0558705414627791,0.012508827183965811,0.03082107495389939,0.01693266848090308,0.030479785659517464
1.0043786283371248,0.029785725493520713,0.007069942008805803,0.019809015244991575,0.007326437132239826,0.019658557605386
1.0044257103622551,0.022326134922130727,0.004765200216654507,0.01684685304795892,0.0008525166603162754,0.016826357742612857
1.0044727923873855,0.03362727707623793,0.005007799495367071,0.01768087969631584,-0.000859089893041054,0.01769456251984488
1.004519874412516,0.057935866130881315,0.007815346388904115,0.0238553638180855,0.00237598885341862,0.023802968082638536
1.0045669564376463,0.08691312585069338,0.012583801854406851,0.038233159934289905,0.009970432659001263,0.03802763042346183
1.0046140384627766,0.11302745450084833,0.01775103623044093,0.05542672474865837,0.02209301152023106,0.05498747121039997
1.004661120487907,0.13143773576861661,0.02294782289646584,0.07126698378066398,0.035658274299522494,0.07058690128809206
1.0047082025130374,0.140315951549541,0.028587212375418083,0.0817840112464661,0.04894991053176703,0.08089101390750726
1.0047552845381678,0.14016084842095028,0.030169628227066377,0.0846685751900148,0.05958917366045309,0.08361557097171819
1.0048023665632981,0.13271042804166153,0.030151610605594247,0.08028160564993014,0.06733151287910012,0.07910505303651102
1.0048494485884285,0.1199532079956697,0.026779084039048447,0.06958311394397716,0.07277598886713217,0.06829879942932025
1.0048965306135589,0.10352759540252561,0.02549311173609578,0.05738407400153901,0.07463503070766923,0.05603723227937022
1.0049436126386893,0.08458770500586026,0.023090012719154417,0.04469505929439128,0.07189614671865613,0.04335891418884995
1.0049906946638196,0.06411017510052013,0.021348212749139867,0.03435472552873721,0.06504945968648969,0.033114204563529336
1.00503777668895,0.043500849939608656,0.017710880214990808,0.022887706523455283,0.05665193857608607,0.021781606374163605
1.0050848587140804,0.02497562650004661,0.014570411398126433,0.013888116903115118,0.04813740818304492,0.01293419807328871
1.0051319407392107,0.011013597455985432,0.012862308575800206,0.011624969459267675,0.03841037979368262,0.010859686278559056
1.0051790227643411,0.003334338693202587,0.012504287389338857,0.009001101837417943,0.026466823251618834,0.008470986695511426
1.0052261047894715,0.0027948227754708652,0.008558022712627773,0.005716764128480125,0.01332493271244607,0.005448606303656216
1.0052731868146019,0.010164673003053454,0.0064790717955267646,0.005314070387151807,0.0030537730981828473,0.005251721126641219
1.0053202688397322,0.026566180290056158,0.004976665840573344,0.008193549268036414,-0.0026352992512599775,0.00824482582475618
1.0053673508648626,0.05291846997433676,0.004308693518620009,0.011498759854167706,-0.004120061287996905,0.01157923603242614
1.005414432889993,0.08828034555015178,0.004335990613426839,0.017065936640710815,-0.0029148034552830943,0.01712106097681287
1.0054615149151234,0.12763762777320273,0.005351511994254953,0.025647230237824777,0.0016001420016564074,0.02561000604933589
1.0055085969402537,0.16155770115500132,0.006860088403543136,0.038076850744054896,0.008707924917397903,0.03789618700022464
1.0055556789653841,0.18078890709766565,0.009556702120601408,0.05135766337998839,0.017891606300291598,0.05099771283555878
1.0056027609905145,0.18307418566708303,0.009940394309327453,0.06056084021799014,0.027598593166443353,0.06002042696531238
1.0056498430156449,0.1741533504439713,0.011817146745369779,0.06655908741414072,0.03691317686957406,0.06585423978143745
1.0056969250407752,0.16242605985016223,0.012506191195103343,0.07063087442771013,0.04489592569040253,0.06979209193053072
1.0057440070659056,0.15418810481596457,0.01136406020028865,0.07107575192890922,0.048911318422232945,0.07017049055444331
1.005791089091036,0.1523552110015489,0.008687790399835365,0.0660360559428213,0.04999990525218447,0.06510658964707118
1.0058381711161664,0.15691036178882456,0.007451144095763627,0.06130313889977103,0.04912063498613141,0.06038280832327129
1.0058852531412967,0.16538784679386007,0.007524643487526049,0.06307528196508604,0.0461226777613901,0.06220807954390258
1.005932335166427,0.17322460684996496,0.008667309382483996,0.06323184659303546,0.04091006976823441,0.06245480955448928
1.0059794171915575,0.17475929729964576,0.008411225184544626,0.05880087400333982,0.034803492191581284,0.058129048014979895
1.0060264992166879,0.16548577922015562,0.006883448417369203,0.05204155960234529,0.028996230389568927,0.051472914180027876
1.0060735812418182,0.1445721481217929,0.005225176866355253,0.04234591607178599,0.023463238484249773,0.04187912693624825
1.0061206632669486,0.11538472372115638,0.0027629383194907923,0.03266210113426135,0.018548536689943055,0.032289296340154705
1.006167745292079,0.08342022676517998,0.0020521579468462197,0.0259645785337829,0.01466314839987874,0.02566803426853083
1.0062148273172093,0.053714935068683495,0.0034913416678444146,0.01794830890199036,0.013491200381572534,0.01767559010395027
1.0062619093423397,0.029620632829972474,0.006465224189484926,0.006428025048282717,0.012900582924455893,0.0061682753126972275
1.00630899136747,0.012907514843990737,0.00940256096374671,-0.004503164505502606,0.012282911342711202,-0.004749190450948105
1.0063560733926005,0.004292560353454192,0.01410084065606031,-0.010519166817943732,0.01338625690652134,-0.010786700867502764
1.0064031554177308,0.0038095921685766332,0.019136095800312752,-0.007972360122875525,0.013417465743267722,-0.008240828408575715
1.0064502374428612,0.010924293923755681,0.0254503635230595,0.0013341291502741227,0.014669441665859633,0.0010394793527146618
1.0064973194679916,0.02453035587728399,0.03010105555922479,0.011333716656649779,0.017268264018855173,0.010986470050115302
1.006544401493122,0.042966387475684646,0.03249041126636351,0.020787738978896356,0.01887423797417279,0.020408520488092996
1.0065914835182523,0.06411092062196938,0.03277789176390466,0.03329944681240632,0.020110118270971422,0.03289633517502558
1.0066385655433827,0.08556714248621351,0.0349237233614711,0.049462130528264495,0.022006639489224367,0.04902384611124023
1.006685647568513,0.10493697207975199,0.035937279164756704,0.06485229624100503,0.022433805163693463,0.06440787612050887
1.0067327295936435,0.12014720761669652,0.034773357083056636,0.07640706666955516,0.022728412181211216,0.0759589521824148
1.0067798116187738,0.12974860817624662,0.03090923516343229,0.08294186479002422,0.020969080847970216,0.08252663902557181
1.0068268936439042,0.1331160769266914,0.027423485038879057,0.08436945777741765,0.018015252030695962,0.08400828851211711
1.0068739756690346,0.13051634907150206,0.0235011160463712,0.08386978816652868,0.014379821545224299,0.08357593562039357
1.006921057694165,0.12301693370584733,0.019410130906359093,0.08185258015702256,0.009407765853687801,0.08165281041997423
1.0069681397192953,0.11219272060745543,0.014518047742606859,0.07585112215539112,0.004874321792674751,0.07573980685793166
1.0070152217444257,0.09964098937742749,0.009325821956345282,0.06985230351433948,0.0004777893007139449,0.06982878115807829
1.007062303769556,0.08648287672211809,0.005469538297868743,0.06302251331950957,-0.0015545271525560698,0.06304096058428475
1.0071093857946865,0.07315337862299943,0.002222996891379311,0.053521194673379444,-0.002443288136771271,0.05355943791470927
1.0071564678198168,0.05967551136841471,-0.0019111873177548718,0.042771215350936226,-0.003548364772733249,0.042833919485530995
1.0072035498449472,0.046352747241279996,-0.004096795678264383,0.029687677967592516,-0.0035799491879986993,0.02975366416404758
1.0072506318700776,0.03458526276589038,-0.004828334658066877,0.01916866027493343,-0.0021627942818886322,0.019208238325684846
1.007297713895208,0.02727830692374265,-0.00430297205349298,0.01473006896934623,-0.00037932780915090995,0.014734714775729876
1.0073447959203383,0.0280866607277734,-0.003011158442465139,0.01711698325886342,0.0024413653952992716,0.01706459587014991
1.0073918779454687,0.03925806445151868,0.0005214818251642534,0.028584290137595406,0.006520522628507675,0.02844839673691712
1.007438959970599,0.059562255279517966,0.006144641957950003,0.043832242766228824,0.011357648800514718,0.04359887798878603
1.0074860419957294,0.08449757331606145,0.011557197432253552,0.058037587268334905,0.01693718847987799,0.05769586574896198
1.0075331240208598,0.10858230355013457,0.015048265639367286,0.06858033205585247,0.021713182876151885,0.06814972086046486
1.0075802060459902,0.12742598805780986,0.01737106260009363,0.07621925524513734,0.0258985576812837,0.0757138052643687
1.0076272880711206,0.13840784538629322,0.019623452645600052,0.07904744927672683,0.02856320554713996,0.07849535889537854
1.007674370096251,0.14057521646913557,0.020216310934082903,0.0769603579802706,0.030260892961425333,0.07637756309451575
1.0077214521213813,0.1345761316442056,0.018342093760162586,0.07084930100861353,0.029699604791235092,0.07027415768186984
