freq,gls,usurper,pdc_unbiased,shape_periodogram,shift_periodogram
1.0,0.02176245538732735,0.017227913598234754,-0.007335655112181927,0.0029357109282188228,-0.0074210227745537035
1.0000470820251304,0.05134779247241603,0.02459054256408802,0.016081221596065367,0.004440753637014162,0.015939931491689784
1.0000941640502607,0.09689124580742478,0.03315063926197739,0.05094334186944231,0.012365928336544471,0.05055185655219163
1.0001412460753911,0.14848755125694818,0.041961908715117055,0.08456655871201842,0.023510565302837426,0.08384850198673008
1.0001883281005215,0.19664060203551523,0.05073886608720697,0.10917973127593883,0.03741379538957798,0.10809490181583427
1.0002354101256519,0.23592916525893703,0.05766073607049782,0.12678225514793529,0.04788871608046122,0.1254545431126551
1.0002824921507822,0.26363730657080775,0.06026529384013043,0.13936052532630389,0.05340927715042304,0.13792392725625438
1.0003295741759126,0.2780607972143743,0.06219164021641905,0.14663287491158739,0.05663262918734095,0.14513870472784288
1.000376656201043,0.27778293516045677,0.06345556057000312,0.14742341655727248,0.058097355263422475,0.14589980889188575
1.0004237382261734,0.2619162710265795,0.061347619339096576,0.139633635428265,0.05812721431760679,0.13809454535841648
1.0004708202513037,0.23107843684954268,0.056276415614692786,0.12167319492364326,0.05565394471134077,0.12015732241887407
1.0005179022764341,0.1884924826566669,0.049406707860941555,0.09811663264576473,0.05168616874864622,0.09666089714633581
1.0005649843015645,0.1401213853463462,0.044147073501164064,0.07552593926328457,0.047286528607841126,0.07415754845328365
1.0006120663266949,0.09311329616242185,0.040615720122576075,0.056936636782797936,0.041612654159634346,0.05570763876251224
1.0006591483518252,0.05338098213176131,0.03979645005777513,0.04656239048066332,0.03378870006185419,0.045549585302332246
1.0007062303769556,0.024158292773911582,0.038415755496010874,0.0379052596807291,0.024340462625373864,0.037165177275673957
1.000753312402086,0.006389706849983347,0.03731281810153035,0.024925530867037873,0.013458693296982934,0.02451014888149821
1.0008003944272164,4.4957735270936574e-05,0.037886838967197564,0.013623927240606612,0.004204804205314308,0.013490831909650204
1.0008474764523467,0.004476680458159687,0.03599520919107745,0.005279248516488982,0.0014462809617781331,0.005233152295459417
1.000894558477477,0.016631009383087918,0.039195991929971245,0.00604487589630294,0.004422205972003036,0.0059085817779848445
1.0009416405026075,0.030279800796216314,0.047543352868132785,0.01614856324889533,0.012492041055814744,0.015765169031941507
1.0009887225277379,0.04019506929021177,0.05859585658423645,0.031662352407458065,0.026332994508339105,0.030864222287042168
1.0010358045528682,0.045271217739530065,0.06794911486992224,0.049643587368788454,0.04336049272522678,0.04836109978740953
1.0010828865779986,0.04665854735345898,0.07294700458528716,0.06394396252727896,0.060399016616838185,0.062214171924749435
1.001129968603129,0.04557434040645729,0.07616167844775991,0.06951556918541625,0.07388270807600499,0.06745105923095725
1.0011770506282593,0.04281463251624272,0.07496373808723363,0.06676401531502141,0.08127648399846937,0.0645065439565699
1.0012241326533897,0.03911406922799136,0.06929479333899019,0.05756222886158259,0.08348074800035929,0.05521812804649499
1.00127121467852,0.035734840091298535,0.06121709051192315,0.04469056838221148,0.0826008328956554,0.04232618457507757
1.0013182967036505,0.034632288517627896,0.05370506693629067,0.03354469161607427,0.08122379342396208,0.03118230548204382
1.0013653787287808,0.03686446430802818,0.05153125464848656,0.03235087082016887,0.07994518690984027,0.030020396933725893
1.0014124607539112,0.040499198873267514,0.054489954337660025,0.04235422606047071,0.08010354213302356,0.04004953934102657
1.0014595427790416,0.04245011553894062,0.05881782725248519,0.05148956578485458,0.08029065534701153,0.04920812483505993
1.001506624804172,0.04142424671447975,0.059877922746383254,0.057489670337512934,0.07546358001425185,0.05535186893778429
1.0015537068293023,0.03772147907862947,0.05844800465343108,0.05838903434484734,0.0661399062247773,0.05649748346223224
1.0016007888544327,0.032149333674356434,0.05463118981338021,0.05286952532393206,0.0526146209546311,0.051333283919949096
1.001647870879563,0.025799799790141527,0.04895255830251933,0.040386054375886556,0.03511239311568487,0.03933360555420302
1.0016949529046935,0.020580986012262138,0.03965073915150982,0.02276083148008517,0.01742029045492722,0.022227931021831442
1.0017420349298238,0.01993155776046648,0.03416796716211114,0.008396000375120035,0.004208900777914315,0.00826509892936819
1.0017891169549542,0.027489951613850306,0.033260526333489776,0.00883020356959996,0.001211950600729547,0.00878956954436493
1.0018361989800846,0.042074300128446054,0.033792599706776665,0.022145335055818467,0.005919637462989162,0.021956907408219737
1.001883281005215,0.05845891480384451,0.039488377838801735,0.04104344236602053,0.01669988733177075,0.040527116442349166
1.0019303630303453,0.07582159493280267,0.0470575636098517,0.05832937685591873,0.029217175897528806,0.057449032350464606
1.0019774450554757,0.09824195100672209,0.05266281422627492,0.07041397317164165,0.042784093083196674,0.0691618797562671
1.002024527080606,0.1303669711588208,0.051268122114252856,0.07896421651578898,0.05365344116115506,0.0774331494244147
1.0020716091057364,0.17464242099810953,0.046123944129045524,0.08832693698111686,0.06127364215637232,0.08661848211556891
1.0021186911308668,0.22917237164395338,0.047290331722707184,0.11355266104308831,0.06679244308165946,0.11176829924649209
1.0021657731559972,0.2864808872447173,0.0526072493087422,0.14880372324738836,0.07222278301731679,0.14700199077353493
1.0022128551811276,0.335488571803669,0.05802587300114566,0.17945522269565434,0.07703879205200591,0.17766999829853447
1.002259937206258,0.3667004160945303,0.06132331072143853,0.20044309409803335,0.07985167990868992,0.19869459450768914
1.0023070192313883,0.37630521047742305,0.06209371456161703,0.20989430295355302,0.08011178505188085,0.20817903925921277
1.0023541012565187,0.3658732131217113,0.060262081709594205,0.20800353236518512,0.07786767723396743,0.20630939276493954
1.002401183281649,0.3393357840705059,0.057749244628306155,0.19716291122807472,0.07310455201734964,0.19549710082390861
1.0024482653067794,0.30043566038503033,0.0546240520173393,0.1783931936762516,0.06371876871620236,0.1768276186484701
1.0024953473319098,0.25183659939415354,0.04875921358992201,0.15384153094853617,0.04902297512369438,0.15252279461686696
1.0025424293570402,0.1956066522565673,0.039072252052789726,0.12081929242955049,0.031071163421823617,0.11990361850866593
1.0025895113821706,0.13475970805500284,0.027892045548484134,0.07564140824241966,0.011669185403300229,0.07526263895977477
1.002636593407301,0.07582916802294695,0.019748480767373146,0.025728531183742454,-0.002283061208655185,0.02578576733813655
1.0026836754324313,0.03145358980808763,0.020693471251401478,-0.0040036080406334615,-0.0029190425543338637,-0.0039136117126793045
1.0027307574575617,0.01779891286180085,0.030670868078027054,-0.006351274616742859,0.011966953046992765,-0.006710368319022641
1.002777839482692,0.04358985242398123,0.03398526247769702,0.006591376950054447,0.0351490069169079,0.005529952237470214
1.0028249215078224,0.1037077589167159,0.041169289142241945,0.04281328660270074,0.054386707630601154,0.04121593448880917
1.0028720035329528,0.18101238562213362,0.054541962403967886,0.0979436666785688,0.06640000101160562,0.09613176267331489
1.0029190855580832,0.25636899888384335,0.07124030340265015,0.15380629462607742,0.07271056972505419,0.1520105362424544
1.0029661675832136,0.31832235074100634,0.08429152154782403,0.19704252226634572,0.07309514704344763,0.1953764596597025
1.003013249608344,0.36361141655314383,0.09078951667162129,0.228525784613192,0.07311369237703216,0.2269634470453099
1.0030603316334743,0.39341420767750745,0.09336591500367428,0.24979870354304085,0.07174118475927481,0.24832290704316162
1.0031074136586047,0.4102870696014962,0.09300896674127596,0.26258314989231946,0.06896184278809064,0.26117770989163897
1.003154495683735,0.41662904201390033,0.09116174939065401,0.266777273312063,0.06518333983292976,0.26542466031046064
1.0032015777088654,0.41405085665469693,0.08773504309382067,0.26326150551395927,0.06019924593150234,0.26195801649896794
1.0032486597339958,0.4030953535584088,0.08267618621513242,0.251751202986526,0.053777464036887934,0.25050966739215286
1.0032957417591262,0.38301151602067063,0.07587077008020562,0.2324239377319079,0.04594833792054341,0.23127690155009253
1.0033428237842565,0.3514583105172215,0.06709882591685756,0.2047530276495091,0.03662883154124649,0.20375639498814624
1.003389905809387,0.3042863356687068,0.05616211005650767,0.16911475512504195,0.026238928542819458,0.16833695870476814
1.0034369878345173,0.2364892670841809,0.043559636994300356,0.12615890065588273,0.01504130384314767,0.1256725654708809
1.0034840698596477,0.14805992805189566,0.030400161914021038,0.07745804013496241,0.004073658717742655,0.07730156642644634
1.003531151884778,0.05937981673678241,0.02144163690427184,0.035632586371168055,-0.0037501977942970975,0.03572967462639815
1.0035782339099084,0.016571701488668728,0.020404237507955766,0.012038086514572617,-0.005870227810565452,0.012210109953153584
1.0036253159350388,0.04141534161646615,0.029329047622379836,0.014399178728297872,0.0011829652769198367,0.014356889816738992
1.0036723979601692,0.0978579156313711,0.044546886942750094,0.03595348541122598,0.015601191628203935,0.03547097789964845
1.0037194799852995,0.14599333246590304,0.06253550154221005,0.06503465797160808,0.031599902755871115,0.06408825997803434
1.00376656201043,0.17300879075255565,0.07498380509422849,0.0922030709843016,0.047338791151492636,0.09085010175484386
1.0038136440355603,0.18229222765708752,0.08526514848992771,0.11374971918924169,0.05803841213101698,0.11216514160490099
1.0038607260606907,0.18262972424027749,0.09154928219220386,0.12736778710133306,0.06646913696918215,0.12562381293504618
1.003907808085821,0.18292620727983336,0.09395990522383575,0.13485525602086357,0.07555946510739595,0.1329463666311837
1.0039548901109514,0.18798821740501145,0.09615316468778057,0.13913083302593265,0.08202123965436822,0.13711426281110065
1.0040019721360818,0.19658928748535154,0.09619002813917264,0.1397247738744464,0.08540100840166712,0.1376493656917972
1.0040490541612122,0.20361099360789395,0.09365793721861411,0.1356935801867525,0.08521950544185035,0.13360502547041678
1.0040961361863425,0.20356945018764083,0.08690036218168821,0.1287855413388881,0.08323622117935615,0.1267068095525684
1.004143218211473,0.19261735903368254,0.0765077936205984,0.11776025800915435,0.07895600082247341,0.11572680052254804
1.0041903002366033,0.1692114287165738,0.06394918478794274,0.09836742477706704,0.07035036512459722,0.0964644796942582
1.0042373822617336,0.13469585530973552,0.05004963854952677,0.07519967777083232,0.05831394825795585,0.07354285399933372
1.004284464286864,0.094068350002802,0.03663775320677907,0.051842634052145065,0.04387106882744903,0.05054738132673226
1.0043315463119944,0.0558705414627791,0.02488303565288963,0.03082107495389939,0.027299182655325632,0.029994591611573806
1.0043786283371248,0.029785725493520713,0.017367931188829823,0.019809015244991575,0.011495422534392936,0.019454172483649917
1.0044257103622551,0.022326134922130727,0.014348695539847313,0.01684685304795892,-0.0007464505209161424,0.01686171151741018
1.0044727923873855,0.03362727707623793,0.015178913751328734,0.01768087969631584,-0.007083507198797019,0.01788715958774991
1.004519874412516,0.057935866130881315,0.01903693612051626,0.0238553638180855,-0.007646781525720228,0.024076003582294076
1.0045669564376463,0.08691312585069338,0.025758011897526578,0.038233159934289905,-0.0016851757467930425,0.03826658719502233
1.0046140384627766,0.11302745450084833,0.03409841818842165,0.05542672474865837,0.010350787159161857,0.0550931661542824
1.004661120487907,0.13143773576861661,0.042091144862162526,0.07126698378066398,0.0243889932954265,0.07052421647269176
1.0047082025130374,0.140315951549541,0.04775452252630142,0.0817840112464661,0.03852587312916642,0.08065399130923007
1.0047552845381678,0.14016084842095028,0.04879795581569199,0.0846685751900148,0.05046133751769267,0.08322706621506284
1.0048023665632981,0.13271042804166153,0.046648204084768205,0.08028160564993014,0.05860728552364266,0.07862562279532835
1.0048494485884285,0.1199532079956697,0.04268069715691633,0.06958311394397716,0.06544650352597293,0.0677327709278008
1.0048965306135589,0.10352759540252561,0.03855600151632409,0.05738407400153901,0.069390154206284,0.05540471555904423
1.0049436126386893,0.08458770500586026,0.03214082435467569,0.04469505929439128,0.06919180300240864,0.04269243467376461
1.0049906946638196,0.06411017510052013,0.027343822126215396,0.03435472552873721,0.06536090625008324,0.03243701745903124
1.00503777668895,0.043500849939608656,0.02195915728155324,0.022887706523455283,0.0592912804923185,0.02112445340121771
1.0050848587140804,0.02497562650004661,0.01722478240451802,0.013888116903115118,0.050433296794465926,0.01237426973385883
1.0051319407392107,0.011013597455985432,0.014328263212706444,0.011624969459267675,0.03943971312222253,0.010436481625118007
1.0051790227643411,0.003334338693202587,0.013001010810428797,0.009001101837417943,0.027131118784616104,0.008180433287061539
1.0052261047894715,0.0027948227754708652,0.008647769327993089,0.005716764128480125,0.01572480349130183,0.005239759670056758
1.0052731868146019,0.010164673003053454,0.005175788829124391,0.005314070387151807,0.00671331890214728,0.0051089511369798515
1.0053202688397322,0.026566180290056158,0.004885676844702085,0.008193549268036414,-0.0015245286523240312,0.008235872148954269
1.0053673508648626,0.05291846997433676,0.006684629133323146,0.011498759854167706,-0.005068202964410169,0.011646746839281723
1.005414432889993,0.08828034555015178,0.010072268255491715,0.017065936640710815,-0.004531983406363664,0.017195181674357903
1.0054615149151234,0.12763762777320273,0.013433430633475116,0.025647230237824777,-0.0009753534907695426,0.02566498064666595
1.0055085969402537,0.16155770115500132,0.01654136609974981,0.038076850744054896,0.007374445708014444,0.037838213391599144
1.0055556789653841,0.18078890709766565,0.020317768058353614,0.05135766337998839,0.018708046690326222,0.050780163346425926
1.0056027609905145,0.18307418566708303,0.022389539565459905,0.06056084021799014,0.030625705639807002,0.05964094111256889
1.0056498430156449,0.1741533504439713,0.02412720489002697,0.06655908741414072,0.04045642284937458,0.06536785225193519
1.0056969250407752,0.16242605985016223,0.024226251095847133,0.07063087442771013,0.04855811166509624,0.06922379736032105
1.0057440070659056,0.15418810481596457,0.02297878867038237,0.07107575192890922,0.05242575869528921,0.06956654754130295
1.005791089091036,0.1523552110015489,0.02015684793008772,0.0660360559428213,0.05243196217068017,0.0645204905598927
1.0058381711161664,0.15691036178882456,0.018397399726736707,0.06130313889977103,0.05102954272512802,0.05981971823712414
1.0058852531412967,0.16538784679386007,0.018227663887425062,0.06307528196508604,0.048652828178149976,0.0616580427995061
1.005932335166427,0.17322460684996496,0.01648221498999529,0.06323184659303546,0.04437202230806522,0.06193118991279955
1.0059794171915575,0.17475929729964576,0.013300804362592166,0.05880087400333982,0.037882802760144905,0.05767671825008882
1.0060264992166879,0.16548577922015562,0.01015130245653659,0.05204155960234529,0.031146467184314755,0.05110537692205098
1.0060735812418182,0.1445721481217929,0.00729123153279093,0.04234591607178599,0.023246217720280855,0.04163741422967609
1.0061206632669486,0.11538472372115638,0.004832120890117494,0.03266210113426135,0.014779434400886617,0.032204922247657516
1.006167745292079,0.08342022676517998,0.003328633223472076,0.0259645785337829,0.007579987871502544,0.02572470244237217
1.0062148273172093,0.053714935068683495,0.004280267803815963,0.01794830890199036,0.0032879997842822912,0.01784092870347275
1.0062619093423397,0.029620632829972474,0.005882040029745171,0.006428025048282717,0.0012190142009242937,0.00638827022930103
1.00630899136747,0.012907514843990737,0.008584333136945165,-0.004503164505502606,0.002675179200540852,-0.004581943145905128
1.0063560733926005,0.004292560353454192,0.012194725863162574,-0.010519166817943732,0.006389349521360496,-0.010707581254603544
1.0064031554177308,0.0038095921685766332,0.01804307283800547,-0.007972360122875525,0.00998085552346502,-0.00827063645081264
1.0064502374428612,0.010924293923755681,0.027924984773358776,0.0013341291502741227,0.01850221210451893,0.0007746807578338323
1.0064973194679916,0.02453035587728399,0.03642480384031579,0.011333716656649779,0.028745441604711108,0.010464589824828292
1.006544401493122,0.042966387475684646,0.04306785679505528,0.020787738978896356,0.03839218604226746,0.01963356170353147
1.0065914835182523,0.06411092062196938,0.04631866469621615,0.03329944681240632,0.04469639790786277,0.03196800387083046
1.0066385655433827,0.08556714248621351,0.04993501583978743,0.049462130528264495,0.04821201600128028,0.04804399049209502
1.006685647568513,0.10493697207975199,0.05204098870532597,0.06485229624100503,0.048924898362212525,0.06342949274548812
1.0067327295936435,0.12014720761669652,0.05220944583542971,0.07640706666955516,0.04776144451389986,0.07502697889280893
1.0067798116187738,0.12974860817624662,0.049165345710058636,0.08294186479002422,0.044836264885784315,0.08164498753828896
1.0068268936439042,0.1331160769266914,0.04678611047216809,0.08436945777741765,0.039852806863977776,0.08320550711088118
1.0068739756690346,0.13051634907150206,0.04135859902809535,0.08386978816652868,0.034754585484728,0.08284241497240165
1.006921057694165,0.12301693370584733,0.03398319146244049,0.08185258015702256,0.028886220552639737,0.08098501087757931
1.0069681397192953,0.11219272060745543,0.025211559275585257,0.07585112215539112,0.02188330795747646,0.07517912285324761
1.0070152217444257,0.09964098937742749,0.01721956857121785,0.06985230351433948,0.015127342646968868,0.06937477599568498
1.007062303769556,0.08648287672211809,0.010960571528158356,0.06302251331950957,0.009748422895152636,0.06270406016167941
1.0071093857946865,0.07315337862299943,0.007353662914295795,0.053521194673379444,0.005526017474603763,0.0533314129014544
1.0071564678198168,0.05967551136841471,0.004256366226785899,0.042771215350936226,0.0014550400071811273,0.042707934701759535
1.0072035498449472,0.046352747241279996,0.0011722936036138618,0.029687677967592516,-0.0011700609881806297,0.02970946110644252
1.0072506318700776,0.03458526276589038,-0.0006391975146370427,0.01916866027493343,-0.0021123058597680576,0.01922373653807813
1.007297713895208,0.02727830692374265,-0.0009763286869645584,0.01473006896934623,-0.0027047564020323206,0.0148050879380085
1.0073447959203383,0.0280866607277734,0.0004430555911585143,0.01711698325886342,-0.0019189482164881256,0.017167151993326312
1.0073918779454687,0.03925806445151868,0.006137970892604718,0.028584290137595406,0.0022854203252069046,0.028502366721959153
1.007438959970599,0.059562255279517966,0.013691146043227315,0.043832242766228824,0.008110123864977054,0.04356938874676144
1.0074860419957294,0.08449757331606145,0.020481748456490086,0.058037587268334905,0.014899869048252306,0.05756966497967674
1.0075331240208598,0.10858230355013457,0.025522851457462553,0.06858033205585247,0.021629475124387763,0.06791609618475768
1.0075802060459902,0.12742598805780986,0.029603854084200694,0.07621925524513734,0.02641220773956914,0.07541974997362334
1.0076272880711206,0.13840784538629322,0.031100170268241002,0.07904744927672683,0.02913629186945356,0.07817247697731092
1.007674370096251,0.14057521646913557,0.03019126560507908,0.0769603579802706,0.030385089195150133,0.07605042067357812
1.0077214521213813,0.1345761316442056,0.02810454893629439,0.07084930100861353,0.029371153980241264,0.06996640901416358
