freq,gls,usurper,pdc_unbiased,shape_periodogram,shift_periodogram
1.0,0.02176245538732735,0.017809367999061985,-0.007335655112181927,0.009520299624459001,-0.007614212111441498
1.0000470820251304,0.05134779247241603,0.025799665101436196,0.016081221596065367,0.013189055413717059,0.015685808305574804
1.0000941640502607,0.09689124580742478,0.03702018259700523,0.05094334186944231,0.02245190158637128,0.050272592683466955
1.0001412460753911,0.14848755125694818,0.04899395022804362,0.08456655871201842,0.03721276056656409,0.08349881979047565
1.0001883281005215,0.19664060203551523,0.06133053136802723,0.10917973127593883,0.056394339826217464,0.10766404867994697
1.0002354101256519,0.23592916525893703,0.07185817554550822,0.12678225514793529,0.07227027175125512,0.12496337209985986
1.0002824921507822,0.26363730657080775,0.07893608022230929,0.13936052532630389,0.08257609040096761,0.13738958679950342
1.0003295741759126,0.2780607972143743,0.08368257586572472,0.14663287491158739,0.088787331464796,0.14458725718636664
1.000376656201043,0.27778293516045677,0.08535506567629045,0.14742341655727248,0.09267290080668403,0.14532018188884893
1.0004237382261734,0.2619162710265795,0.08325962166019236,0.139633635428265,0.09341987265386416,0.13748081499734363
1.0004708202513037,0.23107843684954268,0.07777609975497905,0.12167319492364326,0.09043446628794538,0.1194878614299284
1.0005179022764341,0.1884924826566669,0.07029231406829285,0.09811663264576473,0.08556000235262397,0.09592885552921383
1.0005649843015645,0.1401213853463462,0.06433580853230274,0.07552593926328457,0.08057626150679403,0.07336809059975338
1.0006120663266949,0.09311329616242185,0.05969231694157857,0.056936636782797936,0.07443078222112054,0.054873520255461536
1.0006591483518252,0.05338098213176131,0.056774826791869064,0.04656239048066332,0.06587664716903961,0.044697586469278884
1.0007062303769556,0.024158292773911582,0.05247435176520714,0.0379052596807291,0.05435864084360741,0.036338724635854816
1.000753312402086,0.006389706849983347,0.04789459067297756,0.024925530867037873,0.04058684266620345,0.023735416115494037
1.0008003944272164,4.4957735270936574e-05,0.04471883506150186,0.013623927240606612,0.028562370715449325,0.012779039420588167
1.0008474764523467,0.004476680458159687,0.041801297372146974,0.005279248516488982,0.023836446423478562,0.004573607412367993
1.000894558477477,0.016631009383087918,0.04532954136506177,0.00604487589630294,0.02572671932641085,0.005283479679377229
1.0009416405026075,0.030279800796216314,0.05409968822808373,0.01614856324889533,0.0337125611270573,0.015153865952141929
1.0009887225277379,0.04019506929021177,0.06552600944323564,0.031662352407458065,0.047417093878580924,0.03028281744806109
1.0010358045528682,0.045271217739530065,0.07508119511796509,0.049643587368788454,0.0643365344872184,0.047825623273010265
1.0010828865779986,0.04665854735345898,0.08326729984790744,0.06394396252727896,0.08008246884123843,0.061760283661706245
1.001129968603129,0.04557434040645729,0.08846212533416403,0.06951556918541625,0.09172613018133922,0.06707407005182288
1.0011770506282593,0.04281463251624272,0.08884960595424977,0.06676401531502141,0.0965840002314633,0.06419688297233372
1.0012241326533897,0.03911406922799136,0.08457645447905751,0.05756222886158259,0.09563239725190906,0.05497460609323306
1.00127121467852,0.035734840091298535,0.07718720975773075,0.04469056838221148,0.09155545055032502,0.0421488216376582
1.0013182967036505,0.034632288517627896,0.07053529294951776,0.03354469161607427,0.08781881891912169,0.0310578506566631
1.0013653787287808,0.03686446430802818,0.0674969352075379,0.03235087082016887,0.08615720126196769,0.029904533312979705
1.0014124607539112,0.040499198873267514,0.06874914007371764,0.04235422606047071,0.08772156215569588,0.03990263291717982
1.0014595427790416,0.04245011553894062,0.07261502717886165,0.05148956578485458,0.09145862758258555,0.04897836762956801
1.001506624804172,0.04142424671447975,0.07474387142091435,0.057489670337512934,0.09113914180266161,0.05501133074256095
1.0015537068293023,0.03772147907862947,0.07484343397176237,0.05838903434484734,0.08500260345774416,0.05606530200078419
1.0016007888544327,0.032149333674356434,0.07035644360963417,0.05286952532393206,0.07368290793854021,0.050814773422689107
1.001647870879563,0.025799799790141527,0.06109573824211372,0.040386054375886556,0.056960707990211114,0.03875131266034471
1.0016949529046935,0.020580986012262138,0.04823561413556652,0.02276083148008517,0.038675604248254905,0.02162456625003862
1.0017420349298238,0.01993155776046648,0.04067242357969658,0.008396000375120035,0.025448887825852338,0.007642552382898781
1.0017891169549542,0.027489951613850306,0.03996823715527249,0.00883020356959996,0.02423313999422962,0.008112417713855177
1.0018361989800846,0.042074300128446054,0.04263093824526656,0.022145335055818467,0.030490969631398048,0.02124478864803736
1.001883281005215,0.05845891480384451,0.05163888903796305,0.04104344236602053,0.04303358376024377,0.03979328197756155
1.0019303630303453,0.07582159493280267,0.0605837124229268,0.05832937685591873,0.05820907035444312,0.056687501714062484
1.0019774450554757,0.09824195100672209,0.06639444676270871,0.07041397317164165,0.07486190417000342,0.06837716114642652
1.002024527080606,0.1303669711588208,0.06601820872631273,0.07896421651578898,0.08597988805125308,0.07669347298394266
1.0020716091057364,0.17464242099810953,0.06351888481939096,0.08832693698111686,0.09316783099591042,0.08593659046566121
1.0021186911308668,0.22917237164395338,0.06576515731137271,0.11355266104308831,0.09864922581399437,0.11117779376441249
1.0021657731559972,0.2864808872447173,0.07130978031278777,0.14880372324738836,0.10420375292176044,0.14654005080379384
1.0022128551811276,0.335488571803669,0.07646569169856109,0.17945522269565434,0.10900796436293785,0.17733226884799352
1.002259937206258,0.3667004160945303,0.07906788179047015,0.20044309409803335,0.11133737260428014,0.1984464801724309
1.0023070192313883,0.37630521047742305,0.07874983147358258,0.20989430295355302,0.1104078016301656,0.20796971089379304
1.0023541012565187,0.3658732131217113,0.07595217178390654,0.20800353236518512,0.10649215244910502,0.20609005629486543
1.002401183281649,0.3393357840705059,0.0722428721848415,0.19716291122807472,0.10029026280855383,0.1952310008899622
1.0024482653067794,0.30043566038503033,0.06766671142861196,0.1783931936762516,0.08901540189826385,0.17648790457442015
1.0024953473319098,0.25183659939415354,0.06062179062383375,0.15384153094853617,0.07136528123481663,0.15211850194804508
1.0025424293570402,0.1956066522565673,0.048503497810740356,0.12081929242955049,0.04914522420769546,0.1194880385551979
1.0025895113821706,0.13475970805500284,0.03495536255152027,0.07564140824241966,0.022587007354983132,0.07496550014526601
1.002636593407301,0.07582916802294695,0.025383614437988457,0.025728531183742454,0.0019761741224126887,0.025658981475190638
1.0026836754324313,0.03145358980808763,0.02205304168740402,-0.0040036080406334615,0.0010243850071688391,-0.004032142763956963
1.0027307574575617,0.01779891286180085,0.028019847644714525,-0.006351274616742859,0.020934360988481508,-0.006968851599526946
1.002777839482692,0.04358985242398123,0.039239955323767034,0.006591376950054447,0.049834612423115855,0.005121712744874138
1.0028249215078224,0.1037077589167159,0.05830311231368197,0.04281328660270074,0.0749638242479601,0.040698612638487126
1.0028720035329528,0.18101238562213362,0.07896046889099773,0.0979436666785688,0.08930473632688805,0.09567690316126805
1.0029190855580832,0.25636899888384335,0.09518492060269568,0.15380629462607742,0.09636882183107491,0.15168024833307422
1.0029661675832136,0.31832235074100634,0.1039589085716239,0.19704252226634572,0.09971593151795985,0.19511512209575738
1.003013249608344,0.36361141655314383,0.10909293999215083,0.228525784613192,0.10087324017883838,0.22677434205766522
1.0030603316334743,0.39341420767750745,0.11059215854923529,0.24979870354304085,0.09917626275072784,0.24818023228114258
1.0031074136586047,0.4102870696014962,0.10936152372431054,0.26258314989231946,0.09654748033351843,0.2610461168051527
1.003154495683735,0.41662904201390033,0.10653058051290086,0.266777273312063,0.09244392506085893,0.2652762907682005
1.0032015777088654,0.41405085665469693,0.10210142734432028,0.26326150551395927,0.08683338272588642,0.26176849703123634
1.0032486597339958,0.4030953535584088,0.09603847300020726,0.251751202986526,0.07956269059910227,0.2502579944660367
1.0032957417591262,0.38301151602067063,0.08816245524203323,0.2324239377319079,0.07058938720377025,0.23095185514982147
1.0033428237842565,0.3514583105172215,0.07819332334009933,0.2047530276495091,0.0597886361626822,0.20335759709371803
1.003389905809387,0.3042863356687068,0.06569117437520951,0.16911475512504195,0.0474171464845788,0.16788390701103034
1.0034369878345173,0.2364892670841809,0.05138313189709877,0.12615890065588273,0.03388396990019729,0.12519733338748665
1.0034840698596477,0.14805992805189566,0.036954332205676774,0.07745804013496241,0.020288160163623156,0.0768456929058181
1.003531151884778,0.05937981673678241,0.02735264265920785,0.035632586371168055,0.010064622612162559,0.03532184779931048
1.0035782339099084,0.016571701488668728,0.026450371109488693,0.012038086514572617,0.006284873633903259,0.01184730460648161
1.0036253159350388,0.04141534161646615,0.03624401534315807,0.014399178728297872,0.013117251675122362,0.014006433359260372
1.0036723979601692,0.0978579156313711,0.05350353563126972,0.03595348541122598,0.029526339948371155,0.035081853497860645
1.0037194799852995,0.14599333246590304,0.07577131094556366,0.06503465797160808,0.047379594298188235,0.06368561950274162
1.00376656201043,0.17300879075255565,0.09306474145388563,0.0922030709843016,0.0635043331636667,0.09049033463278425
1.0038136440355603,0.18229222765708752,0.1035407603120372,0.11374971918924169,0.07335415112571117,0.11187089970646176
1.0038607260606907,0.18262972424027749,0.10779574186772513,0.12736778710133306,0.07932775714106755,0.12541272920407145
1.003907808085821,0.18292620727983336,0.11008337518394691,0.13485525602086357,0.08430498489292479,0.1328361527252816
1.0039548901109514,0.18798821740501145,0.11196566307429541,0.13913083302593265,0.08832039374819088,0.1370598807945737
1.0040019721360818,0.19658928748535154,0.11030324401707167,0.1397247738744464,0.09038803045958203,0.13762192788439592
1.0040490541612122,0.20361099360789395,0.10533680797711621,0.1356935801867525,0.09181418498874307,0.13354834007055383
1.0040961361863425,0.20356945018764083,0.09726365415211737,0.1287855413388881,0.09034937981369662,0.12663370871483515
1.004143218211473,0.19261735903368254,0.08830852195400883,0.11776025800915435,0.08768958783453026,0.11560917084117987
1.0041903002366033,0.1692114287165738,0.07663544287374853,0.09836742477706704,0.08072297643346349,0.09628351547243937
1.0042373822617336,0.13469585530973552,0.06298879304765026,0.07519967777083232,0.0691848201696347,0.0733133131783798
1.004284464286864,0.094068350002802,0.04815165023999019,0.051842634052145065,0.055115761009331306,0.05027327031861342
1.0043315463119944,0.0558705414627791,0.03409947866910662,0.03082107495389939,0.03894965120469493,0.029680258627048976
1.0043786283371248,0.029785725493520713,0.02473310330146666,0.019809015244991575,0.02382352614619796,0.019101903038826477
1.0044257103622551,0.022326134922130727,0.02030097533210247,0.01684685304795892,0.01258799803836618,0.01646882184476136
1.0044727923873855,0.03362727707623793,0.02030596195931479,0.01768087969631584,0.007221671668100644,0.017460219644972384
1.004519874412516,0.057935866130881315,0.024273013145484544,0.0238553638180855,0.007751548708002808,0.023616693014165593
1.0045669564376463,0.08691312585069338,0.031599670518380654,0.038233159934289905,0.015212765217808025,0.0377720887873076
1.0046140384627766,0.11302745450084833,0.04106011298520973,0.05542672474865837,0.029687533099792777,0.05455289237286003
1.004661120487907,0.13143773576861661,0.050660665167262746,0.07126698378066398,0.04695182472272423,0.06993509279690255
1.0047082025130374,0.140315951549541,0.06012506223502505,0.0817840112464661,0.064199219023309,0.08003323889770449
1.0047552845381678,0.14016084842095028,0.06408488742037434,0.0846685751900148,0.07827044078992851,0.08259379947618857
1.0048023665632981,0.13271042804166153,0.06419532148427698,0.08028160564993014,0.08828279432266671,0.07796384768900516
1.0048494485884285,0.1199532079956697,0.061344272677978484,0.06958311394397716,0.09506844544668344,0.06706437084083246
1.0048965306135589,0.10352759540252561,0.05942395523152521,0.05738407400153901,0.0978504843756863,0.05474187416195731
1.0049436126386893,0.08458770500586026,0.05629666650667826,0.04469505929439128,0.09563394984307996,0.04204873580721133
1.0049906946638196,0.06411017510052013,0.05301553276030039,0.03435472552873721,0.08936236634152588,0.03182951348980649
1.00503777668895,0.043500849939608656,0.04733683780231204,0.022887706523455283,0.08071323151146703,0.020560381244457363
1.0050848587140804,0.02497562650004661,0.039843131665141196,0.013888116903115118,0.06965887556852046,0.011852072636555756
1.0051319407392107,0.011013597455985432,0.03208363196722473,0.011624969459267675,0.0570934334138668,0.009948599792980293
1.0051790227643411,0.003334338693202587,0.025757180203453776,0.009001101837417943,0.04204035279307733,0.007761353074920811
1.0052261047894715,0.0027948227754708652,0.01753578764970997,0.005716764128480125,0.02504190439455727,0.0049755626809828415
1.0052731868146019,0.010164673003053454,0.011961931544213017,0.005314070387151807,0.010938998661799407,0.004988677835333746
1.0053202688397322,0.026566180290056158,0.009696981699794126,0.008193549268036414,0.0012664278691058664,0.008152540276060856
1.0053673508648626,0.05291846997433676,0.009932353738760228,0.011498759854167706,-0.003316265811832313,0.011591815300892018
1.005414432889993,0.08828034555015178,0.010473598948544107,0.017065936640710815,-0.003714953430692061,0.01716837256598605
1.0054615149151234,0.12763762777320273,0.012680898281410865,0.025647230237824777,-0.00027060817167665985,0.02564402109575198
1.0055085969402537,0.16155770115500132,0.01686550749930839,0.038076850744054896,0.009206867774078706,0.03779024371456186
1.0055556789653841,0.18078890709766565,0.022678639589543446,0.05135766337998839,0.02237309281294218,0.05068911203240412
1.0056027609905145,0.18307418566708303,0.02661586482836327,0.06056084021799014,0.03661264792887907,0.059497705443711156
1.0056498430156449,0.1741533504439713,0.031370800961838474,0.06655908741414072,0.04989819831286576,0.06514539953044741
1.0056969250407752,0.16242605985016223,0.03472945297488187,0.07063087442771013,0.061215810958550367,0.06893232052481459
1.0057440070659056,0.15418810481596457,0.03469447155310009,0.07107575192890922,0.06791076900372954,0.06921102643399006
1.005791089091036,0.1523552110015489,0.03186600664984286,0.0660360559428213,0.07008072918094174,0.06410565389180528
1.0058381711161664,0.15691036178882456,0.030311548933314104,0.06130313889977103,0.06950151610408066,0.05937608174629434
1.0058852531412967,0.16538784679386007,0.03044205647104919,0.06307528196508604,0.06615067019064141,0.0612371845254686
1.005932335166427,0.17322460684996496,0.029383064920564046,0.06323184659303546,0.06021831381758599,0.061545762856291236
1.0059794171915575,0.17475929729964576,0.025660900377671436,0.05880087400333982,0.05189088422168122,0.05732596841902767
1.0060264992166879,0.16548577922015562,0.021336987198211248,0.05204155960234529,0.04358797913996891,0.05078355686351631
1.0060735812418182,0.1445721481217929,0.01713033757747929,0.04234591607178599,0.03443587268152135,0.04133658374564779
1.0061206632669486,0.11538472372115638,0.013607835490456832,0.03266210113426135,0.026209478043837203,0.0318851816254643
1.006167745292079,0.08342022676517998,0.012943156879825547,0.0259645785337829,0.01997333728379526,0.025368421791554102
1.0062148273172093,0.053714935068683495,0.015355344299623515,0.01794830890199036,0.016192113654567263,0.017464305523716257
1.0062619093423397,0.029620632829972474,0.019061810102800295,0.006428025048282717,0.01529197603716901,0.005973875098830405
1.00630899136747,0.012907514843990737,0.022333674262705258,-0.004503164505502606,0.015438332734727674,-0.004958163803274107
1.0063560733926005,0.004292560353454192,0.026585735845269715,-0.010519166817943732,0.016939310063369996,-0.011016827385615444
1.0064031554177308,0.0038095921685766332,0.031062291164717568,-0.007972360122875525,0.018431213777222365,-0.008515134913776746
1.0064502374428612,0.010924293923755681,0.038155491353754414,0.0013341291502741227,0.023617717359365693,0.0006355315435593677
1.0064973194679916,0.02453035587728399,0.04523921233088855,0.011333716656649779,0.03063371810703327,0.01042821661968807
1.006544401493122,0.042966387475684646,0.05088875441925594,0.020787738978896356,0.0372356977450274,0.01969221325259629
1.0065914835182523,0.06411092062196938,0.05471549758981718,0.03329944681240632,0.042832897039499065,0.03205008094390341
1.0066385655433827,0.08556714248621351,0.059696382796521286,0.049462130528264495,0.04769557786724714,0.04809020248394187
1.006685647568513,0.10493697207975199,0.06203460311081953,0.06485229624100503,0.050877670831792135,0.06341106127789889
1.0067327295936435,0.12014720761669652,0.06158528048875332,0.07640706666955516,0.05183861997833718,0.0749547388667281
1.0067798116187738,0.12974860817624662,0.05757091676913835,0.08294186479002422,0.050048760495901526,0.08154278389880892
1.0068268936439042,0.1331160769266914,0.053307811952902316,0.08436945777741765,0.04596263042876422,0.08307551994543724
1.0068739756690346,0.13051634907150206,0.048182113217458654,0.08386978816652868,0.04117296026455925,0.08269849703865546
1.006921057694165,0.12301693370584733,0.04162227963194964,0.08185258015702256,0.0338669056132981,0.08087186740532092
1.0069681397192953,0.11219272060745543,0.03362391642027647,0.07585112215539112,0.025953037369271795,0.07508261932816213
1.0070152217444257,0.09964098937742749,0.025575656294752603,0.06985230351433948,0.01883925447425079,0.06928126432479995
1.007062303769556,0.08648287672211809,0.019725982053114693,0.06302251331950957,0.013938524698002488,0.06259151512380647
1.0071093857946865,0.07315337862299943,0.015546395111660798,0.053521194673379444,0.010584200821717033,0.05318928237418588
1.0071564678198168,0.05967551136841471,0.011528840694740508,0.042771215350936226,0.007818385632108727,0.04252335424460542
1.0072035498449472,0.046352747241279996,0.008919414406649331,0.029687677967592516,0.007166571558566912,0.029463887933661684
1.0072506318700776,0.03458526276589038,0.007755690204325227,0.01916866027493343,0.008082775514677759,0.01892208832250647
1.007297713895208,0.02727830692374265,0.008626953540688967,0.01473006896934623,0.009043135419324132,0.014456973416984854
1.0073447959203383,0.0280866607277734,0.01177508666860735,0.01711698325886342,0.012050787495375585,0.016754625392357014
1.0073918779454687,0.03925806445151868,0.019164370589700625,0.028584290137595406,0.01874478103285642,0.028023254584527268
1.007438959970599,0.059562255279517966,0.029210763147121937,0.043832242766228824,0.026817010019735413,0.043038041421853836
1.0074860419957294,0.08449757331606145,0.03879334942879237,0.058037587268334905,0.036772132339213386,0.05696902598586208
1.0075331240208598,0.10858230355013457,0.046415128101718876,0.06858033205585247,0.04551864438962971,0.06728358133499718
1.0075802060459902,0.12742598805780986,0.051092080391297076,0.07621925524513734,0.05185630413870473,0.0747662437489053
1.0076272880711206,0.13840784538629322,0.05356999722531038,0.07904744927672683,0.05561299362689733,0.07750335438179635
1.007674370096251,0.14057521646913557,0.052211675789662314,0.0769603579802706,0.05667256863857989,0.07538655702587464
1.0077214521213813,0.1345761316442056,0.04736730067497468,0.07084930100861353,0.05490761992549764,0.06931127816384153
1.0077685341465117,0.12269802495893224,0.04068562816066433,0.062425783036096825,0.04862180806870876,0.061041359223871695
