freq,gls,usurper,pdc_unbiased,shape_periodogram,shift_periodogram
1.0,0.02176245538732735,0.021820735720804507,-0.007335655112181927,0.0034018000806707092,-0.007443604167349867
1.0000470820251304,0.05134779247241603,0.029512748684219596,0.016081221596065367,0.007310194331069713,0.015832609724448277
1.0000941640502607,0.09689124580742478,0.03660094199828247,0.05094334186944231,0.01616397895021892,0.05039283859162431
1.0001412460753911,0.14848755125694818,0.04331273225076263,0.08456655871201842,0.02686128126190463,0.08367701446910543
1.0001883281005215,0.19664060203551523,0.049456936052790154,0.10917973127593883,0.03926708159499101,0.10793490135450554
1.0002354101256519,0.23592916525893703,0.05385611683132693,0.12678225514793529,0.04815563598767103,0.12531158564616343
1.0002824921507822,0.26363730657080775,0.05439865979912424,0.13936052532630389,0.052376149163946006,0.13779881418996823
1.0003295741759126,0.2780607972143743,0.054966617222183836,0.14663287491158739,0.05470833479459925,0.1450255332476484
1.000376656201043,0.27778293516045677,0.05573797949609167,0.14742341655727248,0.055646707685519145,0.1457948845662231
1.0004237382261734,0.2619162710265795,0.05381888375639567,0.139633635428265,0.05560068896509722,0.13799278607215365
1.0004708202513037,0.23107843684954268,0.049406041438512543,0.12167319492364326,0.05348323689882755,0.12005699554485609
1.0005179022764341,0.1884924826566669,0.04357026301365412,0.09811663264576473,0.05007324012577443,0.09656048941272846
1.0005649843015645,0.1401213853463462,0.03942083615287968,0.07552593926328457,0.0463870161844211,0.07405170480716354
1.0006120663266949,0.09311329616242185,0.03729041824634439,0.056936636782797936,0.0419468477736403,0.055581627166180286
1.0006591483518252,0.05338098213176131,0.03812817126960599,0.04656239048066332,0.035525507698350035,0.04540113667144848
1.0007062303769556,0.024158292773911582,0.038577007204870596,0.0379052596807291,0.02753924484765689,0.03699494488011203
1.000753312402086,0.006389706849983347,0.038867480074578895,0.024925530867037873,0.018077865213361397,0.024321994673476652
1.0008003944272164,4.4957735270936574e-05,0.040903045608229806,0.013623927240606612,0.009642367170759466,0.013300129499565366
1.0008474764523467,0.004476680458159687,0.04085629009335659,0.005279248516488982,0.007782632147157303,0.005020587676528305
1.000894558477477,0.016631009383087918,0.04436738767997967,0.00604487589630294,0.011131017310895686,0.005675882354704462
1.0009416405026075,0.030279800796216314,0.05269774696542767,0.01614856324889533,0.019007981942191526,0.015517703447534656
1.0009887225277379,0.04019506929021177,0.06333128454299164,0.031662352407458065,0.03241488249848518,0.030596741451508456
1.0010358045528682,0.045271217739530065,0.07226866968595813,0.049643587368788454,0.04875542020510667,0.048076025668403626
1.0010828865779986,0.04665854735345898,0.07606888788856693,0.06394396252727896,0.06508106691228249,0.06191244849212008
1.001129968603129,0.04557434040645729,0.07827877929632271,0.06951556918541625,0.07820733389170663,0.06712855310139348
1.0011770506282593,0.04281463251624272,0.0762700579655333,0.06676401531502141,0.08587442897642522,0.06415778072773816
1.0012241326533897,0.03911406922799136,0.07011893649964805,0.05756222886158259,0.08888665878840651,0.054837946125902766
1.00127121467852,0.035734840091298535,0.061775478099433394,0.04469056838221148,0.08862467536093326,0.041924460243650125
1.0013182967036505,0.034632288517627896,0.05400394165347615,0.03354469161607427,0.08771485679723393,0.030764588307153916
1.0013653787287808,0.03686446430802818,0.052114563241930895,0.03235087082016887,0.0867298883919873,0.029596398568666273
1.0014124607539112,0.040499198873267514,0.055265004729739664,0.04235422606047071,0.08686246653150327,0.0396312187401442
1.0014595427790416,0.04245011553894062,0.05926558768339415,0.05148956578485458,0.08648904681892869,0.04881035142018757
1.001506624804172,0.04142424671447975,0.06022370749035206,0.057489670337512934,0.08114742277300512,0.054983159455727515
1.0015537068293023,0.03772147907862947,0.05869186525203483,0.05838903434484734,0.07175629929391536,0.05615338860450631
1.0016007888544327,0.032149333674356434,0.0555617221154225,0.05286952532393206,0.05832592573051823,0.05101705919163778
1.001647870879563,0.025799799790141527,0.0512513118811263,0.040386054375886556,0.04125837105997039,0.0390436725519173
1.0016949529046935,0.020580986012262138,0.043510660053202796,0.02276083148008517,0.0239666023849414,0.021967171716819073
1.0017420349298238,0.01993155776046648,0.03846805573799122,0.008396000375120035,0.010687135117661268,0.008040458405286197
1.0017891169549542,0.027489951613850306,0.03823475036408177,0.00883020356959996,0.00779882958842358,0.008569216668256446
1.0018361989800846,0.042074300128446054,0.038700078637708475,0.022145335055818467,0.012058979844938906,0.021738612230782224
1.001883281005215,0.05845891480384451,0.04320411506728951,0.04104344236602053,0.02178468087236389,0.040316115754727384
1.0019303630303453,0.07582159493280267,0.04975355780191593,0.05832937685591873,0.03258189917495602,0.05726198631066212
1.0019774450554757,0.09824195100672209,0.05482391607631081,0.07041397317164165,0.04408748333491384,0.06900336685911476
1.002024527080606,0.1303669711588208,0.05265126359927964,0.07896421651578898,0.05310754196672731,0.07729945520753832
1.0020716091057364,0.17464242099810953,0.04678200717015051,0.08832693698111686,0.0592714600729677,0.08650331253530767
1.0021186911308668,0.22917237164395338,0.0473587305974379,0.11355266104308831,0.06401260845481381,0.11165263369276435
1.0021657731559972,0.2864808872447173,0.05214862486809227,0.14880372324738836,0.06866479446560815,0.14687929197518387
1.0022128551811276,0.335488571803669,0.057257908625622224,0.17945522269565434,0.07282657069946562,0.17753586146123776
1.002259937206258,0.3667004160945303,0.060667487534287946,0.20044309409803335,0.07526132237701313,0.1985505351268006
1.0023070192313883,0.37630521047742305,0.06192894594859723,0.20989430295355302,0.07537282765722751,0.20803310568549113
1.0023541012565187,0.3658732131217113,0.06090471275061091,0.20800353236518512,0.07325949757398584,0.20616979099028718
1.002401183281649,0.3393357840705059,0.05915509806363279,0.19716291122807472,0.06869463433817083,0.19537395153811934
1.0024482653067794,0.30043566038503033,0.05679811495828371,0.1783931936762516,0.06067985922236065,0.17671292331747276
1.0024953473319098,0.25183659939415354,0.05235328821013736,0.15384153094853617,0.0482452920861445,0.15240224625750604
1.0025424293570402,0.1956066522565673,0.04387109257460823,0.12081929242955049,0.03247904340922211,0.11977202479342247
1.0025895113821706,0.13475970805500284,0.032761037701803546,0.07564140824241966,0.015408213589931382,0.07510712658172933
1.002636593407301,0.07582916802294695,0.02305232361337903,0.025728531183742454,0.002377633597120398,0.02563657158797154
1.0026836754324313,0.03145358980808763,0.022382583132649275,-0.0040036080406334615,-0.00044749442869410126,-0.003986724971312454
1.0027307574575617,0.01779891286180085,0.029850322945101534,-0.006351274616742859,0.00969308182611921,-0.006666932421488747
1.002777839482692,0.04358985242398123,0.03020536309051952,0.006591376950054447,0.02897503469223749,0.005637256448067457
1.0028249215078224,0.1037077589167159,0.032726380597101874,0.04281328660270074,0.044295885692786315,0.04137770621085047
1.0028720035329528,0.18101238562213362,0.042189874612996614,0.0979436666785688,0.05410693011062572,0.09627642628014126
1.0029190855580832,0.25636899888384335,0.057189946753052015,0.15380629462607742,0.05878697901541544,0.1521158914348193
1.0029661675832136,0.31832235074100634,0.07002569266549175,0.19704252226634572,0.05760699830387284,0.19546579529403701
1.003013249608344,0.36361141655314383,0.07610455399899388,0.228525784613192,0.05716451734833614,0.2270247447104532
1.0030603316334743,0.39341420767750745,0.07889245426272343,0.24979870354304085,0.056064100149910714,0.2483632371683888
1.0031074136586047,0.4102870696014962,0.07903864874184535,0.26258314989231946,0.05375504375074758,0.26121327836119795
1.003154495683735,0.41662904201390033,0.07801267559468752,0.266777273312063,0.050772133913288026,0.26546555697096114
1.0032015777088654,0.41405085665469693,0.07567240341775967,0.26326150551395927,0.04681834336701837,0.2620130429977937
1.0032486597339958,0.4030953535584088,0.07202266805994265,0.251751202986526,0.04163612647788612,0.2505852589387342
1.0032957417591262,0.38301151602067063,0.06697977058466852,0.2324239377319079,0.035271239935113864,0.2313734008467956
1.0033428237842565,0.3514583105172215,0.060335639296520804,0.2047530276495091,0.027612260033879794,0.20386946290851787
1.003389905809387,0.3042863356687068,0.051869392816028016,0.16911475512504195,0.0191077597157779,0.16845395871125562
1.0034369878345173,0.2364892670841809,0.04202478257117455,0.12615890065588273,0.009891455058769516,0.12578017241327
1.0034840698596477,0.14805992805189566,0.03160566084581643,0.07745804013496241,0.0008462646590760582,0.07738883010431555
1.003531151884778,0.05937981673678241,0.02465049733120947,0.035632586371168055,-0.005532464428616637,0.03579549275177308
1.0035782339099084,0.016571701488668728,0.024746792727803342,0.012038086514572617,-0.006354513958315296,0.012240772620683535
1.0036253159350388,0.04141534161646615,0.03387631936355473,0.014399178728297872,0.0014472591721624742,0.01434382038884472
1.0036723979601692,0.0978579156313711,0.047955293907906836,0.03595348541122598,0.015687951408821926,0.035423428936543364
1.0037194799852995,0.14599333246590304,0.06413624929372497,0.06503465797160808,0.03277385996846026,0.06396263896039983
1.00376656201043,0.17300879075255565,0.07559417578987584,0.0922030709843016,0.050163372414745645,0.09063754169088546
1.0038136440355603,0.18229222765708752,0.08389238281973575,0.11374971918924169,0.061521481082835706,0.1119133324865807
1.0038607260606907,0.18262972424027749,0.08870878117999247,0.12736778710133306,0.07017615534356263,0.12535103473817946
1.003907808085821,0.18292620727983336,0.08952886647329507,0.13485525602086357,0.07929396756213561,0.13265548746440134
1.0039548901109514,0.18798821740501145,0.08984765747321914,0.13913083302593265,0.08472974289314744,0.13683207506868128
1.0040019721360818,0.19658928748535154,0.08866740211285179,0.1397247738744464,0.08683871568570285,0.13738532940217
1.0040490541612122,0.20361099360789395,0.08646457641837524,0.1356935801867525,0.08536682683309033,0.13336764963105685
1.0040961361863425,0.20356945018764083,0.08051634965233546,0.1287855413388881,0.08261384351437014,0.12649127875115926
1.004143218211473,0.19261735903368254,0.07072332433911216,0.11776025800915435,0.07768665736396481,0.11553868693949008
1.0041903002366033,0.1692114287165738,0.05925870098058977,0.09836742477706704,0.0690045350525843,0.09630471737317532
1.0042373822617336,0.13469585530973552,0.046683637973359275,0.07519967777083232,0.05736516633882883,0.07340831634629201
1.004284464286864,0.094068350002802,0.035168159170871224,0.051842634052145065,0.04340989832175919,0.05043994771742508
1.0043315463119944,0.0558705414627791,0.025688593945160813,0.03082107495389939,0.02777491855630492,0.02990370093417114
1.0043786283371248,0.029785725493520713,0.020146255631654612,0.019809015244991575,0.012965158777978079,0.019373757901014952
1.0044257103622551,0.022326134922130727,0.018158399681220534,0.01684685304795892,0.001313984752096201,0.016794557870298828
1.0044727923873855,0.03362727707623793,0.01953860842935052,0.01768087969631584,-0.004700099974800633,0.017826025040495533
1.004519874412516,0.057935866130881315,0.023698764926611448,0.0238553638180855,-0.005096035336854218,0.024010239091000772
1.0045669564376463,0.08691312585069338,0.030507557199885252,0.038233159934289905,0.0009113368613691716,0.03818261372984929
1.0046140384627766,0.11302745450084833,0.03882793599994944,0.05542672474865837,0.012552342499540015,0.05499019417928409
1.004661120487907,0.13143773576861661,0.046323206385696564,0.07126698378066398,0.02606258196362619,0.07040167150698178
1.0047082025130374,0.140315951549541,0.05205340111066377,0.0817840112464661,0.040137406417476214,0.080497407057381
1.0047552845381678,0.14016084842095028,0.05344485950208238,0.0846685751900148,0.05218229303365154,0.08303723598880636
1.0048023665632981,0.13271042804166153,0.05160445101142451,0.08028160564993014,0.0603168614800366,0.07841521982784415
1.0048494485884285,0.1199532079956697,0.04819071997834886,0.06958311394397716,0.06736596800202936,0.06749820685308099
1.0048965306135589,0.10352759540252561,0.044123518216780094,0.05738407400153901,0.0712646647107427,0.055160185295986985
1.0049436126386893,0.08458770500586026,0.037242633971392734,0.04469505929439128,0.07126870645886589,0.04244131410344133
1.0049906946638196,0.06411017510052013,0.03206134287336035,0.03435472552873721,0.06790266856008857,0.032180770859636304
1.00503777668895,0.043500849939608656,0.026851425412881404,0.022887706523455283,0.062268918535134124,0.020869284759252316
1.0050848587140804,0.02497562650004661,0.022177722384922598,0.013888116903115118,0.05345670809322909,0.012140241747288212
1.0051319407392107,0.011013597455985432,0.019691134197796657,0.011624969459267675,0.042746420791615156,0.010222366222953957
1.0051790227643411,0.003334338693202587,0.018549034436827434,0.009001101837417943,0.031094344066425285,0.00797752235133781
1.0052261047894715,0.0027948227754708652,0.014076297652310618,0.005716764128480125,0.020156118337464602,0.005051801480665666
1.0052731868146019,0.010164673003053454,0.009454081243121568,0.005314070387151807,0.010789727865180591,0.004956629107663847
1.0053202688397322,0.026566180290056158,0.007157433317081451,0.008193549268036414,0.0012032042002567528,0.008149553852616537
1.0053673508648626,0.05291846997433676,0.007154497024682911,0.011498759854167706,-0.0038745224079428232,0.011620032634835135
1.005414432889993,0.08828034555015178,0.009921875581155093,0.017065936640710815,-0.0047813589301144805,0.01721409059949737
1.0054615149151234,0.12763762777320273,0.012939009373955389,0.025647230237824777,-0.0024788384671446846,0.025714890199480193
1.0055085969402537,0.16155770115500132,0.015527651081370933,0.038076850744054896,0.004566197439716312,0.037906820186462444
1.0055556789653841,0.18078890709766565,0.018505090302722127,0.05135766337998839,0.014707596717335172,0.05085360483724789
1.0056027609905145,0.18307418566708303,0.02000527739371244,0.06056084021799014,0.025528873455813377,0.05971250262388268
1.0056498430156449,0.1741533504439713,0.021019503515836528,0.06655908741414072,0.03408983741753123,0.0654472270800968
1.0056969250407752,0.16242605985016223,0.020981378267415845,0.07063087442771013,0.04119699520148984,0.06930638396489154
1.0057440070659056,0.15418810481596457,0.019705961609756746,0.07107575192890922,0.04418977993541455,0.06966259888011263
1.005791089091036,0.1523552110015489,0.0174827384031173,0.0660360559428213,0.04392318087020008,0.06462720978603688
1.0058381711161664,0.15691036178882456,0.016634890092135018,0.06130313889977103,0.04294642221728556,0.059920462290606165
1.0058852531412967,0.16538784679386007,0.01753631347029111,0.06307528196508604,0.04131827474986323,0.06174280163694672
1.005932335166427,0.17322460684996496,0.016676455691850906,0.06323184659303546,0.037487510459594364,0.06201548871254619
1.0059794171915575,0.17475929729964576,0.014760485467570661,0.05880087400333982,0.03178320040527663,0.05775823681046505
1.0060264992166879,0.16548577922015562,0.013020103961188153,0.05204155960234529,0.0258238829153347,0.05118455947930051
1.0060735812418182,0.1445721481217929,0.011588735928132874,0.04234591607178599,0.019016651256554967,0.04170678312421081
1.0061206632669486,0.11538472372115638,0.010160714514991714,0.03266210113426135,0.011433003099994772,0.03227112461389108
1.006167745292079,0.08342022676517998,0.008569570981020838,0.0259645785337829,0.004825434879997334,0.02579229414930847
1.0062148273172093,0.053714935068683495,0.008793044141092606,0.01794830890199036,0.0006898933937865416,0.017915926811078575
1.0062619093423397,0.029620632829972474,0.009344434463145408,0.006428025048282717,-0.0013389123500639184,0.006468586825104258
1.00630899136747,0.012907514843990737,0.010890750348866149,-0.004503164505502606,-0.00019867880570079006,-0.00449419414952123
1.0063560733926005,0.004292560353454192,0.013157769107545432,-0.010519166817943732,0.0031163104057903078,-0.010616004845036888
1.0064031554177308,0.0038095921685766332,0.017507161910247638,-0.007972360122875525,0.006763196879784013,-0.008190651129177676
1.0064502374428612,0.010924293923755681,0.02577743757930303,0.0013341291502741227,0.015470585348386136,0.0008246868534591889
1.0064973194679916,0.02453035587728399,0.03218819931458084,0.011333716656649779,0.02518839547093123,0.010502631548185811
1.006544401493122,0.042966387475684646,0.03701291906498888,0.020787738978896356,0.0342829040195925,0.019661193408194312
1.0065914835182523,0.06411092062196938,0.038621399467960144,0.03329944681240632,0.03990831602335954,0.03199644573593256
1.0066385655433827,0.08556714248621351,0.04140129766268744,0.049462130528264495,0.04288571724784414,0.04807409476538361
1.006685647568513,0.10493697207975199,0.04332854637347904,0.06485229624100503,0.043122708416641835,0.06346660920110181
1.0067327295936435,0.12014720761669652,0.04373364611348553,0.07640706666955516,0.04163135072483127,0.07507320415430245
1.0067798116187738,0.12974860817624662,0.04155955744762304,0.08294186479002422,0.03890545757490707,0.08169212380394275
1.0068268936439042,0.1331160769266914,0.04073270246066009,0.08436945777741765,0.034482858033161375,0.08325109597733044
1.0068739756690346,0.13051634907150206,0.03655887531915267,0.08386978816652868,0.030033243024955053,0.08288435868991104
1.006921057694165,0.12301693370584733,0.030171093465515404,0.08185258015702256,0.024991447616657413,0.08101993267091157
1.0069681397192953,0.11219272060745543,0.02259748560771944,0.07585112215539112,0.01870028725190326,0.07521360865851356
1.0070152217444257,0.09964098937742749,0.01575207455807117,0.06985230351433948,0.012583299547496039,0.06940931174004035
1.007062303769556,0.08648287672211809,0.010190174437570308,0.06302251331950957,0.00736540630872032,0.06274943848828007
1.0071093857946865,0.07315337862299943,0.007114025419229801,0.053521194673379444,0.0028864352868212197,0.053398017025337266
1.0071564678198168,0.05967551136841471,0.004668406845551447,0.042771215350936226,-0.0012392634823239755,0.0427887979362428
1.0072035498449472,0.046352747241279996,0.00195546178345992,0.029687677967592516,-0.004241364738612059,0.029811210189165594
1.0072506318700776,0.03458526276589038,0.0008430298905096426,0.01916866027493343,-0.0053227156861143645,0.019333531790244208
1.007297713895208,0.02727830692374265,0.0011682680967517332,0.01473006896934623,-0.005514374747016178,0.014903633630043555
1.0073447959203383,0.0280866607277734,0.0033277419625780394,0.01711698325886342,-0.0039977855291188,0.017239290373394348
1.0073918779454687,0.03925806445151868,0.009298259917651984,0.028584290137595406,0.0005750665084070022,0.028549952663654173
1.007438959970599,0.059562255279517966,0.016480770940199976,0.043832242766228824,0.0066372627625838985,0.04359186175066774
1.0074860419957294,0.08449757331606145,0.02259314001390068,0.058037587268334905,0.012967948374801218,0.057586746030763754
1.0075331240208598,0.10858230355013457,0.02691482125758962,0.06858033205585247,0.019466753290291784,0.0679204281893282
1.0075802060459902,0.12742598805780986,0.030381479839156945,0.07621925524513734,0.023929126979367762,0.07541948607393685
1.0076272880711206,0.13840784538629322,0.031919756944706626,0.07904744927672683,0.02659740818583899,0.07816574742257786
1.007674370096251,0.14057521646913557,0.030811758594754952,0.0769603579802706,0.028348605374519338,0.07602513812486045
1.0077214521213813,0.1345761316442056,0.028960217849223036,0.07084930100861353,0.028105016898754828,0.06992114260498139
