freq,gls,usurper,pdc_unbiased,shape_periodogram,shift_periodogram
1.0,0.02176245538732735,0.02072232281683068,-0.007335655112181927,-0.0007664316813096591,-0.007288606983624572
1.0000470820251304,0.05134779247241603,0.034418494199883076,0.016081221596065367,0.008201083309779703,0.01565526150853521
1.0000941640502607,0.09689124580742478,0.048696057655487256,0.05094334186944231,0.024473401502201463,0.04968613265593039
1.0001412460753911,0.14848755125694818,0.06351367490499775,0.08456655871201842,0.04014033109807149,0.08255873459661484
1.0001883281005215,0.19664060203551523,0.07576447290799307,0.10917973127593883,0.05481526059029039,0.1065331349036758
1.0002354101256519,0.23592916525893703,0.0832344727125125,0.12678225514793529,0.065001182775855,0.12373707239337724
1.0002824921507822,0.26363730657080775,0.0854906561508532,0.13936052532630389,0.06976147082873534,0.136154775766131
1.0003295741759126,0.2780607972143743,0.08677134207864755,0.14663287491158739,0.07244127653260479,0.14334369770299826
1.000376656201043,0.27778293516045677,0.08724446889384489,0.14742341655727248,0.07326921588688588,0.1441051587416771
1.0004237382261734,0.2619162710265795,0.08398941322251464,0.139633635428265,0.07244210229808896,0.13632460686391573
1.0004708202513037,0.23107843684954268,0.07671616465202316,0.12167319492364326,0.0690173564154311,0.11845375732946728
1.0005179022764341,0.1884924826566669,0.06725808936236792,0.09811663264576473,0.0638956088139506,0.09506383205341841
1.0005649843015645,0.1401213853463462,0.06020076522944055,0.07552593926328457,0.05889344272993458,0.07266126588434786
1.0006120663266949,0.09311329616242185,0.055983676074276824,0.056936636782797936,0.05338681525522063,0.05430778235438106
1.0006591483518252,0.05338098213176131,0.05617210713959791,0.04656239048066332,0.046800303629231814,0.04423902260217513
1.0007062303769556,0.024158292773911582,0.05633503411164967,0.0379052596807291,0.038814788627585264,0.03596410416477802
1.000753312402086,0.006389706849983347,0.05452210000432674,0.024925530867037873,0.029136927467448802,0.02346063837273181
1.0008003944272164,4.4957735270936574e-05,0.05450711197235517,0.013623927240606612,0.020080139555344635,0.012613806658253035
1.0008474764523467,0.004476680458159687,0.05200801185514827,0.005279248516488982,0.01704612100761092,0.0044277865941982205
1.000894558477477,0.016631009383087918,0.05412928387765527,0.00604487589630294,0.019214282060960514,0.005085221663530907
1.0009416405026075,0.030279800796216314,0.06264555365506996,0.01614856324889533,0.026067705537195576,0.014841008734303164
1.0009887225277379,0.04019506929021177,0.07498173092529138,0.031662352407458065,0.038471187307617304,0.029739592300142458
1.0010358045528682,0.045271217739530065,0.08675592652761693,0.049643587368788454,0.05323337404985506,0.04701752154135785
1.0010828865779986,0.04665854735345898,0.09112485988344389,0.06394396252727896,0.06782483813044309,0.06065953216455036
1.001129968603129,0.04557434040645729,0.0918938005743499,0.06951556918541625,0.0788473980028977,0.06574939350865977
1.0011770506282593,0.04281463251624272,0.08631467010412949,0.06676401531502141,0.08452979739933957,0.06273866291251388
1.0012241326533897,0.03911406922799136,0.07678109132502033,0.05756222886158259,0.08622032219587969,0.053432386364129246
1.00127121467852,0.035734840091298535,0.066229467029804,0.04469056838221148,0.08518466066203076,0.040568442129889144
1.0013182967036505,0.034632288517627896,0.057921180180277476,0.03354469161607427,0.0846027747820279,0.029418003386400108
1.0013653787287808,0.03686446430802818,0.05934301127798174,0.03235087082016887,0.08537229824612812,0.028184492473854683
1.0014124607539112,0.040499198873267514,0.06747552471097508,0.04235422606047071,0.08792026548601257,0.03809842680718315
1.0014595427790416,0.04245011553894062,0.07571275435238566,0.05148956578485458,0.08938308242082961,0.047196769442855675
1.001506624804172,0.04142424671447975,0.08029362131022358,0.057489670337512934,0.08621934121064222,0.05335964025125231
1.0015537068293023,0.03772147907862947,0.08012760482862716,0.05838903434484734,0.07926588998050813,0.05457505212814956
1.0016007888544327,0.032149333674356434,0.0771997023299456,0.05286952532393206,0.06735549427143082,0.049588637165821535
1.001647870879563,0.025799799790141527,0.07124262581869815,0.040386054375886556,0.05138089432743918,0.037843221280834234
1.0016949529046935,0.020580986012262138,0.060938394681493764,0.02276083148008517,0.03416792769642494,0.021051300898276556
1.0017420349298238,0.01993155776046648,0.05313107005334945,0.008396000375120035,0.02098391875879412,0.007346393573604023
1.0017891169549542,0.027489951613850306,0.051287328674137406,0.00883020356959996,0.017669820274839765,0.0079440886391001
1.0018361989800846,0.042074300128446054,0.05209323594874122,0.022145335055818467,0.022763381489723355,0.020995045625849546
1.001883281005215,0.05845891480384451,0.057609132338079155,0.04104344236602053,0.03328612346988369,0.03936748883067804
1.0019303630303453,0.07582159493280267,0.06616307701965661,0.05832937685591873,0.044326421728973275,0.05612458958801466
1.0019774450554757,0.09824195100672209,0.07369247731777456,0.07041397317164165,0.05427138528391104,0.06775397207383706
1.002024527080606,0.1303669711588208,0.07274922859847287,0.07896421651578898,0.06167984358629413,0.07597899793032818
1.0020716091057364,0.17464242099810953,0.06702560439891482,0.08832693698111686,0.0665984448786044,0.08513991608520877
1.0021186911308668,0.22917237164395338,0.07054633802016551,0.11355266104308831,0.07144577636421459,0.11021466739130291
1.0021657731559972,0.2864808872447173,0.07995580574819029,0.14880372324738836,0.07702281482171518,0.14534907262859606
1.0022128551811276,0.335488571803669,0.08936569259948535,0.17945522269565434,0.0820430859836142,0.17593658248588812
1.002259937206258,0.3667004160945303,0.0957626682013847,0.20044309409803335,0.08477761017694213,0.19692754199703963
1.0023070192313883,0.37630521047742305,0.09835136133133073,0.20989430295355302,0.0845730787805433,0.20642840624304024
1.0023541012565187,0.3658732131217113,0.09686422823451271,0.20800353236518512,0.08149299462763542,0.20462222286265241
1.002401183281649,0.3393357840705059,0.09202971379876862,0.19716291122807472,0.07523339877148287,0.1939375929060246
1.0024482653067794,0.30043566038503033,0.08475038663779047,0.1783931936762516,0.06551192208016571,0.17544679775439126
1.0024953473319098,0.25183659939415354,0.07486347943876412,0.15384153094853617,0.05170830195703014,0.15137815392866433
1.0025424293570402,0.1956066522565673,0.061127240514586054,0.12081929242955049,0.03617191136519762,0.11899351831709838
1.0025895113821706,0.13475970805500284,0.04217237217924201,0.07564140824241966,0.019377308340817186,0.07460956875505362
1.002636593407301,0.07582916802294695,0.0229810604912275,0.025728531183742454,0.005766083766246091,0.02541152805119547
1.0026836754324313,0.03145358980808763,0.018856082519350163,-0.0040036080406334615,0.0012177722085384092,-0.004059092190094995
1.0027307574575617,0.01779891286180085,0.02902741895275737,-0.006351274616742859,0.01058560829709455,-0.006868943077302553
1.002777839482692,0.04358985242398123,0.032527801531399725,0.006591376950054447,0.02886694848136898,0.005153432886112456
1.0028249215078224,0.1037077589167159,0.039394875106622956,0.04281328660270074,0.04636356955136752,0.040510099298143115
1.0028720035329528,0.18101238562213362,0.05471721415330365,0.0979436666785688,0.06250193597795203,0.09495059504702934
1.0029190855580832,0.25636899888384335,0.07672351539886409,0.15380629462607742,0.07277951304526305,0.15052527892968487
1.0029661675832136,0.31832235074100634,0.09740532085747129,0.19704252226634572,0.07359402692530524,0.19387088754194637
1.003013249608344,0.36361141655314383,0.10756142460396692,0.228525784613192,0.07431376784219111,0.22544445626538273
1.0030603316334743,0.39341420767750745,0.11351509876779603,0.24979870354304085,0.07470680169640494,0.24678812971352365
1.0031074136586047,0.4102870696014962,0.11531995168926851,0.26258314989231946,0.07313693461289551,0.2596659608140411
1.003154495683735,0.41662904201390033,0.11479592106614443,0.266777273312063,0.0704306869601162,0.2639493890546176
1.0032015777088654,0.41405085665469693,0.11190359180675208,0.26326150551395927,0.06612785464833837,0.26054160440212304
1.0032486597339958,0.4030953535584088,0.10666802531847372,0.251751202986526,0.06006719426478656,0.24917824372251343
1.0032957417591262,0.38301151602067063,0.09900043666696913,0.2324239377319079,0.05233541815666798,0.2300604744526803
1.0033428237842565,0.3514583105172215,0.0885042639905163,0.2047530276495091,0.042707449338500764,0.202700422869579
1.003389905809387,0.3042863356687068,0.07490837947994741,0.16911475512504195,0.03143684025327721,0.16749908713908454
1.0034369878345173,0.2364892670841809,0.05892898734760929,0.12615890065588273,0.019058323377019556,0.12510520658846802
1.0034840698596477,0.14805992805189566,0.041371530303603625,0.07745804013496241,0.006816596982176213,0.07702987478792427
1.003531151884778,0.05937981673678241,0.02805517957627174,0.035632586371168055,-0.002003159214944491,0.03568802501797596
1.0035782339099084,0.016571701488668728,0.02442798619611059,0.012038086514572617,-0.003552741959370108,0.012199551514089706
1.0036253159350388,0.04141534161646615,0.034071722326175946,0.014399178728297872,0.005342031275321678,0.014116724254416674
1.0036723979601692,0.0978579156313711,0.050405853865204735,0.03595348541122598,0.020381705441147105,0.034907308202696975
1.0037194799852995,0.14599333246590304,0.069417387662497,0.06503465797160808,0.03879523842279552,0.06308946023403493
1.00376656201043,0.17300879075255565,0.08386400610769884,0.0922030709843016,0.05685877437213441,0.08944810741570583
1.0038136440355603,0.18229222765708752,0.09543111771024679,0.11374971918924169,0.06983304533684688,0.11047846304698286
1.0038607260606907,0.18262972424027749,0.1029325324974965,0.12736778710133306,0.08096639461101858,0.12369094061609802
1.003907808085821,0.18292620727983336,0.10516699205916755,0.13485525602086357,0.09101774207733306,0.13082914176163796
1.0039548901109514,0.18798821740501145,0.10607293590851513,0.13913083302593265,0.09593148765529379,0.13494762146675598
1.0040019721360818,0.19658928748535154,0.1052616727747088,0.1397247738744464,0.09699831921819632,0.13550673279457884
1.0040490541612122,0.20361099360789395,0.10420858969452872,0.1356935801867525,0.0940973267931963,0.13155902262057573
1.0040961361863425,0.20356945018764083,0.0994267192834413,0.1287855413388881,0.08961682540158833,0.1247843771481608
1.004143218211473,0.19261735903368254,0.08880672007041088,0.11776025800915435,0.08220439384327233,0.11400157729046956
1.0041903002366033,0.1692114287165738,0.07494072293068775,0.09836742477706704,0.07195027819234678,0.09497179059565036
1.0042373822617336,0.13469585530973552,0.059255528531961844,0.07519967777083232,0.0594834316894915,0.07230806179094343
1.004284464286864,0.094068350002802,0.04485257398602397,0.051842634052145065,0.04470603635846196,0.04961919325337978
1.0043315463119944,0.0558705414627791,0.032972823299373004,0.03082107495389939,0.029194486892423398,0.029349325003328035
1.0043786283371248,0.029785725493520713,0.02624918234592761,0.019809015244991575,0.015684418450549988,0.01900932820658713
1.0044257103622551,0.022326134922130727,0.024435677883765723,0.01684685304795892,0.0057792164813251475,0.016539812593760483
1.0044727923873855,0.03362727707623793,0.026831908094342802,0.01768087969631584,0.001658368122191333,0.017576909645461918
1.004519874412516,0.057935866130881315,0.03274863961015953,0.0238553638180855,0.0030990332141739374,0.023672512956090682
1.0045669564376463,0.08691312585069338,0.042281588123989355,0.038233159934289905,0.010594152103791854,0.03766383582136575
1.0046140384627766,0.11302745450084833,0.05383863325234573,0.05542672474865837,0.023538471663189897,0.05421120496149714
1.004661120487907,0.13143773576861661,0.06396778185878517,0.07126698378066398,0.03792831919863744,0.06936168593719638
1.0047082025130374,0.140315951549541,0.0712452726486165,0.0817840112464661,0.051592236354414255,0.07925423943730232
1.0047552845381678,0.14016084842095028,0.07374432506997604,0.0846685751900148,0.06273158647424774,0.08164490387544829
1.0048023665632981,0.13271042804166153,0.07209761911797129,0.08028160564993014,0.06944729969867884,0.07695468990830454
1.0048494485884285,0.1199532079956697,0.06811288957861636,0.06958311394397716,0.07480619734924217,0.06599638793115083
1.0048965306135589,0.10352759540252561,0.061352509814583234,0.05738407400153901,0.07654772775591552,0.05369079291357242
1.0049436126386893,0.08458770500586026,0.05195548356850541,0.04469505929439128,0.07478073837517693,0.04105531805459847
1.0049906946638196,0.06411017510052013,0.04349683032788355,0.03435472552873721,0.07065797631245982,0.030889940018945992
1.00503777668895,0.043500849939608656,0.035259868346346625,0.022887706523455283,0.06384732670453594,0.01973456403570631
1.0050848587140804,0.02497562650004661,0.028104940631281876,0.013888116903115118,0.05459549454087203,0.011179922192290954
1.0051319407392107,0.011013597455985432,0.02410315465765956,0.011624969459267675,0.04458334279125402,0.009408660127430475
1.0051790227643411,0.003334338693202587,0.020980489128948062,0.009001101837417943,0.03402825092706517,0.0073063238370465085
1.0052261047894715,0.0027948227754708652,0.015727971112612173,0.005716764128480125,0.024498859053431014,0.004495767013044802
1.0052731868146019,0.010164673003053454,0.010703056982695356,0.005314070387151807,0.015239937503755057,0.004552050945280417
1.0053202688397322,0.026566180290056158,0.007852446126542642,0.008193549268036414,0.006023880355165652,0.00788479686468614
1.0053673508648626,0.05291846997433676,0.007785641946114594,0.011498759854167706,0.0014443158510209033,0.011412979093503077
1.005414432889993,0.08828034555015178,0.011645611112194748,0.017065936640710815,-5.036420965913645e-05,0.017047427450605557
1.0054615149151234,0.12763762777320273,0.01587035105508632,0.025647230237824777,0.0010817314512846009,0.02556207677138828
1.0055085969402537,0.16155770115500132,0.020813573562547646,0.038076850744054896,0.0070646525935211925,0.03768125994951446
1.0055556789653841,0.18078890709766565,0.025776745967250186,0.05135766337998839,0.01718999756518458,0.05045256606187375
1.0056027609905145,0.18307418566708303,0.02901116039681915,0.06056084021799014,0.028962417410006398,0.05908215168308591
1.0056498430156449,0.1741533504439713,0.03077180844695979,0.06655908741414072,0.0374039758122289,0.06467895772018233
1.0056969250407752,0.16242605985016223,0.031154771863828073,0.07063087442771013,0.044029582066878376,0.06844194594608034
1.0057440070659056,0.15418810481596457,0.03075021157070482,0.07107575192890922,0.04716168566666482,0.06874227519174475
1.005791089091036,0.1523552110015489,0.029026657314008185,0.0660360559428213,0.047145813710828155,0.06370152359470241
1.0058381711161664,0.15691036178882456,0.02793569997779105,0.06130313889977103,0.046407035806805025,0.05900155386946795
1.0058852531412967,0.16538784679386007,0.029693002877026576,0.06307528196508604,0.04561563351104801,0.06081104777325354
1.005932335166427,0.17322460684996496,0.028792636000866477,0.06323184659303546,0.0432554203518817,0.06107780890273021
1.0059794171915575,0.17475929729964576,0.026372862859790416,0.05880087400333982,0.038908163164011356,0.05685110667193173
1.0060264992166879,0.16548577922015562,0.023751025261053854,0.05204155960234529,0.033349683209088675,0.05035765353376008
1.0060735812418182,0.1445721481217929,0.020602972185779583,0.04234591607178599,0.025911905569330852,0.041025511487742417
1.0061206632669486,0.11538472372115638,0.01788709817733496,0.03266210113426135,0.016966700044947276,0.03178611272495281
1.006167745292079,0.08342022676517998,0.014594782932969888,0.0259645785337829,0.008843893646800915,0.0254953285044779
1.0062148273172093,0.053714935068683495,0.01303173994542886,0.01794830890199036,0.00305701568239947,0.017774717904681287
1.0062619093423397,0.029620632829972474,0.011277453486292987,0.006428025048282717,-0.0005345327419597737,0.006446627482987207
1.00630899136747,0.012907514843990737,0.010582006557821067,-0.004503164505502606,-0.000442739142906979,-0.0044756574253368335
1.0063560733926005,0.004292560353454192,0.010930609691684027,-0.010519166817943732,0.0025507390530834606,-0.010632768462262358
1.0064031554177308,0.0038095921685766332,0.014081104226526074,-0.007972360122875525,0.00717008292126788,-0.008318421276368868
1.0064502374428612,0.010924293923755681,0.0221616355668653,0.0013341291502741227,0.017592812963558385,0.0004598029516753415
1.0064973194679916,0.02453035587728399,0.029514320580116684,0.011333716656649779,0.029299809562015718,0.00987072183692387
1.006544401493122,0.042966387475684646,0.035592751980659317,0.020787738978896356,0.04075185844331356,0.018757270003475702
1.0065914835182523,0.06411092062196938,0.039363711036468886,0.03329944681240632,0.04809800017582703,0.030911838236103936
1.0066385655433827,0.08556714248621351,0.0434841035658531,0.049462130528264495,0.05133946235515045,0.04692508991364924
1.006685647568513,0.10493697207975199,0.04740016829595344,0.06485229624100503,0.051423666838762226,0.06231927386790964
1.0067327295936435,0.12014720761669652,0.04966671531028811,0.07640706666955516,0.04945368777925503,0.07397094777021601
1.0067798116187738,0.12974860817624662,0.049736613375000516,0.08294186479002422,0.045673833746680624,0.08068093592156668
1.0068268936439042,0.1331160769266914,0.05029020269313871,0.08436945777741765,0.04005662023512576,0.08236545666300585
1.0068739756690346,0.13051634907150206,0.04722934120750212,0.08386978816652868,0.03354124526420246,0.08216637333460108
1.006921057694165,0.12301693370584733,0.040752460728819974,0.08185258015702256,0.027765083055098196,0.08041944367820349
1.0069681397192953,0.11219272060745543,0.03275536609823864,0.07585112215539112,0.02158997252733631,0.07471361291015487
1.0070152217444257,0.09964098937742749,0.025709673369061596,0.06985230351433948,0.01551416415699006,0.0690108959041891
1.007062303769556,0.08648287672211809,0.019910684159356574,0.06302251331950957,0.010315683309051001,0.0624397994520917
1.0071093857946865,0.07315337862299943,0.016578273178378216,0.053521194673379444,0.005948969268250297,0.05316255899955653
1.0071564678198168,0.05967551136841471,0.014419536626881155,0.042771215350936226,0.0022262779843576636,0.04260861284769823
1.0072035498449472,0.046352747241279996,0.010747528942227724,0.029687677967592516,-0.0009163698984053221,0.029696568960751492
1.0072506318700776,0.03458526276589038,0.00880133386561167,0.01916866027493343,-0.0019161488857637051,0.01924010754754916
1.007297713895208,0.02727830692374265,0.008326504269800644,0.01473006896934623,-0.001985605590326083,0.014810436466651828
1.0073447959203383,0.0280866607277734,0.011002212446897,0.01711698325886342,-0.0002669952549117208,0.01710915391303506
1.0073918779454687,0.03925806445151868,0.018674252851747,0.028584290137595406,0.0049893378949845595,0.028302261505219077
1.007438959970599,0.059562255279517966,0.028213006917734054,0.043832242766228824,0.011808434989791497,0.04319724354047597
1.0074860419957294,0.08449757331606145,0.036716745942897276,0.058037587268334905,0.018884515642774772,0.05704431422186206
1.0075331240208598,0.10858230355013457,0.0428045256182107,0.06858033205585247,0.026281898700545436,0.06722458744254496
1.0075802060459902,0.12742598805780986,0.047299662946617665,0.07621925524513734,0.031117592678327487,0.07463132400962556
1.0076272880711206,0.13840784538629322,0.04831830385075972,0.07904744927672683,0.03380637595997253,0.07733290745822742
1.007674370096251,0.14057521646913557,0.046483641230743285,0.0769603579802706,0.035636751305941704,0.07516103167374823
1.0077214521213813,0.1345761316442056,0.043530911050075956,0.07084930100861353,0.0350455338122757,0.06907890037308766
1.0077685341465117,0.12269802495893224,0.03846675229755161,0.062425783036096825,0.03212950032940173,0.06079564124124234
