freq,gls,usurper,pdc_unbiased,shape_periodogram,shift_periodogram
1.0,0.02176245538732735,0.02291574150690717,-0.007335655112181927,0.00045138616121222675,-0.007349088772652157
1.0000470820251304,0.05134779247241603,0.04176610484835486,0.016081221596065367,0.014339595860699593,0.015338572930403194
1.0000941640502607,0.09689124580742478,0.06039821492396985,0.05094334186944231,0.03407731019491035,0.04919297272339691
1.0001412460753911,0.14848755125694818,0.08024862131261427,0.08456655871201842,0.05199601340510569,0.08197158694711298
1.0001883281005215,0.19664060203551523,0.09576656304116052,0.10917973127593883,0.06688081546691485,0.10595824302220316
1.0002354101256519,0.23592916525893703,0.10523066277879137,0.12678225514793529,0.07740721861146765,0.12316977251007181
1.0002824921507822,0.26363730657080775,0.11081854503225326,0.13936052532630389,0.08293947717187786,0.13557489572437773
1.0003295741759126,0.2780607972143743,0.11301199154377546,0.14663287491158739,0.08615392058245643,0.14275534040044807
1.000376656201043,0.27778293516045677,0.11246690468861316,0.14742341655727248,0.08777661692713261,0.14348946269558563
1.0004237382261734,0.2619162710265795,0.1081753166593895,0.139633635428265,0.08681994693049037,0.13570203391999203
1.0004708202513037,0.23107843684954268,0.09860875364405478,0.12167319492364326,0.08300488008988545,0.11781986992363577
1.0005179022764341,0.1884924826566669,0.08600045714188459,0.09811663264576473,0.07728703036109423,0.09442440159993284
1.0005649843015645,0.1401213853463462,0.07603887923535066,0.07552593926328457,0.07205769188913075,0.07200782650189003
1.0006120663266949,0.09311329616242185,0.06968288942319535,0.056936636782797936,0.06687453470863924,0.053622955073308734
1.0006591483518252,0.05338098213176131,0.06860412349128697,0.04656239048066332,0.06112029775060986,0.04350779098073498
1.0007062303769556,0.024158292773911582,0.06808708910423321,0.0379052596807291,0.054299731200506456,0.035172761184893576
1.000753312402086,0.006389706849983347,0.06326066391663145,0.024925530867037873,0.04551426024352872,0.02262117691844933
1.0008003944272164,4.4957735270936574e-05,0.06098781701021813,0.013623927240606612,0.036713988787969595,0.01176128616267909
1.0008474764523467,0.004476680458159687,0.05796234588448849,0.005279248516488982,0.033722386754423454,0.003571995438347749
1.000894558477477,0.016631009383087918,0.05891891612327289,0.00604487589630294,0.0359113397611924,0.00422684543316349
1.0009416405026075,0.030279800796216314,0.06899623585704179,0.01614856324889533,0.043028135653337435,0.013969208298832778
1.0009887225277379,0.04019506929021177,0.08462089370575897,0.031662352407458065,0.054957877984428874,0.028894694925608533
1.0010358045528682,0.045271217739530065,0.10162397069185124,0.049643587368788454,0.06843742486483952,0.046245171153336984
1.0010828865779986,0.04665854735345898,0.10905259481283253,0.06394396252727896,0.0812556787586888,0.059981379867943316
1.001129968603129,0.04557434040645729,0.11022721124808481,0.06951556918541625,0.09083469267009703,0.06514035690161162
1.0011770506282593,0.04281463251624272,0.1038104040399579,0.06676401531502141,0.0955306656413973,0.06216913705039434
1.0012241326533897,0.03911406922799136,0.09371912824530035,0.05756222886158259,0.09657121578444616,0.05288194627470672
1.00127121467852,0.035734840091298535,0.08198782281185003,0.04469056838221148,0.09432162372737805,0.04006258819197201
1.0013182967036505,0.034632288517627896,0.07328993729702075,0.03354469161607427,0.09271114087144251,0.028952508588274556
1.0013653787287808,0.03686446430802818,0.07630953070882115,0.03235087082016887,0.0939720942897168,0.0276939663253922
1.0014124607539112,0.040499198873267514,0.08716018358380657,0.04235422606047071,0.09773570035647788,0.03755706276187284
1.0014595427790416,0.04245011553894062,0.09799521511768307,0.05148956578485458,0.10088685000619506,0.04658585555641801
1.001506624804172,0.04142424671447975,0.10538417842084617,0.057489670337512934,0.1003932695791052,0.05263596119956026
1.0015537068293023,0.03772147907862947,0.10593854323624474,0.05838903434484734,0.09570344139619905,0.053751539925893294
1.0016007888544327,0.032149333674356434,0.10111941749074958,0.05286952532393206,0.08536422260595992,0.048686232312408775
1.001647870879563,0.025799799790141527,0.09010768955863553,0.040386054375886556,0.07081529213519677,0.036859638898649585
1.0016949529046935,0.020580986012262138,0.07510020880014716,0.02276083148008517,0.05360192795933427,0.02005620100781539
1.0017420349298238,0.01993155776046648,0.06182071800323844,0.008396000375120035,0.039860351593639196,0.006378026378839092
1.0017891169549542,0.027489951613850306,0.05721588313314318,0.00883020356959996,0.03614325349329572,0.006998858212220743
1.0018361989800846,0.042074300128446054,0.058359195885766296,0.022145335055818467,0.04093376273032474,0.020068601904799737
1.001883281005215,0.05845891480384451,0.06503305604432096,0.04104344236602053,0.051059181184051824,0.03846946885687972
1.0019303630303453,0.07582159493280267,0.07486433197625868,0.05832937685591873,0.061084992305564745,0.055288939396802766
1.0019774450554757,0.09824195100672209,0.08402379204431501,0.07041397317164165,0.06810197185072935,0.06706549160096395
1.002024527080606,0.1303669711588208,0.08419115531583657,0.07896421651578898,0.0717105063392204,0.0754689676553177
1.0020716091057364,0.17464242099810953,0.07901311756461263,0.08832693698111686,0.07316358722547035,0.0847881138345388
1.0021186911308668,0.22917237164395338,0.08514378531657571,0.11355266104308831,0.07601134521779931,0.1099576507496268
1.0021657731559972,0.2864808872447173,0.09907290535076416,0.14880372324738836,0.08092510664586616,0.14512943394000227
1.0022128551811276,0.335488571803669,0.11248208208728984,0.17945522269565434,0.0854426513747751,0.17574428802164554
1.002259937206258,0.3667004160945303,0.12175059580105231,0.20044309409803335,0.08755643575121073,0.19676135001499936
1.0023070192313883,0.37630521047742305,0.12559714526179744,0.20989430295355302,0.08632171542878123,0.20629624327395985
1.0023541012565187,0.3658732131217113,0.12389138138049048,0.20800353236518512,0.08178867812702446,0.20453661792614006
1.002401183281649,0.3393357840705059,0.11641843783281786,0.19716291122807472,0.07421959649880602,0.19390074773986068
1.0024482653067794,0.30043566038503033,0.10490870110801935,0.1783931936762516,0.0637428868385207,0.17544989945365577
1.0024953473319098,0.25183659939415354,0.09101138678066181,0.15384153094853617,0.0507264718666677,0.15136798358199685
1.0025424293570402,0.1956066522565673,0.07322724753476928,0.12081929242955049,0.0371435260102213,0.11891320871231588
1.0025895113821706,0.13475970805500284,0.04860211273257096,0.07564140824241966,0.021803239847167324,0.07447154943383345
1.002636593407301,0.07582916802294695,0.023860701133065845,0.025728531183742454,0.009171129621688758,0.025234211092000233
1.0026836754324313,0.03145358980808763,0.015968199153829108,-0.0040036080406334615,0.004113317238333068,-0.0042062087674582666
1.0027307574575617,0.01779891286180085,0.025484014073566683,-0.006351274616742859,0.012515967016922733,-0.00697559498423606
1.002777839482692,0.04358985242398123,0.03518394094167811,0.006591376950054447,0.029945861572656333,0.005073393327394057
1.0028249215078224,0.1037077589167159,0.051495255875042,0.04281328660270074,0.048718870555760005,0.04035323072558847
1.0028720035329528,0.18101238562213362,0.07623135737852688,0.0979436666785688,0.06905476857006054,0.09460547025642925
1.0029190855580832,0.25636899888384335,0.1054561345669358,0.15380629462607742,0.08397367296863391,0.150038373438864
1.0029661675832136,0.31832235074100634,0.13253036704119123,0.19704252226634572,0.08889440697014235,0.19330237125183145
1.003013249608344,0.36361141655314383,0.14665756393248316,0.228525784613192,0.09223444509071216,0.22485553179714654
1.0030603316334743,0.39341420767750745,0.15582797965265113,0.24979870354304085,0.09475693861363478,0.24618902356323527
1.0031074136586047,0.4102870696014962,0.15958773232175216,0.26258314989231946,0.09489608701756354,0.2590491556774306
1.003154495683735,0.41662904201390033,0.15949076899352518,0.266777273312063,0.09337645367291003,0.2633033183949977
1.0032015777088654,0.41405085665469693,0.1560024798355104,0.26326150551395927,0.0898633281829149,0.25984793664005207
1.0032486597339958,0.4030953535584088,0.14908135315544396,0.251751202986526,0.08425515666976158,0.24841661268028814
1.0032957417591262,0.38301151602067063,0.13859674612505993,0.2324239377319079,0.07657812013850815,0.229218671411993
1.0033428237842565,0.3514583105172215,0.12394678512898744,0.2047530276495091,0.06650453986629126,0.20177892757356986
1.003389905809387,0.3042863356687068,0.10488747324447022,0.16911475512504195,0.05433332980442618,0.16651592669788598
1.0034369878345173,0.2364892670841809,0.08199017060174481,0.12615890065588273,0.04026475980085687,0.12411420759163276
1.0034840698596477,0.14805992805189566,0.056550928837775204,0.07745804013496241,0.02597255572233372,0.07608559735333963
1.003531151884778,0.05937981673678241,0.03681210929165862,0.035632586371168055,0.01594269753983073,0.03478818205877354
1.0035782339099084,0.016571701488668728,0.030131227629778316,0.012038086514572617,0.014237981709292,0.011305169807101063
1.0036253159350388,0.04141534161646615,0.04056509279567828,0.014399178728297872,0.023693093319232972,0.013188625431545097
1.0036723979601692,0.0978579156313711,0.05931194937389395,0.03595348541122598,0.039223968818113894,0.033957043702238704
1.0037194799852995,0.14599333246590304,0.0812858025148597,0.06503465797160808,0.059157060802017686,0.0620916521372157
1.00376656201043,0.17300879075255565,0.10152617359107759,0.0922030709843016,0.07798740587299863,0.08846421998773912
1.0038136440355603,0.18229222765708752,0.11696097987903609,0.11374971918924169,0.09218017231227969,0.10949936948373815
1.0038607260606907,0.18262972424027749,0.1285388760438181,0.12736778710133306,0.1046898361857198,0.12270922205538583
1.003907808085821,0.18292620727983336,0.13510141893539293,0.13485525602086357,0.11434746503009843,0.12990089926855575
1.0039548901109514,0.18798821740501145,0.13916568557506104,0.13913083302593265,0.11842529318432932,0.1340696021914629
1.0040019721360818,0.19658928748535154,0.1385481240336386,0.1397247738744464,0.11947441641960264,0.13463308774112095
1.0040490541612122,0.20361099360789395,0.13786056050933207,0.1356935801867525,0.11682079530937205,0.13066008983915078
1.0040961361863425,0.20356945018764083,0.13396036645482226,0.1287855413388881,0.11145638428224955,0.12389013157420779
1.004143218211473,0.19261735903368254,0.12171027968487365,0.11776025800915435,0.10236955972960705,0.11313278439368546
1.0041903002366033,0.1692114287165738,0.10369788187319808,0.09836742477706704,0.0903257113955167,0.09412702527518088
1.0042373822617336,0.13469585530973552,0.08269168429390043,0.07519967777083232,0.0761404469335253,0.07149742732405401
1.004284464286864,0.094068350002802,0.06332933257858071,0.051842634052145065,0.06016829152471353,0.048838650315133306
1.0043315463119944,0.0558705414627791,0.047087496709298154,0.03082107495389939,0.04418431401071263,0.02858182786114224
1.0043786283371248,0.029785725493520713,0.037218268761351585,0.019809015244991575,0.03129524050012039,0.018213476345294962
1.0044257103622551,0.022326134922130727,0.033475709596958815,0.01684685304795892,0.022572862486854313,0.015690145445380603
1.0044727923873855,0.03362727707623793,0.034703209022664196,0.01768087969631584,0.019576956337807948,0.016673551702552424
1.004519874412516,0.057935866130881315,0.04031951447744845,0.0238553638180855,0.021860425839642074,0.02272757540628321
1.0045669564376463,0.08691312585069338,0.05049200148438921,0.038233159934289905,0.02959469954418425,0.03670946778728872
1.0046140384627766,0.11302745450084833,0.06321356283389239,0.05542672474865837,0.04190540044972855,0.05329653552032476
1.004661120487907,0.13143773576861661,0.07362593270621699,0.07126698378066398,0.05455762214738111,0.06854372718013413
1.0047082025130374,0.140315951549541,0.08151098962830892,0.0817840112464661,0.06560429076465164,0.07856812129967157
1.0047552845381678,0.14016084842095028,0.08444794361887717,0.0846685751900148,0.07360446822231595,0.08110179608442843
1.0048023665632981,0.13271042804166153,0.08272403714492221,0.08028160564993014,0.07652798125465428,0.07657477462695263
1.0048494485884285,0.1199532079956697,0.07769234918809097,0.06958311394397716,0.07770137258892398,0.06579664320317462
1.0048965306135589,0.10352759540252561,0.06836435066597858,0.05738407400153901,0.07496748707939327,0.053694209752616205
1.0049436126386893,0.08458770500586026,0.056382656164711435,0.04469505929439128,0.06927025471154734,0.041249368116908276
1.0049906946638196,0.06411017510052013,0.04480900564866903,0.03435472552873721,0.06259703401078391,0.031216756105612756
1.00503777668895,0.043500849939608656,0.035298973754334134,0.022887706523455283,0.05440226122441195,0.02014355020065138
1.0050848587140804,0.02497562650004661,0.026594805862221394,0.013888116903115118,0.045071796434520674,0.011607136509282483
1.0051319407392107,0.011013597455985432,0.022027390369384902,0.011624969459267675,0.03644257260709973,0.009777013983525191
1.0051790227643411,0.003334338693202587,0.01737678930462401,0.009001101837417943,0.02834430875651327,0.007561738568946739
1.0052261047894715,0.0027948227754708652,0.012929785957881818,0.005716764128480125,0.021414175233282737,0.004629402675084068
1.0052731868146019,0.010164673003053454,0.009818553319033193,0.005314070387151807,0.013506240548251143,0.004625826662307601
1.0053202688397322,0.026566180290056158,0.009112618045087601,0.008193549268036414,0.007960920653149135,0.007781447911063578
1.0053673508648626,0.05291846997433676,0.00991924059785075,0.011498759854167706,0.005895781413937731,0.011186677518909656
1.005414432889993,0.08828034555015178,0.013879652230740936,0.017065936640710815,0.005581910151721353,0.016762735531048716
1.0054615149151234,0.12763762777320273,0.018981127915361034,0.025647230237824777,0.006656812426799994,0.025279333721667956
1.0055085969402537,0.16155770115500132,0.025572310987605866,0.038076850744054896,0.012103360094217095,0.03742131609121845
1.0055556789653841,0.18078890709766565,0.03200162771016632,0.05135766337998839,0.020972893060022743,0.05024855510139226
1.0056027609905145,0.18307418566708303,0.03623862955956137,0.06056084021799014,0.031213733386862622,0.058944982292290324
1.0056498430156449,0.1741533504439713,0.038358373298043175,0.06655908741414072,0.0376595402691262,0.06463108188635733
1.0056969250407752,0.16242605985016223,0.03977467757452287,0.07063087442771013,0.04225620348929812,0.06848409323915823
1.0057440070659056,0.15418810481596457,0.04069674317605264,0.07107575192890922,0.04422019741280068,0.06883628710577726
1.005791089091036,0.1523552110015489,0.04036878142841925,0.0660360559428213,0.0437930335921711,0.06381605562728829
1.0058381711161664,0.15691036178882456,0.039586109620520664,0.06130313889977103,0.04259952240828763,0.05913961275717536
1.0058852531412967,0.16538784679386007,0.041943450889372624,0.06307528196508604,0.04186492444280018,0.060946838126505705
1.005932335166427,0.17322460684996496,0.04094000595186171,0.06323184659303546,0.04008793296635459,0.06118824993220591
1.0059794171915575,0.17475929729964576,0.03737380400865061,0.05880087400333982,0.036553824961565055,0.05692774818636884
1.0060264992166879,0.16548577922015562,0.03312017520115843,0.05204155960234529,0.031298028160548774,0.05042601550365534
1.0060735812418182,0.1445721481217929,0.027626932882816632,0.04234591607178599,0.02449942529965411,0.041070587838312085
1.0061206632669486,0.11538472372115638,0.02357214550406191,0.03266210113426135,0.016898237627067342,0.03177317600214907
1.006167745292079,0.08342022676517998,0.01861809212272922,0.0259645785337829,0.010079071559253213,0.02542440003471374
1.0062148273172093,0.053714935068683495,0.015225708656113278,0.01794830890199036,0.00517942489424021,0.017664283675753144
1.0062619093423397,0.029620632829972474,0.011964878150895577,0.006428025048282717,0.0022012902015649265,0.00630870882866037
1.00630899136747,0.012907514843990737,0.00960470646287366,-0.004503164505502606,0.0030559971902228687,-0.0046517318786390574
1.0063560733926005,0.004292560353454192,0.009400667868873334,-0.010519166817943732,0.006807143940924853,-0.01084962945053566
1.0064031554177308,0.0038095921685766332,0.012435338893797228,-0.007972360122875525,0.013717560611102318,-0.008655518615605795
1.0064502374428612,0.010924293923755681,0.020627637381990794,0.0013341291502741227,0.02587813118915269,2.5882051879548272e-05
1.0064973194679916,0.02453035587728399,0.02992598198744276,0.011333716656649779,0.03871247082126899,0.009372057401088495
1.006544401493122,0.042966387475684646,0.03867671634070113,0.020787738978896356,0.05130946387609329,0.018196120297410825
1.0065914835182523,0.06411092062196938,0.046974841840780955,0.03329944681240632,0.05979540299529482,0.030296756292814416
1.0066385655433827,0.08556714248621351,0.055054954788506735,0.049462130528264495,0.06406757165020721,0.046270443033493106
1.006685647568513,0.10493697207975199,0.06200843031924251,0.06485229624100503,0.06501890475341786,0.06163674901374059
1.0067327295936435,0.12014720761669652,0.06590622458142632,0.07640706666955516,0.06271988256863764,0.07331360544980628
1.0067798116187738,0.12974860817624662,0.06770644125600173,0.08294186479002422,0.05740372914513918,0.08009856049765156
1.0068268936439042,0.1331160769266914,0.06787647648711245,0.08436945777741765,0.050257860082535646,0.08185409279825787
1.0068739756690346,0.13051634907150206,0.06443231314469967,0.08386978816652868,0.04208660837591191,0.0817323761354986
1.006921057694165,0.12301693370584733,0.056881448426223315,0.08185258015702256,0.03487484053747575,0.08005373190231836
1.0069681397192953,0.11219272060745543,0.04730966074822724,0.07585112215539112,0.02791703333841013,0.07438616828655953
1.0070152217444257,0.09964098937742749,0.03837194334963666,0.06985230351433948,0.020970474475579846,0.06872752253956965
1.007062303769556,0.08648287672211809,0.03037666371241327,0.06302251331950957,0.014636019184341362,0.062214474129740446
1.0071093857946865,0.07315337862299943,0.024214452317006124,0.053521194673379444,0.0091268362918893,0.052996485275816206
1.0071564678198168,0.05967551136841471,0.020152187802857928,0.042771215350936226,0.005381321986744116,0.04244642142688512
1.0072035498449472,0.046352747241279996,0.014615739562287063,0.029687677967592516,0.002470506268063618,0.02952536935552609
1.0072506318700776,0.03458526276589038,0.010846527589152137,0.01916866027493343,0.0017049911098866095,0.019058213933131184
1.007297713895208,0.02727830692374265,0.00889898434015147,0.01473006896934623,0.0017654302617575925,0.014622203829090867
1.0073447959203383,0.0280866607277734,0.010989091360983222,0.01711698325886342,0.0035648831656716873,0.016915358015510727
1.0073918779454687,0.03925806445151868,0.019019136101672475,0.028584290137595406,0.008305916246333603,0.028129983261699458
1.007438959970599,0.059562255279517966,0.02982855819853438,0.043832242766228824,0.014039473011390196,0.04307385292749403
1.0074860419957294,0.08449757331606145,0.04012322656991531,0.058037587268334905,0.01961709918825511,0.056989207213477625
1.0075331240208598,0.10858230355013457,0.04796622071899195,0.06858033205585247,0.025766073032769447,0.06722356937299244
1.0075802060459902,0.12742598805780986,0.05306567685449352,0.07621925524513734,0.03010390234616186,0.07464927881894154
1.0076272880711206,0.13840784538629322,0.05473732741049841,0.07904744927672683,0.032395409408736836,0.07736697951409958
1.007674370096251,0.14057521646913557,0.052793981952984785,0.0769603579802706,0.03463599542448141,0.07517403413901484
1.0077214521213813,0.1345761316442056,0.048592369218575265,0.07084930100861353,0.03434560855691208,0.06907858104122265
1.0077685341465117,0.12269802495893224,0.041750794609011696,0.062425783036096825,0.030981896839234253,0.06082021373027634
