freq,gls,usurper,pdc_unbiased,shape_periodogram,shift_periodogram
1.0,0.02176245538732735,0.014693799617400402,-0.007335655112181927,0.007379115790108784,-0.007497842750961288
1.0000470820251304,0.05134779247241603,0.0192304036815218,0.016081221596065367,0.007515675950575459,0.01591093728305806
1.0000941640502607,0.09689124580742478,0.02599877955904797,0.05094334186944231,0.011882821294376709,0.05067163045346515
1.0001412460753911,0.14848755125694818,0.032131069606196036,0.08456655871201842,0.021006352262431492,0.08410295230013377
1.0001883281005215,0.19664060203551523,0.038767700370772054,0.10917973127593883,0.0341325937720814,0.10847133040037742
1.0002354101256519,0.23592916525893703,0.045352556865848034,0.12678225514793529,0.04525609290553838,0.12589778174979166
1.0002824921507822,0.26363730657080775,0.049714077600545116,0.13936052532630389,0.05195384642353174,0.13839003602674557
1.0003295741759126,0.2780607972143743,0.05261598569439359,0.14663287491158739,0.05539068492501832,0.1456258809930671
1.000376656201043,0.27778293516045677,0.053387836015601896,0.14742341655727248,0.057742113352199476,0.14638630815317166
1.0004237382261734,0.2619162710265795,0.05130896070797027,0.139633635428265,0.05818812993251649,0.13857575447501203
1.0004708202513037,0.23107843684954268,0.04678122354030807,0.12167319492364326,0.056019411735578256,0.1206139949880907
1.0005179022764341,0.1884924826566669,0.040755197623593885,0.09811663264576473,0.052506746586459194,0.09707636010896693
1.0005649843015645,0.1401213853463462,0.03626048618083268,0.07552593926328457,0.04866215394864496,0.0745241073004676
1.0006120663266949,0.09311329616242185,0.03347399812188693,0.056936636782797936,0.04390325551201816,0.05600655619090157
1.0006591483518252,0.05338098213176131,0.033101229177539104,0.04656239048066332,0.037459647082618994,0.045754096993490256
1.0007062303769556,0.024158292773911582,0.03247484467016184,0.0379052596807291,0.029294086296072882,0.03726299712923929
1.000753312402086,0.006389706849983347,0.032491556637061755,0.024925530867037873,0.0199205934586177,0.024482447251092467
1.0008003944272164,4.4957735270936574e-05,0.03304645301689097,0.013623927240606612,0.012194448480572839,0.013350939888622739
1.0008474764523467,0.004476680458159687,0.03195478900954877,0.005279248516488982,0.009856040304841536,0.005059413878610118
1.000894558477477,0.016631009383087918,0.036145055340043995,0.00604487589630294,0.012632778269909514,0.005763433523798323
1.0009416405026075,0.030279800796216314,0.04395148005877117,0.01614856324889533,0.019773148388714804,0.015708890271859205
1.0009887225277379,0.04019506929021177,0.05347412400579301,0.031662352407458065,0.03198449501335285,0.03096142257207242
1.0010358045528682,0.045271217739530065,0.0600994042484278,0.049643587368788454,0.04718614123901987,0.04864176847062455
1.0010828865779986,0.04665854735345898,0.06591489502515764,0.06394396252727896,0.06172985095846254,0.06268525980291219
1.001129968603129,0.04557434040645729,0.07008232099989281,0.06951556918541625,0.07306359901145242,0.06806918452499847
1.0011770506282593,0.04281463251624272,0.07094372367160824,0.06676401531502141,0.07870630872245339,0.06521329100041726
1.0012241326533897,0.03911406922799136,0.06732563528010818,0.05756222886158259,0.07893489423810644,0.055978420742027454
1.00127121467852,0.035734840091298535,0.0607710290591757,0.04469056838221148,0.0761351811848792,0.04311929076304776
1.0013182967036505,0.034632288517627896,0.054821589910262196,0.03354469161607427,0.0731742720292203,0.03200039285489593
1.0013653787287808,0.03686446430802818,0.05109271992671951,0.03235087082016887,0.07113862469124517,0.03084417396562173
1.0014124607539112,0.040499198873267514,0.05113256409130926,0.04235422606047071,0.07122787299660199,0.04087039298257241
1.0014595427790416,0.04245011553894062,0.05352078850804791,0.05148956578485458,0.07306893865516981,0.049994449092534664
1.001506624804172,0.04142424671447975,0.054472355751150676,0.057489670337512934,0.07088561909692775,0.05605013989246499
1.0015537068293023,0.03772147907862947,0.054839181205810265,0.05838903434484734,0.06387498233253937,0.0570800252090638
1.0016007888544327,0.032149333674356434,0.05204816577789168,0.05286952532393206,0.053134001211723896,0.051754788662840126
1.001647870879563,0.025799799790141527,0.04607166468525703,0.040386054375886556,0.03854343069309388,0.03955190808169096
1.0016949529046935,0.020580986012262138,0.03700317104580285,0.02276083148008517,0.02342379738433974,0.022241749240370562
1.0017420349298238,0.01993155776046648,0.03250594936309958,0.008396000375120035,0.012534679245900422,0.008116347873428503
1.0017891169549542,0.027489951613850306,0.03168901498170991,0.00883020356959996,0.010691388126515076,0.008591214162217328
1.0018361989800846,0.042074300128446054,0.032200520642192254,0.022145335055818467,0.015117010262556407,0.02180704105627675
1.001883281005215,0.05845891480384451,0.03804967387610624,0.04104344236602053,0.0247272086707663,0.04049817120815563
1.0019303630303453,0.07582159493280267,0.04375825046244163,0.05832937685591873,0.03642976961314466,0.0575485084370312
1.0019774450554757,0.09824195100672209,0.046335086526852746,0.07041397317164165,0.049988350922221446,0.06938148116122476
1.002024527080606,0.1303669711588208,0.0430638646550871,0.07896421651578898,0.05914570897638733,0.07777933620970576
1.0020716091057364,0.17464242099810953,0.03857290220853892,0.08832693698111686,0.06530177075268842,0.08705681048464209
1.0021186911308668,0.22917237164395338,0.039310323403211854,0.11355266104308831,0.07018286063803919,0.11227007868631818
1.0021657731559972,0.2864808872447173,0.04368138751517147,0.14880372324738836,0.07519572899933401,0.14756187606268226
1.0022128551811276,0.335488571803669,0.04807381920552401,0.17945522269565434,0.07984677597371763,0.17827525338266753
1.002259937206258,0.3667004160945303,0.05050757795542211,0.20044309409803335,0.0827175497640587,0.19932411997078428
1.0023070192313883,0.37630521047742305,0.05075418358433487,0.20989430295355302,0.08316734062595028,0.20881031017255186
1.0023541012565187,0.3658732131217113,0.04922791400393324,0.20800353236518512,0.08140609836848722,0.20691992301104345
1.002401183281649,0.3393357840705059,0.04781741640586952,0.19716291122807472,0.07792595395796134,0.1960587702707158
1.0024482653067794,0.30043566038503033,0.046127124224002634,0.1783931936762516,0.06969494735757671,0.17729375928348995
1.0024953473319098,0.25183659939415354,0.04205234972146066,0.15384153094853617,0.05562268771789448,0.15284411161849482
1.0025424293570402,0.1956066522565673,0.03435715517204341,0.12081929242955049,0.03781203624978855,0.12005338532875873
1.0025895113821706,0.13475970805500284,0.026934606612341327,0.07564140824241966,0.016962177684775172,0.0752603182665047
1.002636593407301,0.07582916802294695,0.022638104718783785,0.025728531183742454,0.0006714581180531913,0.025707310767696973
1.0026836754324313,0.03145358980808763,0.02032801794118303,-0.0040036080406334615,-3.4390780128986512e-06,-0.004002545168093867
1.0027307574575617,0.01779891286180085,0.022589550731921815,-0.006351274616742859,0.015587893915460858,-0.0066965273859090416
1.002777839482692,0.04358985242398123,0.024836134003102313,0.006591376950054447,0.03734374976374111,0.0057648498800412975
1.0028249215078224,0.1037077589167159,0.03617003470511419,0.04281328660270074,0.05531888085625729,0.04164169720132674
1.0028720035329528,0.18101238562213362,0.05187263356922172,0.0979436666785688,0.0651814844172898,0.09669701566302946
1.0029190855580832,0.25636899888384335,0.06574734456324427,0.15380629462607742,0.06930793005865883,0.15264302682468778
1.0029661675832136,0.31832235074100634,0.07364983518328201,0.19704252226634572,0.07055277885915363,0.19598900569112498
1.003013249608344,0.36361141655314383,0.07853254369856587,0.228525784613192,0.07067097879154102,0.22756371285591312
1.0030603316334743,0.39341420767750745,0.07995997839567333,0.24979870354304085,0.06839288228676585,0.2489086556235138
1.0031074136586047,0.4102870696014962,0.07882855279057452,0.26258314989231946,0.06568694504640146,0.2617388202557476
1.003154495683735,0.41662904201390033,0.07657329051221383,0.266777273312063,0.062107275036929706,0.265958559455368
1.0032015777088654,0.41405085665469693,0.07302343618102058,0.26326150551395927,0.05739478278772247,0.2624594874916964
1.0032486597339958,0.4030953535584088,0.06813878552039605,0.251751202986526,0.051397168692837725,0.25096926739942166
1.0032957417591262,0.38301151602067063,0.06184550250689873,0.2324239377319079,0.04419480470070045,0.23168101503954955
1.0033428237842565,0.3514583105172215,0.05387522726699566,0.2047530276495091,0.03570155938870302,0.20408597415968122
1.003389905809387,0.3042863356687068,0.04395687472992963,0.16911475512504195,0.026307444983669347,0.1685717561360979
1.0034369878345173,0.2364892670841809,0.03272640203615261,0.12615890065588273,0.016287043175054312,0.1257917520550455
1.0034840698596477,0.14805992805189566,0.021598755411308686,0.07745804013496241,0.006407811758740966,0.07729967741795742
1.003531151884778,0.05937981673678241,0.014598569784873616,0.035632586371168055,-0.0006224389598528183,0.03563761485756664
1.0035782339099084,0.016571701488668728,0.01497735780174321,0.012038086514572617,-0.002214961243386756,0.012084308084053828
1.0036253159350388,0.04141534161646615,0.024571075708283357,0.014399178728297872,0.0050008032242281585,0.014284834300220792
1.0036723979601692,0.0978579156313711,0.04027306077241495,0.03595348541122598,0.019946581407772487,0.03550975846076327
1.0037194799852995,0.14599333246590304,0.05966773310921528,0.06503465797160808,0.03502539936668881,0.0642853405287848
1.00376656201043,0.17300879075255565,0.07373378810147606,0.0922030709843016,0.04835112304251598,0.0912265337744675
1.0038136440355603,0.18229222765708752,0.08348419465951268,0.11374971918924169,0.05661081873323923,0.11266781510880708
1.0038607260606907,0.18262972424027749,0.08796401983728977,0.12736778710133306,0.061793498270508715,0.12623548292808667
1.003907808085821,0.18292620727983336,0.0904626494513824,0.13485525602086357,0.06670920116506084,0.13367401938032783
1.0039548901109514,0.18798821740501145,0.09243603076479037,0.13913083302593265,0.07094474030127673,0.13790825118579567
1.0040019721360818,0.19658928748535154,0.09131508469060104,0.1397247738744464,0.0730509532118171,0.13847902627612826
1.0040490541612122,0.20361099360789395,0.0860923657958996,0.1356935801867525,0.07371058852246147,0.13442804660364469
1.0040961361863425,0.20356945018764083,0.07764544226573208,0.1287855413388881,0.07143269566222539,0.12752794208148982
1.004143218211473,0.19261735903368254,0.06856901138189962,0.11776025800915435,0.06891599615406406,0.11650636483256863
1.0041903002366033,0.1692114287165738,0.05737537563911922,0.09836742477706704,0.06256523032726326,0.09716295617052191
1.0042373822617336,0.13469585530973552,0.04496646227374257,0.07519967777083232,0.052035723645770214,0.07413566038074695
1.004284464286864,0.094068350002802,0.032150364043249516,0.051842634052145065,0.04001084307030848,0.05098595407050785
1.0043315463119944,0.0558705414627791,0.02078680468977181,0.03082107495389939,0.026389968574348034,0.030239012679666222
1.0043786283371248,0.029785725493520713,0.013738616746261754,0.019809015244991575,0.013379631831602765,0.01950904726796327
1.0044257103622551,0.022326134922130727,0.010819846909230806,0.01684685304795892,0.0034874746761443453,0.01676542127890501
1.0044727923873855,0.03362727707623793,0.011516047759091957,0.01768087969631584,-0.0012165141997132198,0.017703529313644807
1.004519874412516,0.057935866130881315,0.015301817028229725,0.0238553638180855,-0.0008229108883924189,0.023867748632088907
1.0045669564376463,0.08691312585069338,0.021578975594427414,0.038233159934289905,0.0054988969847605635,0.03810252759447268
1.0046140384627766,0.11302745450084833,0.02879711387623622,0.05542672474865837,0.01762674192537416,0.05503213561111995
1.004661120487907,0.13143773576861661,0.03611365291751455,0.07126698378066398,0.031878883786705246,0.07058287649380744
1.0047082025130374,0.140315951549541,0.042252895483898066,0.0817840112464661,0.045915370938907955,0.08083952676442059
1.0047552845381678,0.14016084842095028,0.04354677777511535,0.0846685751900148,0.05758023003568687,0.08352078858548274
1.0048023665632981,0.13271042804166153,0.04180146017460995,0.08028160564993014,0.06589918291210006,0.07898357429616039
1.0048494485884285,0.1199532079956697,0.03752134700523286,0.06958311394397716,0.07184281715294961,0.0681578644093994
1.0048965306135589,0.10352759540252561,0.034602995012734734,0.05738407400153901,0.07490738325245953,0.05587160843881134
1.0049436126386893,0.08458770500586026,0.03026048626923856,0.04469505929439128,0.07329457494897641,0.04317765935629237
1.0049906946638196,0.06411017510052013,0.02694865380453593,0.03435472552873721,0.0677902192153508,0.032919629736616794
1.00503777668895,0.043500849939608656,0.022274218581838045,0.022887706523455283,0.060742271538431036,0.021574505472225093
1.0050848587140804,0.02497562650004661,0.017523019231971283,0.013888116903115118,0.052128868265044474,0.012745151443655345
1.0051319407392107,0.011013597455985432,0.013195955251725948,0.011624969459267675,0.04188429246795571,0.010701905022499765
1.0051790227643411,0.003334338693202587,0.011262584280864055,0.009001101837417943,0.029419542348243212,0.008349504855569116
1.0052261047894715,0.0027948227754708652,0.007151579758556302,0.005716764128480125,0.01631235947181264,0.0053539762426416705
1.0052731868146019,0.010164673003053454,0.0050802153942849605,0.005314070387151807,0.006182081673564696,0.005175633215688242
1.0053202688397322,0.026566180290056158,0.0056863049736815075,0.008193549268036414,-0.0008302402717174015,0.008209961365389302
1.0053673508648626,0.05291846997433676,0.00783507847245281,0.011498759854167706,-0.0041438811241410545,0.011587995382585464
1.005414432889993,0.08828034555015178,0.009778308936376238,0.017065936640710815,-0.0036054185702765586,0.017141843351768375
1.0054615149151234,0.12763762777320273,0.012618245948455809,0.025647230237824777,0.0005864052073100959,0.02562791451340968
1.0055085969402537,0.16155770115500132,0.015509398642514034,0.038076850744054896,0.009301572648685521,0.03786308351021485
1.0055556789653841,0.18078890709766565,0.0192927837491491,0.05135766337998839,0.02012346019104886,0.050910365486768666
1.0056027609905145,0.18307418566708303,0.020873650047113453,0.06056084021799014,0.03142171299207523,0.05988171106632637
1.0056498430156449,0.1741533504439713,0.02311889274891126,0.06655908741414072,0.041578178002799705,0.0656823834601512
1.0056969250407752,0.16242605985016223,0.023544535628941876,0.07063087442771013,0.050205116362972105,0.06959461878908789
1.0057440070659056,0.15418810481596457,0.021797810941603067,0.07107575192890922,0.05514243521847775,0.06994926305543124
1.005791089091036,0.1523552110015489,0.01809702748451031,0.0660360559428213,0.05630882603932949,0.06488040677677365
1.0058381711161664,0.15691036178882456,0.016117055514529053,0.06130313889977103,0.05543201033498233,0.06015653606656835
1.0058852531412967,0.16538784679386007,0.015598465930772134,0.06307528196508604,0.05254659369980294,0.061985481006306464
1.005932335166427,0.17322460684996496,0.014439396362159657,0.06323184659303546,0.04759089777690237,0.06223635463219598
1.0059794171915575,0.17475929729964576,0.011528071664606537,0.05880087400333982,0.040378084324294045,0.05794177292146037
1.0060264992166879,0.16548577922015562,0.008246116729407497,0.05204155960234529,0.03339701139135425,0.05131892837664465
1.0060735812418182,0.1445721481217929,0.005328261923161853,0.04234591607178599,0.02574097387940757,0.04177942631502604
1.0061206632669486,0.11538472372115638,0.0024079323524491365,0.03266210113426135,0.018359239404510414,0.032252589549289494
1.006167745292079,0.08342022676517998,0.0013684601952174123,0.0259645785337829,0.01210367478721323,0.025691652061620694
1.0062148273172093,0.053714935068683495,0.0029626948060867677,0.01794830890199036,0.008594760027706653,0.017753844407672015
1.0062619093423397,0.029620632829972474,0.00568986760099767,0.006428025048282717,0.007502413340159936,0.006260085828254866
1.00630899136747,0.012907514843990737,0.008903041436901406,-0.004503164505502606,0.008158470493745693,-0.00468330998046698
1.0063560733926005,0.004292560353454192,0.013620108610209503,-0.010519166817943732,0.010460828915924645,-0.010749337374284273
1.0064031554177308,0.0038095921685766332,0.01936368615762425,-0.007972360122875525,0.012577332341205498,-0.008250217340800137
1.0064502374428612,0.010924293923755681,0.027612033100231453,0.0013341291502741227,0.01771814809439899,0.0009406343437496112
1.0064973194679916,0.02453035587728399,0.035286198122958384,0.011333716656649779,0.02466487702063529,0.010786785134601882
1.006544401493122,0.042966387475684646,0.04147099125753891,0.020787738978896356,0.031073212225872827,0.020102979049242787
1.0065914835182523,0.06411092062196938,0.0457125348230631,0.03329944681240632,0.036174385129614996,0.03251079588404273
1.0066385655433827,0.08556714248621351,0.05084812499190524,0.049462130528264495,0.040199186680042714,0.04860001871753526
1.006685647568513,0.10493697207975199,0.05310667580922729,0.06485229624100503,0.042741147856881406,0.06395168956333505
1.0067327295936435,0.12014720761669652,0.05320982104317426,0.07640706666955516,0.04340037385778002,0.07550398344161313
1.0067798116187738,0.12974860817624662,0.0495381868578391,0.08294186479002422,0.041827362393522395,0.08207386500707181
1.0068268936439042,0.1331160769266914,0.045839564054264384,0.08436945777741765,0.038004420567298094,0.08357403250204412
1.0068739756690346,0.13051634907150206,0.040604657790367434,0.08386978816652868,0.0337697079500201,0.08315455591161398
1.006921057694165,0.12301693370584733,0.03401981652800059,0.08185258015702256,0.02716210721763713,0.08126537844509275
1.0069681397192953,0.11219272060745543,0.025953684082019014,0.07585112215539112,0.019618375249247966,0.07541520396642815
1.0070152217444257,0.09964098937742749,0.017645614389644734,0.06985230351433948,0.012610756858565803,0.06956277827579783
1.007062303769556,0.08648287672211809,0.011112281580333717,0.06302251331950957,0.0074951071410321165,0.06284341133791563
1.0071093857946865,0.07315337862299943,0.0065475959058235896,0.053521194673379444,0.00408530374955124,0.053418189862769194
1.0071564678198168,0.05967551136841471,0.0020895959690188006,0.042771215350936226,0.0011343390686934223,0.04273561109097576
1.0072035498449472,0.046352747241279996,-0.0011120862977829998,0.029687677967592516,0.00032086096382850574,0.02967325726459242
1.0072506318700776,0.03458526276589038,-0.0026971941070757116,0.01916866027493343,0.0013300953578555203,0.019134445742309995
1.007297713895208,0.02727830692374265,-0.002346688495722921,0.01473006896934623,0.0023207595818240867,0.014674979116988205
1.0073447959203383,0.0280866607277734,-0.0004345853327169332,0.01711698325886342,0.004518854033030534,0.01701267275342296
1.0073918779454687,0.03925806445151868,0.004979585378817635,0.028584290137595406,0.009539269003503268,0.02836704290740108
1.007438959970599,0.059562255279517966,0.012562947534091044,0.043832242766228824,0.01579324027140104,0.043477291601470416
1.0074860419957294,0.08449757331606145,0.019314564566080553,0.058037587268334905,0.023416197763920992,0.057521851717080276
1.0075331240208598,0.10858230355013457,0.024608195026687853,0.06858033205585247,0.02967808941104606,0.06793909081837003
1.0075802060459902,0.12742598805780986,0.02804297792310376,0.07621925524513734,0.03399536017952483,0.0754958281431414
1.0076272880711206,0.13840784538629322,0.029707113776058326,0.07904744927672683,0.03658151656293508,0.07827563139969217
1.007674370096251,0.14057521646913557,0.028833577293229357,0.0769603579802706,0.03734058629004053,0.07617269171205744
1.0077214521213813,0.1345761316442056,0.025691929575600125,0.07084930100861353,0.03577796045627189,0.07008827318326338
