freq,gls,usurper,pdc_unbiased,shape_periodogram,shift_periodogram
1.0,0.02176245538732735,0.020205714567945565,-0.007335655112181927,0.006175345279104579,-0.00754460720429948
1.0000470820251304,0.05134779247241603,0.029647230297700826,0.016081221596065367,0.010338124717567137,0.01571569700063987
1.0000941640502607,0.09689124580742478,0.04126976896511594,0.05094334186944231,0.021199384624375563,0.050195215391458714
1.0001412460753911,0.14848755125694818,0.05380219845972396,0.08456655871201842,0.03649829916468802,0.08332484415931736
1.0001883281005215,0.19664060203551523,0.06640836266639348,0.10917973127593883,0.05502916529885872,0.10740971753159799
1.0002354101256519,0.23592916525893703,0.0765961126229814,0.12678225514793529,0.0697579094523149,0.12465522288286922
1.0002824921507822,0.26363730657080775,0.08208582684454056,0.13936052532630389,0.07859092432583818,0.13705887115429452
1.0003295741759126,0.2780607972143743,0.08586300821423953,0.14663287491158739,0.08398707514235844,0.144237967176009
1.000376656201043,0.27778293516045677,0.08754659534883781,0.14742341655727248,0.0870824669318384,0.14496565357523844
1.0004237382261734,0.2619162710265795,0.08504823563001127,0.139633635428265,0.08769695981970142,0.1371289818315146
1.0004708202513037,0.23107843684954268,0.0788673009279039,0.12167319492364326,0.08484498840811608,0.11915935316771051
1.0005179022764341,0.1884924826566669,0.07041566219217933,0.09811663264576473,0.07990608329581865,0.09564165713727373
1.0005649843015645,0.1401213853463462,0.06356050161490953,0.07552593926328457,0.07457153532039838,0.07313042264521902
1.0006120663266949,0.09311329616242185,0.05836598537548846,0.056936636782797936,0.06799243836031643,0.054692542183892696
1.0006591483518252,0.05338098213176131,0.055622916938898474,0.04656239048066332,0.058926478070039735,0.04458394429514764
1.0007062303769556,0.024158292773911582,0.05188415885932954,0.0379052596807291,0.04736914988554067,0.03629136912947781
1.000753312402086,0.006389706849983347,0.04771655808658867,0.024925530867037873,0.03367119515197103,0.023762709427726052
1.0008003944272164,4.4957735270936574e-05,0.04550084655717847,0.013623927240606612,0.02146679944948335,0.012877845407888755
1.0008474764523467,0.004476680458159687,0.04295545114804171,0.005279248516488982,0.01711502737468233,0.004685927447189338
1.000894558477477,0.016631009383087918,0.046171229359170715,0.00604487589630294,0.019471691144193764,0.005370079149199271
1.0009416405026075,0.030279800796216314,0.055366305321382196,0.01614856324889533,0.02782016134144433,0.015184699938641558
1.0009887225277379,0.04019506929021177,0.06800032929923544,0.031662352407458065,0.042836585837778406,0.030194407168561914
1.0010358045528682,0.045271217739530065,0.07882529180489531,0.049643587368788454,0.06118928739939147,0.047598013655534406
1.0010828865779986,0.04665854735345898,0.08592712200217485,0.06394396252727896,0.07876704868897423,0.06139260736761166
1.001129968603129,0.04557434040645729,0.09042385897385188,0.06951556918541625,0.09190981746804933,0.06660380779813906
1.0011770506282593,0.04281463251624272,0.08968020463796256,0.06676401531502141,0.09807484604303657,0.06366560054010138
1.0012241326533897,0.03911406922799136,0.08358081343915369,0.05756222886158259,0.09842546919717124,0.05440926431428304
1.00127121467852,0.035734840091298535,0.07443500500953011,0.04469056838221148,0.09532458029318888,0.04157109378185997
1.0013182967036505,0.034632288517627896,0.06624837631509423,0.03354469161607427,0.09231950571651332,0.030472353430146232
1.0013653787287808,0.03686446430802818,0.06365559306724071,0.03235087082016887,0.09069845982713998,0.02932552914825501
1.0014124607539112,0.040499198873267514,0.0666107824135251,0.04235422606047071,0.0917965503435165,0.03933353482355355
1.0014595427790416,0.04245011553894062,0.0717065201312901,0.05148956578485458,0.09416275930795329,0.048434872832917884
1.001506624804172,0.04142424671447975,0.07411069638056078,0.057489670337512934,0.0917442244582909,0.0545322492916636
1.0015537068293023,0.03772147907862947,0.07376894675394202,0.05838903434484734,0.0839851082419204,0.05566496394617311
1.0016007888544327,0.032149333674356434,0.06965312903036998,0.05286952532393206,0.07105743244386191,0.05052207885467144
1.001647870879563,0.025799799790141527,0.0617957835274686,0.040386054375886556,0.05286009521451569,0.03859520470924352
1.0016949529046935,0.020580986012262138,0.04965705914649071,0.02276083148008517,0.03351546568720826,0.021603159933920535
1.0017420349298238,0.01993155776046648,0.04194237713848215,0.008396000375120035,0.0189247839462795,0.007739082507730306
1.0017891169549542,0.027489951613850306,0.04101837147775672,0.00883020356959996,0.016476911588586027,0.008257271172155219
1.0018361989800846,0.042074300128446054,0.04323827982133742,0.022145335055818467,0.022744659715460944,0.021352977067881796
1.001883281005215,0.05845891480384451,0.051761871812858726,0.04104344236602053,0.03595360856878824,0.03980648066043383
1.0019303630303453,0.07582159493280267,0.06212287143672471,0.05832937685591873,0.051708279284848425,0.056593822062576855
1.0019774450554757,0.09824195100672209,0.07018839476640427,0.07041397317164165,0.06873960189648722,0.0681765663315329
1.002024527080606,0.1303669711588208,0.07046077693834508,0.07896421651578898,0.08112551358062835,0.07639219617344255
1.0020716091057364,0.17464242099810953,0.06712653698129674,0.08832693698111686,0.08941759199776032,0.0855626583858647
1.0021186911308668,0.22917237164395338,0.06999759145990808,0.11355266104308831,0.09581489435984544,0.11074311289746747
1.0021657731559972,0.2864808872447173,0.07698884868339914,0.14880372324738836,0.10218076504338704,0.14605129040538078
1.0022128551811276,0.335488571803669,0.08379997323124029,0.17945522269565434,0.10776386508237647,0.17680351885238385
1.002259937206258,0.3667004160945303,0.08785612243926193,0.20044309409803335,0.1107264944438427,0.19789908677147533
1.0023070192313883,0.37630521047742305,0.08861783398983,0.20989430295355302,0.11026543357782526,0.20742309556289876
1.0023541012565187,0.3658732131217113,0.08628756520839954,0.20800353236518512,0.10659961290334481,0.20555893655630147
1.002401183281649,0.3393357840705059,0.08280482305191504,0.19716291122807472,0.09998478865071311,0.19473296947511487
1.0024482653067794,0.30043566038503033,0.07816385967291736,0.1783931936762516,0.08846624557330403,0.17604712016752333
1.0024953473319098,0.25183659939415354,0.07036923736993438,0.15384153094853617,0.07108837005543654,0.1517580485112669
1.0025424293570402,0.1956066522565673,0.05682106426192458,0.12081929242955049,0.04910893398521012,0.11923113242586861
1.0025895113821706,0.13475970805500284,0.0402097531349411,0.07564140824241966,0.023427596912456654,0.07481502421373888
1.002636593407301,0.07582916802294695,0.02665644103639259,0.025728531183742454,0.0030876352651421544,0.025606832746669732
1.0026836754324313,0.03145358980808763,0.022985352064315484,-0.0040036080406334615,-0.000600171530930542,-0.003980502158009999
1.0027307574575617,0.01779891286180085,0.030560910719932173,-0.006351274616742859,0.015241007492387465,-0.006874435813500779
1.002777839482692,0.04358985242398123,0.038481476161320805,0.006591376950054447,0.04300776161258539,0.005107441968129861
1.0028249215078224,0.1037077589167159,0.05331496088626673,0.04281328660270074,0.06768601951786496,0.04054991951496692
1.0028720035329528,0.18101238562213362,0.07305602519910594,0.0979436666785688,0.08433540621304156,0.09535138885698959
1.0029190855580832,0.25636899888384335,0.09271419361942493,0.15380629462607742,0.09321055986317496,0.15125339701795135
1.0029661675832136,0.31832235074100634,0.10671661637054823,0.19704252226634572,0.0957610641828369,0.1946719802916323
1.003013249608344,0.36361141655314383,0.11377649906720132,0.228525784613192,0.09702493255653949,0.22631561546790024
1.0030603316334743,0.39341420767750745,0.11663343317338952,0.24979870354304085,0.09601882089267605,0.24772035094442446
1.0031074136586047,0.4102870696014962,0.1161620940977337,0.26258314989231946,0.09343138095745962,0.2605986396297337
1.003154495683735,0.41662904201390033,0.11385409825865872,0.266777273312063,0.08944734433816072,0.2648491297290129
1.0032015777088654,0.41405085665469693,0.10964914806968364,0.26326150551395927,0.08388697626999939,0.26137055684742516
1.0032486597339958,0.4030953535584088,0.10356383331458972,0.251751202986526,0.0765475619323267,0.24990014702481975
1.0032957417591262,0.38301151602067063,0.0954220969930039,0.2324239377319079,0.06742439009314358,0.23064627724819367
1.0033428237842565,0.3514583105172215,0.08485886478686899,0.2047530276495091,0.056312748995211034,0.20312074624595833
1.003389905809387,0.3042863356687068,0.07146533916482166,0.16911475512504195,0.0435204294519824,0.1677321497673208
1.0034369878345173,0.2364892670841809,0.05588959211203671,0.12615890065588273,0.029360432989707717,0.1251482392511921
1.0034840698596477,0.14805992805189566,0.039586671645338016,0.07745804013496241,0.01503408236081937,0.07690637007716666
1.003531151884778,0.05937981673678241,0.028036897120349187,0.035632586371168055,0.004218418677343451,0.03546632492890336
1.0035782339099084,0.016571701488668728,0.0258406932262694,0.012038086514572617,0.0005101126833488823,0.012013305357197242
1.0036253159350388,0.04141534161646615,0.035747687946026584,0.014399178728297872,0.007961911953494846,0.01411624921224604
1.0036723979601692,0.0978579156313711,0.05334339379700374,0.03595348541122598,0.024324333173575467,0.03510426421520817
1.0037194799852995,0.14599333246590304,0.0752183298726794,0.06503465797160808,0.043334707355232996,0.06356868716337602
1.00376656201043,0.17300879075255565,0.09164326026682046,0.0922030709843016,0.061670689460352104,0.0902162198605974
1.0038136440355603,0.18229222765708752,0.10242068610664326,0.11374971918924169,0.07318222157159222,0.11149926950311938
1.0038607260606907,0.18262972424027749,0.10793448764660317,0.12736778710133306,0.0811550450794162,0.12496344643522518
1.003907808085821,0.18292620727983336,0.10989332647380486,0.13485525602086357,0.08894276051509405,0.13230233288390497
1.0039548901109514,0.18798821740501145,0.1113164555821653,0.13913083302593265,0.09405045429231094,0.13648788942733941
1.0040019721360818,0.19658928748535154,0.11020745297304187,0.1397247738744464,0.09646938852941152,0.13703451697970656
1.0040490541612122,0.20361099360789395,0.1064109844888709,0.1356935801867525,0.0963607006011208,0.13298457732365218
1.0040961361863425,0.20356945018764083,0.09895459239111629,0.1287855413388881,0.09416136038433118,0.12608905532122622
1.004143218211473,0.19261735903368254,0.08879034264765928,0.11776025800915435,0.09023883775134184,0.11510187221988831
1.0041903002366033,0.1692114287165738,0.07595135125145662,0.09836742477706704,0.0819148771177141,0.09584020352667273
1.0042373822617336,0.13469585530973552,0.061259334354962516,0.07519967777083232,0.06944739308496209,0.0729523388985555
1.004284464286864,0.094068350002802,0.04631727540252053,0.051842634052145065,0.054377725274360696,0.05001556681057921
1.0043315463119944,0.0558705414627791,0.03286882451214877,0.03082107495389939,0.03721704509776482,0.029540031150564798
1.0043786283371248,0.029785725493520713,0.024052057808766698,0.019809015244991575,0.020939827938268728,0.019078871902842957
1.0044257103622551,0.022326134922130727,0.020131441679812886,0.01684685304795892,0.008509671207811927,0.016543745001059512
1.0044727923873855,0.03362727707623793,0.020924125093687802,0.01768087969631584,0.002644377973007113,0.017579151743083356
1.004519874412516,0.057935866130881315,0.025725146686163568,0.0238553638180855,0.0031856422729525436,0.023731382804909423
1.0045669564376463,0.08691312585069338,0.03413298764086822,0.038233159934289905,0.010927754981535061,0.037836202971069245
1.0046140384627766,0.11302745450084833,0.04487537138874925,0.05542672474865837,0.02565105909568586,0.054530100252793305
1.004661120487907,0.13143773576861661,0.055322667402586324,0.07126698378066398,0.042779081615418345,0.06982240395478455
1.0047082025130374,0.140315951549541,0.06452586724019344,0.0817840112464661,0.06009499792614812,0.07982444445470012
1.0047552845381678,0.14016084842095028,0.06826617448225351,0.0846685751900148,0.07445975494625182,0.08230146821907489
1.0048023665632981,0.13271042804166153,0.0678219468124107,0.08028160564993014,0.08427534194914998,0.07762607259262153
1.0048494485884285,0.1199532079956697,0.06469953821157085,0.06958311394397716,0.09155878853005175,0.06668157331035443
1.0048965306135589,0.10352759540252561,0.06145330039415569,0.05738407400153901,0.09504223409283725,0.05432920835610551
1.0049436126386893,0.08458770500586026,0.05586238661076306,0.04469505929439128,0.09398941309648806,0.04161649234189604
1.0049906946638196,0.06411017510052013,0.05123171706827419,0.03435472552873721,0.08896930832959007,0.03139200333079437
1.00503777668895,0.043500849939608656,0.04510305937415228,0.022887706523455283,0.08125468154090618,0.020137320262801725
1.0050848587140804,0.02497562650004661,0.03808201280493062,0.013888116903115118,0.07021031976505035,0.011484808883647953
1.0051319407392107,0.011013597455985432,0.03193021727417623,0.011624969459267675,0.056875096524447784,0.009670460258323877
1.0051790227643411,0.003334338693202587,0.027044391560559253,0.009001101837417943,0.04154430057358221,0.007568134586594751
1.0052261047894715,0.0027948227754708652,0.018827619003205568,0.005716764128480125,0.025588763699533678,0.004831544015925057
1.0052731868146019,0.010164673003053454,0.01186429590229564,0.005314070387151807,0.012124254815281349,0.004892698516006231
1.0053202688397322,0.026566180290056158,0.00818734721676568,0.008193549268036414,0.0011421964345203043,0.008149240977438426
1.0053673508648626,0.05291846997433676,0.008021784525321856,0.011498759854167706,-0.003855814564886442,0.011625084501564825
1.005414432889993,0.08828034555015178,0.00993570154506856,0.017065936640710815,-0.004223116566773415,0.01720165480212449
1.0054615149151234,0.12763762777320273,0.013107513169071914,0.025647230237824777,-0.0006344693932866457,0.025653839110867802
1.0055085969402537,0.16155770115500132,0.017470036536764,0.038076850744054896,0.008966880987024818,0.037746792492002634
1.0055556789653841,0.18078890709766565,0.02324019230887175,0.05135766337998839,0.02230370267459516,0.050572654609947386
1.0056027609905145,0.18307418566708303,0.027185510108920778,0.06056084021799014,0.036595631664902976,0.05930781620940353
1.0056498430156449,0.1741533504439713,0.031228503432210234,0.06655908741414072,0.049047027958317495,0.06491501987705123
1.0056969250407752,0.16242605985016223,0.0338632232736146,0.07063087442771013,0.0596776465029215,0.06866540260695765
1.0057440070659056,0.15418810481596457,0.033894312606538135,0.07107575192890922,0.06556131549911488,0.06893432556841463
1.005791089091036,0.1523552110015489,0.03175652708703163,0.0660360559428213,0.06710759675353857,0.06383794795380594
1.0058381711161664,0.15691036178882456,0.030604778120442655,0.06130313889977103,0.06649033410800079,0.05911400393998696
1.0058852531412967,0.16538784679386007,0.031124202641353394,0.06307528196508604,0.06388556138541823,0.060968999631390124
1.005932335166427,0.17322460684996496,0.02963925171559241,0.06323184659303546,0.0584679952038117,0.06129190313808551
1.0059794171915575,0.17475929729964576,0.026090270110015697,0.05880087400333982,0.05047427793955316,0.0571046651418857
1.0060264992166879,0.16548577922015562,0.02210578275906573,0.05204155960234529,0.04197982759654223,0.050611517714728174
1.0060735812418182,0.1445721481217929,0.018010852341653404,0.04234591607178599,0.032113832520510976,0.04123614636519672
1.0061206632669486,0.11538472372115638,0.014305522276126217,0.03266210113426135,0.02221357818700457,0.031884801682377215
1.006167745292079,0.08342022676517998,0.012247582096363945,0.0259645785337829,0.014180428805678701,0.025462586442405715
1.0062148273172093,0.053714935068683495,0.013196520407711425,0.01794830890199036,0.009402206213779315,0.017613941350779514
1.0062619093423397,0.029620632829972474,0.015230559205796744,0.006428025048282717,0.007469190837246115,0.006166512838275939
1.00630899136747,0.012907514843990737,0.017544682460094666,-0.004503164505502606,0.00804390774326685,-0.004778335028601296
1.0063560733926005,0.004292560353454192,0.020814576590778896,-0.010519166817943732,0.010546911534863862,-0.010877562623234182
1.0064031554177308,0.0038095921685766332,0.02540000319314108,-0.007972360122875525,0.012855038090150817,-0.008412067883526539
1.0064502374428612,0.010924293923755681,0.03383637347083552,0.0013341291502741227,0.020330040196990227,0.0006315873676395977
1.0064973194679916,0.02453035587728399,0.04142237759107833,0.011333716656649779,0.029726009350078644,0.010305428641858877
1.006544401493122,0.042966387475684646,0.04760795381308901,0.020787738978896356,0.038760236110780034,0.019452610493051962
1.0065914835182523,0.06411092062196938,0.05114928189517621,0.03329944681240632,0.045345614185103425,0.03174920300422966
1.0066385655433827,0.08556714248621351,0.05592198929755648,0.049462130528264495,0.05010135849962476,0.047768980402988076
1.006685647568513,0.10493697207975199,0.05860937643395548,0.06485229624100503,0.052376311390376164,0.0631028879192943
1.0067327295936435,0.12014720761669652,0.059035271876735546,0.07640706666955516,0.05241572083021519,0.07466968379439927
1.0067798116187738,0.12974860817624662,0.05593158382861619,0.08294186479002422,0.05018961837723214,0.08127922719514827
1.0068268936439042,0.1331160769266914,0.05323774097950781,0.08436945777741765,0.045670667168640745,0.08284510684738916
1.0068739756690346,0.13051634907150206,0.0479243379705539,0.08386978816652868,0.04068363336327054,0.08249794302048238
1.006921057694165,0.12301693370584733,0.04043095002480904,0.08185258015702256,0.0338741344858313,0.0806921965515089
1.0069681397192953,0.11219272060745543,0.03145259646355279,0.07585112215539112,0.025803276618572655,0.0749477207879959
1.0070152217444257,0.09964098937742749,0.022831871927318687,0.06985230351433948,0.01813783001743665,0.06920053198849303
1.007062303769556,0.08648287672211809,0.01629594924697793,0.06302251331950957,0.012337110584103073,0.0625664217240451
1.0071093857946865,0.07315337862299943,0.012455764633869647,0.053521194673379444,0.008158703847173711,0.05321067505730595
1.0071564678198168,0.05967551136841471,0.009426926258426168,0.042771215350936226,0.004638018541301827,0.04258653487551
1.0072035498449472,0.046352747241279996,0.007064030777175097,0.029687677967592516,0.0030928020102384966,0.029563500880009516
1.0072506318700776,0.03458526276589038,0.0065003037160357826,0.01916866027493343,0.0036085109817278623,0.019032848420808487
1.007297713895208,0.02727830692374265,0.007620817590945799,0.01473006896934623,0.004382793723429235,0.014570165941576342
1.0073447959203383,0.0280866607277734,0.011088572907785534,0.01711698325886342,0.00708583642641802,0.016862678514876776
1.0073918779454687,0.03925806445151868,0.019372710041725198,0.028584290137595406,0.013842786557303435,0.02809261775917321
1.007438959970599,0.059562255279517966,0.03000794222995531,0.043832242766228824,0.022494593922235274,0.04304262163967594
1.0074860419957294,0.08449757331606145,0.04003198378700339,0.058037587268334905,0.03251819774178492,0.05691599661206716
1.0075331240208598,0.10858230355013457,0.048072448387887705,0.06858033205585247,0.0419508745063086,0.06716015908126553
1.0075802060459902,0.12742598805780986,0.05363480321186492,0.07621925524513734,0.048560271551567856,0.07459935291633661
1.0076272880711206,0.13840784538629322,0.05629324452852794,0.07904744927672683,0.0522360269108267,0.07731862097826703
1.007674370096251,0.14057521646913557,0.054891805722369506,0.0769603579802706,0.05327469078875691,0.0751975855911133
1.0077214521213813,0.1345761316442056,0.050632263538890554,0.07084930100861353,0.05122754952724202,0.06914199512662517
1.0077685341465117,0.12269802495893224,0.04378952720996782,0.062425783036096825,0.045468917022887925,0.0608906083857321
