freq,gls,usurper,pdc_unbiased,shape_periodogram,shift_periodogram
1.0,0.02176245538732735,0.020590400871138066,-0.007335655112181927,-0.0002969536581181649,-0.00730805347854158
1.0000470820251304,0.05134779247241603,0.035533694861616096,0.016081221596065367,0.010065154774943609,0.01550167676922597
1.0000941640502607,0.09689124580742478,0.05089099310667054,0.05094334186944231,0.02723255991742943,0.04938539341569267
1.0001412460753911,0.14848755125694818,0.0669037252650117,0.08456655871201842,0.0432344332874613,0.08215121549656211
1.0001883281005215,0.19664060203551523,0.07955752231315619,0.10917973127593883,0.05732670850587724,0.10607551824444084
1.0002354101256519,0.23592916525893703,0.08688976378244366,0.12678225514793529,0.06684365176130053,0.12325680991823307
1.0002824921507822,0.26363730657080775,0.08926496668047208,0.13936052532630389,0.0712492715950318,0.13566526003301219
1.0003295741759126,0.2780607972143743,0.09026508947359749,0.14663287491158739,0.0736107206182208,0.14285387695113627
1.000376656201043,0.27778293516045677,0.09036634798199082,0.14742341655727248,0.07420025472344818,0.14362120320536853
1.0004237382261734,0.2619162710265795,0.08685602324635233,0.139633635428265,0.07316091781173294,0.13585462675586388
1.0004708202513037,0.23107843684954268,0.07908760221958205,0.12167319492364326,0.06951809963105253,0.11801371523572333
1.0005179022764341,0.1884924826566669,0.06900866665764649,0.09811663264576473,0.06420209061257107,0.09466449374287039
1.0005649843015645,0.1401213853463462,0.06138049593045382,0.07552593926328457,0.05905320131631292,0.07230136514063748
1.0006120663266949,0.09311329616242185,0.05695204248572448,0.056936636782797936,0.0536202304304553,0.05397909546330219
1.0006591483518252,0.05338098213176131,0.05738314304630409,0.04656239048066332,0.047134746302923164,0.04394449207682492
1.0007062303769556,0.024158292773911582,0.05823491057091331,0.0379052596807291,0.03937997055785496,0.035704221913274686
1.000753312402086,0.006389706849983347,0.0567054348479872,0.024925530867037873,0.030035734451131304,0.023240270061892394
1.0008003944272164,4.4957735270936574e-05,0.057083431253393845,0.013623927240606612,0.021156113086235898,0.01243756494554752
1.0008474764523467,0.004476680458159687,0.05468205357025581,0.005279248516488982,0.018265313921043316,0.00426297391758375
1.000894558477477,0.016631009383087918,0.05659360798464274,0.00604487589630294,0.02082995031694339,0.004886130233582745
1.0009416405026075,0.030279800796216314,0.06517924100861942,0.01614856324889533,0.028320584907350798,0.014565903109575814
1.0009887225277379,0.04019506929021177,0.0778995551619849,0.031662352407458065,0.04099765900980007,0.02937721771343374
1.0010358045528682,0.045271217739530065,0.09065647166889518,0.049643587368788454,0.05616352034036594,0.046549597332435376
1.0010828865779986,0.04665854735345898,0.09570327458166969,0.06394396252727896,0.07109397200406076,0.06009362519110128
1.001129968603129,0.04557434040645729,0.09655873730377793,0.06951556918541625,0.08259820829880599,0.06509963298097719
1.0011770506282593,0.04281463251624272,0.0908966609566542,0.06676401531502141,0.0888432658403422,0.06202960414074408
1.0012241326533897,0.03911406922799136,0.08149239340525653,0.05756222886158259,0.09094683152480613,0.05269134412591509
1.00127121467852,0.035734840091298535,0.07099129436071466,0.04469056838221148,0.09011697210374738,0.039819518504734815
1.0013182967036505,0.034632288517627896,0.0625264948803085,0.03354469161607427,0.08968393602241677,0.028662039511545584
1.0013653787287808,0.03686446430802818,0.06436192988560208,0.03235087082016887,0.09039713179735781,0.027426946274813277
1.0014124607539112,0.040499198873267514,0.07346059137268743,0.04235422606047071,0.09280590385227672,0.037336220303990794
1.0014595427790416,0.04245011553894062,0.08238017931532611,0.05148956578485458,0.09404406080451713,0.04644020721529814
1.001506624804172,0.04142424671447975,0.08736616724703619,0.057489670337512934,0.09068876654914915,0.05263155096195202
1.0015537068293023,0.03772147907862947,0.08694377283895675,0.05838903434484734,0.08348832770855197,0.053897684156436164
1.0016007888544327,0.032149333674356434,0.08331091451057965,0.05286952532393206,0.07123600637456205,0.04899343070209533
1.001647870879563,0.025799799790141527,0.07627721162510026,0.040386054375886556,0.05498269192016503,0.037350579823006234
1.0016949529046935,0.020580986012262138,0.06498079460491582,0.02276083148008517,0.03723314717436864,0.02068516110108162
1.0017420349298238,0.01993155776046648,0.055953820080236236,0.008396000375120035,0.023484742622630117,0.007087976806521183
1.0017891169549542,0.027489951613850306,0.053609404056534034,0.00883020356959996,0.020093188253337065,0.007708462156939041
1.0018361989800846,0.042074300128446054,0.054508235428668686,0.022145335055818467,0.025008268610167195,0.02073753836282605
1.001883281005215,0.05845891480384451,0.060248431030251404,0.04104344236602053,0.035355912255251185,0.039056920828879585
1.0019303630303453,0.07582159493280267,0.06841693731089435,0.05832937685591873,0.046111513217466635,0.05576498678745877
1.0019774450554757,0.09824195100672209,0.07536596860578258,0.07041397317164165,0.05549656679746318,0.06736649658124426
1.002024527080606,0.1303669711588208,0.07393277729813899,0.07896421651578898,0.06218567120393919,0.07558539554882915
1.0020716091057364,0.17464242099810953,0.06796681617973092,0.08832693698111686,0.06661814860186259,0.08474120873246078
1.0021186911308668,0.22917237164395338,0.07205633142811872,0.11355266104308831,0.0713627631733007,0.10978927393630439
1.0021657731559972,0.2864808872447173,0.08266533377023459,0.14880372324738836,0.0772603918747381,0.14487442893017055
1.0022128551811276,0.335488571803669,0.09318435707680482,0.17945522269565434,0.08273200572867345,0.17541603838377465
1.002259937206258,0.3667004160945303,0.10035319392159907,0.20044309409803335,0.08586751772204236,0.19637952410294007
1.0023070192313883,0.37630521047742305,0.10336932380579358,0.20989430295355302,0.08597780186799214,0.20587180063977004
1.0023541012565187,0.3658732131217113,0.10197072568576997,0.20800353236518512,0.08311670274834929,0.20407311861166355
1.002401183281649,0.3393357840705059,0.09666560190775685,0.19716291122807472,0.07700579459630212,0.19341272263045958
1.0024482653067794,0.30043566038503033,0.08856920342615626,0.1783931936762516,0.06720221036507464,0.1749725909489334
1.0024953473319098,0.25183659939415354,0.07796695283190622,0.15384153094853617,0.05362285009785272,0.15096467107780637
1.0025424293570402,0.1956066522565673,0.06358426305940558,0.12081929242955049,0.038413349509186026,0.11864729091726044
1.0025895113821706,0.13475970805500284,0.04317383044878695,0.07564140824241966,0.021585515082714054,0.07436146926786556
1.002636593407301,0.07582916802294695,0.021696341706352408,0.025728531183742454,0.007456050541848553,0.025278511302839427
1.0026836754324313,0.03145358980808763,0.015919644954107772,-0.0040036080406334615,0.0017788521299267493,-0.004095761541298236
1.0027307574575617,0.01779891286180085,0.02604670187733042,-0.006351274616742859,0.009685389125359349,-0.0068768774455939515
1.002777839482692,0.04358985242398123,0.030617892067953012,0.006591376950054447,0.026416670031404806,0.005123943173787873
1.0028249215078224,0.1037077589167159,0.03817380966949283,0.04281328660270074,0.04319788450629295,0.04040566017725974
1.0028720035329528,0.18101238562213362,0.054952385373317585,0.0979436666785688,0.05907186085028031,0.09474162224058068
1.0029190855580832,0.25636899888384335,0.07882481031634751,0.15380629462607742,0.07022075536540189,0.15019362907098754
1.0029661675832136,0.31832235074100634,0.10055390239499533,0.19704252226634572,0.07253635556006448,0.1934631513717682
1.003013249608344,0.36361141655314383,0.11167796101544117,0.228525784613192,0.07406008498563123,0.2250009970115507
1.0030603316334743,0.39341420767750745,0.11849298790496282,0.24979870354304085,0.0751282977241022,0.2463206820548501
1.0031074136586047,0.4102870696014962,0.12096911714899279,0.26258314989231946,0.07424130096829396,0.2591860654123868
1.003154495683735,0.41662904201390033,0.1208389981809041,0.266777273312063,0.07205032298922026,0.26346689450139454
1.0032015777088654,0.41405085665469693,0.11807421375032001,0.26326150551395927,0.06813095394700916,0.2600659007760256
1.0032486597339958,0.4030953535584088,0.1126924021796623,0.251751202986526,0.06233352186827018,0.2487189879662193
1.0032957417591262,0.38301151602067063,0.10462177760570703,0.2324239377319079,0.0547250288084943,0.2296293200811546
1.0033428237842565,0.3514583105172215,0.09341407541567612,0.2047530276495091,0.045061797541252765,0.20231410995994165
1.003389905809387,0.3042863356687068,0.07887328287049712,0.16911475512504195,0.03368985570316148,0.16717336581198747
1.0034369878345173,0.2364892670841809,0.06166898240239893,0.12615890065588273,0.02098962202381597,0.12486420829995246
1.0034840698596477,0.14805992805189566,0.04261487909750043,0.07745804013496241,0.008392658197042433,0.07688369907349857
1.003531151884778,0.05937981673678241,0.028077917441987767,0.035632586371168055,-0.0006540314235499807,0.03561431690610457
1.0035782339099084,0.016571701488668728,0.02412538612225571,0.012038086514572617,-0.0018945793229828748,0.012124362646215543
1.0036253159350388,0.04141534161646615,0.0348599593894803,0.014399178728297872,0.007711451717807638,0.013951767082457708
1.0036723979601692,0.0978579156313711,0.05296420531656764,0.03595348541122598,0.023512376761607254,0.03461183521822022
1.0037194799852995,0.14599333246590304,0.07358577555912159,0.06503465797160808,0.04277925667192922,0.0626442113032133
1.00376656201043,0.17300879075255565,0.08978857798064938,0.0922030709843016,0.06142273426572626,0.08887854227881106
1.0038136440355603,0.18229222765708752,0.10248627812457918,0.11374971918924169,0.07483336519747931,0.10982572509123249
1.0038607260606907,0.18262972424027749,0.11093274069075847,0.12736778710133306,0.08635452389558795,0.12296987022931936
1.003907808085821,0.18292620727983336,0.11402756343360973,0.13485525602086357,0.09652697381524405,0.13005702770955663
1.0039548901109514,0.18798821740501145,0.11513956442945816,0.13913083302593265,0.10154978568329731,0.13414946433552852
1.0040019721360818,0.19658928748535154,0.11369818229488592,0.1397247738744464,0.10255729042436888,0.13470613878233464
1.0040490541612122,0.20361099360789395,0.11243755454628186,0.1356935801867525,0.09949738435163616,0.1307767787808437
1.0040961361863425,0.20356945018764083,0.1072436853190596,0.1287855413388881,0.09460648501638533,0.12403807482219029
1.004143218211473,0.19261735903368254,0.09552307820358745,0.11776025800915435,0.08636137531668317,0.11332514331035143
1.0041903002366033,0.1692114287165738,0.08016390188699066,0.09836742477706704,0.07524883646585183,0.09438477040234546
1.0042373822617336,0.13469585530973552,0.06280113823586511,0.07519967777083232,0.06190529743222286,0.07183056805540405
1.004284464286864,0.094068350002802,0.04712079481649606,0.051842634052145065,0.0464324181993742,0.049261609924929055
1.0043315463119944,0.0558705414627791,0.03427610443722559,0.03082107495389939,0.03057667611132859,0.029100896913329767
1.0043786283371248,0.029785725493520713,0.02698802050987521,0.019809015244991575,0.017019274661354743,0.018841905878573116
1.0044257103622551,0.022326134922130727,0.024980057677624297,0.01684685304795892,0.007208150860207922,0.016423557430724964
1.0044727923873855,0.03362727707623793,0.027385187544655593,0.01768087969631584,0.003313663926405786,0.01747102882394463
1.004519874412516,0.057935866130881315,0.0335080258867383,0.0238553638180855,0.0051100463915211974,0.02353723105362512
1.0045669564376463,0.08691312585069338,0.0435639504053353,0.038233159934289905,0.013080113127080913,0.037457084114071795
1.0046140384627766,0.11302745450084833,0.055894654101638463,0.05542672474865837,0.026440866179870078,0.053907108635527
1.004661120487907,0.13143773576861661,0.0664629506911072,0.07126698378066398,0.04090441563027468,0.06897325563976328
1.0047082025130374,0.140315951549541,0.07397442912181366,0.0817840112464661,0.05428319901525459,0.07880575871069266
1.0047552845381678,0.14016084842095028,0.07650698061080112,0.0846685751900148,0.06488706438507576,0.08116261024269808
1.0048023665632981,0.13271042804166153,0.07473777332916691,0.08028160564993014,0.07095753399614463,0.07646773419691032
1.0048494485884285,0.1199532079956697,0.07041269350746548,0.06958311394397716,0.0756226000076703,0.06551530320133524
1.0048965306135589,0.10352759540252561,0.06307403878847426,0.05738407400153901,0.07648043673864544,0.053246848374830194
1.0049436126386893,0.08458770500586026,0.05274063038904101,0.04469505929439128,0.0735866405159602,0.04068327754883888
1.0049906946638196,0.06411017510052013,0.04337808304487584,0.03435472552873721,0.0684961577157706,0.03059642576591539
1.00503777668895,0.043500849939608656,0.03455543584637916,0.022887706523455283,0.06126697847769627,0.019507354999174803
1.0050848587140804,0.02497562650004661,0.02684290281963337,0.013888116903115118,0.05201905747546479,0.011009001243266335
1.0051319407392107,0.011013597455985432,0.022906401980186716,0.011624969459267675,0.042312581530390955,0.009278605104725435
1.0051790227643411,0.003334338693202587,0.019807486523717176,0.009001101837417943,0.032464961857736625,0.007197994536874997
1.0052261047894715,0.0027948227754708652,0.014959958924275533,0.005716764128480125,0.023874101458695594,0.004390553511859129
1.0052731868146019,0.010164673003053454,0.01025504480893644,0.005314070387151807,0.015183240328358898,0.004467793106527557
1.0053202688397322,0.026566180290056158,0.007609659436228922,0.008193549268036414,0.006652430239576799,0.007813773565364075
1.0053673508648626,0.05291846997433676,0.007556758841678671,0.011498759854167706,0.0023559737590728466,0.01135112035490333
1.005414432889993,0.08828034555015178,0.011419004909135475,0.017065936640710815,0.00103067544994648,0.016982987280345297
1.0054615149151234,0.12763762777320273,0.015867924378110024,0.025647230237824777,0.0022264056491282528,0.02548529537533175
1.0055085969402537,0.16155770115500132,0.02110908978442009,0.038076850744054896,0.008230117949152398,0.03756641700423021
1.0055556789653841,0.18078890709766565,0.026319746041142022,0.05135766337998839,0.018239700441636458,0.0502841477981762
1.0056027609905145,0.18307418566708303,0.02953381365378609,0.06056084021799014,0.029738031898395977,0.05886071179327436
1.0056498430156449,0.1741533504439713,0.031018089666957877,0.06655908741414072,0.03741735379007111,0.06444921444723227
1.0056969250407752,0.16242605985016223,0.031244993228447728,0.07063087442771013,0.04318800311424409,0.06821844215571629
1.0057440070659056,0.15418810481596457,0.03089108376646326,0.07107575192890922,0.045789731491088705,0.0685283530782827
1.005791089091036,0.1523552110015489,0.029241965440859923,0.0660360559428213,0.04548177861461089,0.06350450094263364
1.0058381711161664,0.15691036178882456,0.02823114367843402,0.06130313889977103,0.04461713099673662,0.05881694003560799
1.0058852531412967,0.16538784679386007,0.030400089326716232,0.06307528196508604,0.04392559261016908,0.06062512415101024
1.005932335166427,0.17322460684996496,0.029844714610096437,0.06323184659303546,0.041751511465395554,0.06089555468396401
1.0059794171915575,0.17475929729964576,0.027566106746825095,0.05880087400333982,0.037698319979824244,0.05667952531043251
1.0060264992166879,0.16548577922015562,0.024849887962631823,0.05204155960234529,0.03238611548335805,0.05020660012685356
1.0060735812418182,0.1445721481217929,0.02135974575264912,0.04234591607178599,0.025400448709624695,0.04089508783695915
1.0061206632669486,0.11538472372115638,0.01839258650825258,0.03266210113426135,0.016877799938561342,0.03168592313213397
1.006167745292079,0.08342022676517998,0.014542642931361748,0.0259645785337829,0.008938405479835907,0.0254327152440423
1.0062148273172093,0.053714935068683495,0.012427515201335684,0.01794830890199036,0.003074324616368324,0.017751255309475474
1.0062619093423397,0.029620632829972474,0.01000262447618086,0.006428025048282717,-0.0008585080436369697,0.006465633510016682
1.00630899136747,0.012907514843990737,0.008799279602309579,-0.004503164505502606,-0.0009167411881034648,-0.00444565241482238
1.0063560733926005,0.004292560353454192,0.008852899448546163,-0.010519166817943732,0.002029466418676198,-0.010615216496120699
1.0064031554177308,0.0038095921685766332,0.012018760011198963,-0.007972360122875525,0.007303760991265382,-0.008363824419548872
1.0064502374428612,0.010924293923755681,0.020481227551755386,0.0013341291502741227,0.018616182668462093,0.0003038043820206283
1.0064973194679916,0.02453035587728399,0.02865813066460397,0.011333716656649779,0.03110160784134656,0.009603316377219768
1.006544401493122,0.042966387475684646,0.03543619543460291,0.020787738978896356,0.04334618990182329,0.01838025272224211
1.0065914835182523,0.06411092062196938,0.04012887593099023,0.03329944681240632,0.05112881413829367,0.03046845917822991
1.0066385655433827,0.08556714248621351,0.04503793522708535,0.049462130528264495,0.05436086764447126,0.04646282931952368
1.006685647568513,0.10493697207975199,0.0497747552115307,0.06485229624100503,0.054361636638305705,0.06185993709799769
1.0067327295936435,0.12014720761669652,0.052566878370702876,0.07640706666955516,0.05200532804274463,0.0735414560946862
1.0067798116187738,0.12974860817624662,0.05295455337345633,0.08294186479002422,0.047610611426734194,0.08030277676397621
1.0068268936439042,0.1331160769266914,0.053416114071308494,0.08436945777741765,0.041317088959268944,0.08205243728602904
1.0068739756690346,0.13051634907150206,0.05023165570072586,0.08386978816652868,0.034083349085606195,0.08192651127251982
1.006921057694165,0.12301693370584733,0.043253146576383426,0.08185258015702256,0.027609218594562605,0.08024870012686217
1.0069681397192953,0.11219272060745543,0.03449027295044603,0.07585112215539112,0.020947016042615577,0.07460494904285647
1.0070152217444257,0.09964098937742749,0.02668096680410397,0.06985230351433948,0.01443844993955671,0.06896150302923594
1.007062303769556,0.08648287672211809,0.0201841825378313,0.06302251331950957,0.00873029292924359,0.06244962577482243
1.0071093857946865,0.07315337862299943,0.01599034974929557,0.053521194673379444,0.003888555152226316,0.05322622632163779
1.0071564678198168,0.05967551136841471,0.013256169484824252,0.042771215350936226,8.984386106671911e-05,0.04270108033574818
1.0072035498449472,0.046352747241279996,0.009238615654757816,0.029687677967592516,-0.0029597249710409056,0.029805795732523458
1.0072506318700776,0.03458526276589038,0.007055320484729046,0.01916866027493343,-0.0037292666148888622,0.019345424894505456
1.007297713895208,0.02727830692374265,0.006670005669313062,0.01473006896934623,-0.00318122484130398,0.014883328953990563
1.0073447959203383,0.0280866607277734,0.009626036879117979,0.01711698325886342,-0.0008843908531758757,0.017139694113250812
1.0073918779454687,0.03925806445151868,0.017836906919456014,0.028584290137595406,0.004546395570006392,0.028290139258764703
1.007438959970599,0.059562255279517966,0.02793652971650191,0.043832242766228824,0.01110317326845375,0.04315650857855693
1.0074860419957294,0.08449757331606145,0.03681799378954981,0.058037587268334905,0.017323687968268157,0.05700558975587652
1.0075331240208598,0.10858230355013457,0.0430379537623206,0.06858033205585247,0.023913625568006098,0.06718337364857338
1.0075802060459902,0.12742598805780986,0.047342943482204976,0.07621925524513734,0.028245339814528474,0.07458616216749493
1.0076272880711206,0.13840784538629322,0.0481872325597873,0.07904744927672683,0.030615232770837632,0.07728780875981296
1.007674370096251,0.14057521646913557,0.04589838814461158,0.0769603579802706,0.03250027394385262,0.0751032243143142
1.0077214521213813,0.1345761316442056,0.04241942905658629,0.07084930100861353,0.032117496486354,0.0690159334446546
1.0077685341465117,0.12269802495893224,0.03682347702308309,0.062425783036096825,0.029149357930316998,0.06075551197932179
