freq,gls,usurper,pdc_unbiased,shape_periodogram,shift_periodogram
1.0,0.02176245538732735,0.0012529032180127846,-0.007335655112181927,0.005807185137047005,-0.007367921985585901
1.0000470820251304,0.05134779247241603,0.0032375014202724135,0.016081221596065367,0.0031981233816095684,0.016063297247863446
1.0000941640502607,0.09689124580742478,0.00676469390543672,0.05094334186944231,0.0020867455156725395,0.050931121908971484
1.0001412460753911,0.14848755125694818,0.010518159661259926,0.08456655871201842,0.005343990560704819,0.0845370941190286
1.0001883281005215,0.19664060203551523,0.013383661399375142,0.10917973127593883,0.013479602937017233,0.10911431814601164
1.0002354101256519,0.23592916525893703,0.016803690922321392,0.12678225514793529,0.02181797623633819,0.12669171488522965
1.0002824921507822,0.26363730657080775,0.02140652640399669,0.13936052532630389,0.028830726570028876,0.13925966931340514
1.0003295741759126,0.2780607972143743,0.024075951445841938,0.14663287491158739,0.03255384551298312,0.14653161894965927
1.000376656201043,0.27778293516045677,0.024127185597122108,0.14742341655727248,0.035360207452840735,0.14732126087971548
1.0004237382261734,0.2619162710265795,0.02371449389105403,0.139633635428265,0.03633188223209016,0.1395258940811848
1.0004708202513037,0.23107843684954268,0.02228424005439414,0.12167319492364326,0.03587461762638311,0.12155355588079486
1.0005179022764341,0.1884924826566669,0.02020505957848931,0.09811663264576473,0.035444126700204324,0.09798205040767591
1.0005649843015645,0.1401213853463462,0.01906404076133413,0.07552593926328457,0.03577052700650979,0.07537573599552148
1.0006120663266949,0.09311329616242185,0.018506724892687617,0.056936636782797936,0.03683467101102682,0.05677054018195019
1.0006591483518252,0.05338098213176131,0.020177885027785853,0.04656239048066332,0.03778724598589786,0.04638550480306512
1.0007062303769556,0.024158292773911582,0.021878033047791907,0.0379052596807291,0.03719511071739097,0.03772457009219601
1.000753312402086,0.006389706849983347,0.02351643156635459,0.024925530867037873,0.03511864069478893,0.024745500667215526
1.0008003944272164,4.4957735270936574e-05,0.024257034812665047,0.013623927240606612,0.032636310105721066,0.013449638297989883
1.0008474764523467,0.004476680458159687,0.023538241903454486,0.005279248516488982,0.033370984294819044,0.00509664008035865
1.000894558477477,0.016631009383087918,0.027400988978047224,0.00604487589630294,0.03520361612837227,0.00585286755550778
1.0009416405026075,0.030279800796216314,0.030504372904934438,0.01614856324889533,0.03896101097496469,0.015944075257417763
1.0009887225277379,0.04019506929021177,0.0336263435776401,0.031662352407458065,0.04161851120844362,0.03145825133039586
1.0010358045528682,0.045271217739530065,0.036042674258743496,0.049643587368788454,0.045374537005834985,0.04944249723460096
1.0010828865779986,0.04665854735345898,0.040666298838193574,0.06394396252727896,0.048795355191439065,0.06374920972684413
1.001129968603129,0.04557434040645729,0.04315921872851094,0.06951556918541625,0.05156632599358266,0.06932190595975099
1.0011770506282593,0.04281463251624272,0.043939339839824385,0.06676401531502141,0.051415794602779605,0.06656693520520982
1.0012241326533897,0.03911406922799136,0.0429524294366117,0.05756222886158259,0.04785711132719382,0.05736232580271906
1.00127121467852,0.035734840091298535,0.03882400503042513,0.04469056838221148,0.0423875866788839,0.04449503323524201
1.0013182967036505,0.034632288517627896,0.03605039606821054,0.03354469161607427,0.03789569684527482,0.03335795455418901
1.0013653787287808,0.03686446430802818,0.034407943703284594,0.03235087082016887,0.03577185871740066,0.03217254215653664
1.0014124607539112,0.040499198873267514,0.03273692351578562,0.04235422606047071,0.03715043042609887,0.0421768221182083
1.0014595427790416,0.04245011553894062,0.03309598542740513,0.05148956578485458,0.041836988866956984,0.051302091378645276
1.001506624804172,0.04142424671447975,0.03414088452250998,0.057489670337512934,0.046618142928837196,0.057293189315779224
1.0015537068293023,0.03772147907862947,0.0355163467842024,0.05838903434484734,0.04922480628468429,0.05818638700452807
1.0016007888544327,0.032149333674356434,0.034411279727716085,0.05286952532393206,0.049000409203955604,0.05266073642230425
1.001647870879563,0.025799799790141527,0.03036467841114152,0.040386054375886556,0.04624720596407599,0.040172070994477095
1.0016949529046935,0.020580986012262138,0.025074680408161184,0.02276083148008517,0.04134582621030361,0.022550257538082524
1.0017420349298238,0.01993155776046648,0.022131268928964512,0.008396000375120035,0.03789588697688902,0.008191267491142332
1.0017891169549542,0.027489951613850306,0.02128984802274359,0.00883020356959996,0.04060879913632103,0.00861161754722744
1.0018361989800846,0.042074300128446054,0.02155035843513085,0.022145335055818467,0.043594780637266045,0.0219238374189136
1.001883281005215,0.05845891480384451,0.024262559668565113,0.04104344236602053,0.0494817431283136,0.04081855122785185
1.0019303630303453,0.07582159493280267,0.02384682634832021,0.05832937685591873,0.054520363128114625,0.05811330322541134
1.0019774450554757,0.09824195100672209,0.019998528987582632,0.07041397317164165,0.05712831953419892,0.07021199896137569
1.002024527080606,0.1303669711588208,0.015168125595941537,0.07896421651578898,0.05607979001953677,0.07877759038008209
1.0020716091057364,0.17464242099810953,0.012230563169291582,0.08832693698111686,0.054656918557508066,0.08815625890923258
1.0021186911308668,0.22917237164395338,0.011841263844234515,0.11355266104308831,0.05450668753736176,0.11342041931058648
1.0021657731559972,0.2864808872447173,0.013354594816654079,0.14880372324738836,0.05629269092805325,0.14872971871172994
1.0022128551811276,0.335488571803669,0.014981780715329154,0.17945522269565434,0.05893337088921912,0.1794427003991193
1.002259937206258,0.3667004160945303,0.015704388894171056,0.20044309409803335,0.0608069326752176,0.20047857266814728
1.0023070192313883,0.37630521047742305,0.015425106401783356,0.20989430295355302,0.06118573975996838,0.20994957265240435
1.0023541012565187,0.3658732131217113,0.015007120416803882,0.20800353236518512,0.06042366775411672,0.20805005972934382
1.002401183281649,0.3393357840705059,0.014853550037042305,0.19716291122807472,0.05941131567424111,0.1971837873586531
1.0024482653067794,0.30043566038503033,0.01321904448596366,0.1783931936762516,0.05641566701321988,0.17836701578445663
1.0024953473319098,0.25183659939415354,0.01158686043229142,0.15384153094853617,0.04951672036960139,0.15375800683892388
1.0025424293570402,0.1956066522565673,0.008993837555148562,0.12081929242955049,0.03988963846329824,0.1206953618947458
1.0025895113821706,0.13475970805500284,0.009294194825993847,0.07564140824241966,0.025759342910420986,0.075523298632129
1.002636593407301,0.07582916802294695,0.0093244264066267,0.025728531183742454,0.011758408310280091,0.025664655277394817
1.0026836754324313,0.03145358980808763,0.005084127747317152,-0.0040036080406334615,0.007579732302930248,-0.0040457662518648815
1.0027307574575617,0.01779891286180085,0.0011797887831445323,-0.006351274616742859,0.0184722641102569,-0.006454883545392748
1.002777839482692,0.04358985242398123,0.004249520910439655,0.006591376950054447,0.03006951882184559,0.006427158364274265
1.0028249215078224,0.1037077589167159,0.014907803834796562,0.04281328660270074,0.041833721052012725,0.042618120370857784
1.0028720035329528,0.18101238562213362,0.028209114140930597,0.0979436666785688,0.04231407361573317,0.09779723956743813
1.0029190855580832,0.25636899888384335,0.03615624792459565,0.15380629462607742,0.04441731962576925,0.15371405948026332
1.0029661675832136,0.31832235074100634,0.03768633007879465,0.19704252226634572,0.04704320567704965,0.19700298966012986
1.003013249608344,0.36361141655314383,0.03974952284009783,0.228525784613192,0.04433904123127428,0.22850817435953297
1.0030603316334743,0.39341420767750745,0.04038856275028544,0.24979870354304085,0.042159856566067896,0.24979070565152053
1.0031074136586047,0.4102870696014962,0.04044875574946774,0.26258314989231946,0.041167641604145024,0.2625811878809772
1.003154495683735,0.41662904201390033,0.03962739515036034,0.266777273312063,0.03962572990268372,0.26677101987659124
1.0032015777088654,0.41405085665469693,0.03808606736317948,0.26326150551395927,0.037571264084804136,0.26324331676234136
1.0032486597339958,0.4030953535584088,0.035924223563635775,0.251751202986526,0.03457061257572239,0.25171441468317945
1.0032957417591262,0.38301151602067063,0.03315920387488375,0.2324239377319079,0.031220549632894418,0.2323681324592933
1.0033428237842565,0.3514583105172215,0.02970226223806871,0.2047530276495091,0.02740005662835286,0.20468088976944948
1.003389905809387,0.3042863356687068,0.025291093960921645,0.16911475512504195,0.023394186313885967,0.16903273831366766
1.0034369878345173,0.2364892670841809,0.02088555397808948,0.12615890065588273,0.019163735389066888,0.12607584619566564
1.0034840698596477,0.14805992805189566,0.017439814715073214,0.07745804013496241,0.014661462456006616,0.07738440795944908
1.003531151884778,0.05937981673678241,0.016230409946664377,0.035632586371168055,0.010945566139569892,0.03557347946942227
1.0035782339099084,0.016571701488668728,0.019123636955534484,0.012038086514572617,0.010478809267106792,0.011980362162521997
1.0036253159350388,0.04141534161646615,0.02625649073679354,0.014399178728297872,0.015858292693798702,0.014312691801985196
1.0036723979601692,0.0978579156313711,0.03586127328945863,0.03595348541122598,0.0295441076926207,0.03580474255122067
1.0037194799852995,0.14599333246590304,0.04853538490687028,0.06503465797160808,0.042858565878770793,0.0648564293657031
1.00376656201043,0.17300879075255565,0.059246302018160134,0.0922030709843016,0.05149450716192376,0.09204032103150173
1.0038136440355603,0.18229222765708752,0.06499007599735497,0.11374971918924169,0.05689852360013155,0.1136197152246938
1.0038607260606907,0.18262972424027749,0.06463572685006824,0.12736778710133306,0.057863391727376506,0.12726197926343077
1.003907808085821,0.18292620727983336,0.06656321000680572,0.13485525602086357,0.05387919126436127,0.13475421726568776
1.0039548901109514,0.18798821740501145,0.06621405093521152,0.13913083302593265,0.05067801051223156,0.13903053547104216
1.0040019721360818,0.19658928748535154,0.06126825075368466,0.1397247738744464,0.04744156444771575,0.13962094317348855
1.0040490541612122,0.20361099360789395,0.0539250063277706,0.1356935801867525,0.04655647558909343,0.13558432550735963
1.0040961361863425,0.20356945018764083,0.04601746138648149,0.1287855413388881,0.04309957184942921,0.12866767710364527
1.004143218211473,0.19261735903368254,0.04032769803101073,0.11776025800915435,0.03945428333463213,0.11763416245181758
1.0041903002366033,0.1692114287165738,0.033563732823077036,0.09836742477706704,0.035736271752043865,0.0982324187661459
1.0042373822617336,0.13469585530973552,0.02650676541336691,0.07519967777083232,0.03022522368802779,0.07506614806450093
1.004284464286864,0.094068350002802,0.019320710828462623,0.051842634052145065,0.0243051842680453,0.05172260432422779
1.0043315463119944,0.0558705414627791,0.012385971175685734,0.03082107495389939,0.018369243619194058,0.030723884241968192
1.0043786283371248,0.029785725493520713,0.008363521270030193,0.019809015244991575,0.013247017905344981,0.019736897949644772
1.0044257103622551,0.022326134922130727,0.0061457764855556785,0.01684685304795892,0.010160800325388793,0.016791041287206075
1.0044727923873855,0.03362727707623793,0.00582577962083791,0.01768087969631584,0.010033300438065289,0.017625785802170172
1.004519874412516,0.057935866130881315,0.007023649301719333,0.0238553638180855,0.01277777568029132,0.02378601765628818
1.0045669564376463,0.08691312585069338,0.009349979237727736,0.038233159934289905,0.01927695754740402,0.03813279850775043
1.0046140384627766,0.11302745450084833,0.012103054771600048,0.05542672474865837,0.02968750354188728,0.05528601172565094
1.004661120487907,0.13143773576861661,0.014345288928564258,0.07126698378066398,0.041529665333812374,0.0710979741872101
1.0047082025130374,0.140315951549541,0.01826132929102977,0.0817840112464661,0.05251882041574844,0.08160580477932987
1.0047552845381678,0.14016084842095028,0.019019296256240822,0.0846685751900148,0.06060294947878389,0.08448842135437769
1.0048023665632981,0.13271042804166153,0.01875384633630106,0.08028160564993014,0.06688886873224736,0.08009060438670768
1.0048494485884285,0.1199532079956697,0.015115542395534216,0.06958311394397716,0.07058413188192895,0.06936496349845805
1.0048965306135589,0.10352759540252561,0.013694839419541105,0.05738407400153901,0.07026099161905539,0.05713555386550922
1.0049436126386893,0.08458770500586026,0.014000074519334525,0.04469505929439128,0.06584400154423133,0.04442591734262489
1.0049906946638196,0.06411017510052013,0.013075398501269521,0.03435472552873721,0.05962603816547812,0.03408413170977149
1.00503777668895,0.043500849939608656,0.010893669328456753,0.022887706523455283,0.05236161846759349,0.022627739869167596
1.0050848587140804,0.02497562650004661,0.007781991365012911,0.013888116903115118,0.045070067757340765,0.013651482981898177
1.0051319407392107,0.011013597455985432,0.003076486772161977,0.011624969459267675,0.03959259191979335,0.011413848668966145
1.0051790227643411,0.003334338693202587,0.0002719240490171806,0.009001101837417943,0.032005498264388296,0.00882771841761168
1.0052261047894715,0.0027948227754708652,-0.0028519534215155295,0.005716764128480125,0.020660340450506652,0.0056031108980289035
1.0052731868146019,0.010164673003053454,-0.0036893985521559585,0.005314070387151807,0.009612126619676621,0.005260839104271403
1.0053202688397322,0.026566180290056158,-0.00461488313339567,0.008193549268036414,0.002250197212690435,0.008180945169057069
1.0053673508648626,0.05291846997433676,-0.0052491312680926034,0.011498759854167706,-0.0013131332829368857,0.011505885284616197
1.005414432889993,0.08828034555015178,-0.006848085701136093,0.017065936640710815,-0.0032307802753790064,0.01708370141495911
1.0054615149151234,0.12763762777320273,-0.006964178973471083,0.025647230237824777,-0.0031438357480670113,0.025664408049476835
1.0055085969402537,0.16155770115500132,-0.005220974081253786,0.038076850744054896,-0.000195392648568211,0.03807734787674383
1.0055556789653841,0.18078890709766565,-0.00293246239604268,0.05135766337998839,0.006507908243841726,0.05132194899267541
1.0056027609905145,0.18307418566708303,-0.0024756179717918565,0.06056084021799014,0.01414737756459041,0.060487784559791966
1.0056498430156449,0.1741533504439713,-0.0007573631034417839,0.06655908741414072,0.021930544567789517,0.06645296143445713
1.0056969250407752,0.16242605985016223,0.001193986073712084,0.07063087442771013,0.028680068070378584,0.07050051958880733
1.0057440070659056,0.15418810481596457,0.0015011517479910422,0.07107575192890922,0.03389119467459921,0.0709283606048242
1.005791089091036,0.1523552110015489,0.0004921395147902236,0.0660360559428213,0.036949445545728564,0.0658759166389732
1.0058381711161664,0.15691036178882456,0.0008857071844269464,0.06130313889977103,0.03833963583231269,0.06113519925831719
1.0058852531412967,0.16538784679386007,0.002100621509486255,0.06307528196508604,0.037156736240039415,0.06291240896610382
1.005932335166427,0.17322460684996496,0.004827153785988576,0.06323184659303546,0.03455439815890208,0.06307759365717328
1.0059794171915575,0.17475929729964576,0.005248859542211174,0.05880087400333982,0.03162708304272953,0.058654433413272575
1.0060264992166879,0.16548577922015562,0.00446407496228766,0.05204155960234529,0.02870792131444965,0.05190326885366492
1.0060735812418182,0.1445721481217929,0.0037910689741604314,0.04234591607178599,0.025531605053919368,0.04221755573165169
1.0061206632669486,0.11538472372115638,0.0023802575254386607,0.03266210113426135,0.023433607347388884,0.03254055973927838
1.006167745292079,0.08342022676517998,0.0030304293167000055,0.0259645785337829,0.021173451450391897,0.02585247161890444
1.0062148273172093,0.053714935068683495,0.005443943035210783,0.01794830890199036,0.019165838017458667,0.01784489530106199
1.0062619093423397,0.029620632829972474,0.009171373496585606,0.006428025048282717,0.01947340799090202,0.0063209578642778475
1.00630899136747,0.012907514843990737,0.01099308640841661,-0.004503164505502606,0.017342246971102735,-0.004600118568013781
1.0063560733926005,0.004292560353454192,0.013430508476536495,-0.010519166817943732,0.015218458112909287,-0.01060475563990653
1.0064031554177308,0.0038095921685766332,0.014919929388198992,-0.007972360122875525,0.014932414367928947,-0.008056075612681835
1.0064502374428612,0.010924293923755681,0.017111630273557017,0.0013341291502741227,0.014753237482895629,0.0012522920541126828
1.0064973194679916,0.02453035587728399,0.02036532105762721,0.011333716656649779,0.015803561701545066,0.01124717553876045
1.006544401493122,0.042966387475684646,0.022280176506944162,0.020787738978896356,0.016809834243696923,0.020697024540686754
1.0065914835182523,0.06411092062196938,0.024108552303899924,0.03329944681240632,0.017450701461443334,0.03320720818806587
1.0066385655433827,0.08556714248621351,0.026530410000041357,0.049462130528264495,0.018828090500633568,0.049365893024946136
1.006685647568513,0.10493697207975199,0.02743949332977546,0.06485229624100503,0.02081504922742683,0.06475037116399433
1.0067327295936435,0.12014720761669652,0.026394596023919217,0.07640706666955516,0.022207121245835383,0.0763023201912541
1.0067798116187738,0.12974860817624662,0.02442151726394158,0.08294186479002422,0.0205084140617668,0.0828451477020874
1.0068268936439042,0.1331160769266914,0.021291754162717808,0.08436945777741765,0.018729199293668182,0.08427991197355106
1.0068739756690346,0.13051634907150206,0.01948651909733999,0.08386978816652868,0.015887250283642153,0.08379168058593382
1.006921057694165,0.12301693370584733,0.01748281362733446,0.08185258015702256,0.011160114393790437,0.081795013513066
1.0069681397192953,0.11219272060745543,0.013896798062733388,0.07585112215539112,0.0074913857533129465,0.07581081807789211
1.0070152217444257,0.09964098937742749,0.009326551435876589,0.06985230351433948,0.0033201915767547352,0.06983330547268185
1.007062303769556,0.08648287672211809,0.00560605530114287,0.06302251331950957,-2.9399241089234044e-05,0.06302170719333751
1.0071093857946865,0.07315337862299943,0.0017921053499555853,0.053521194673379444,-0.0026616182952239973,0.053535281933133
1.0071564678198168,0.05967551136841471,-0.0023439769517412654,0.042771215350936226,-0.004053935761933714,0.042793365134541884
1.0072035498449472,0.046352747241279996,-0.003876014595395432,0.029687677967592516,-0.004143360057556273,0.029710460709621356
1.0072506318700776,0.03458526276589038,-0.0055151499059025895,0.01916866027493343,-0.003489574526596935,0.019187855024375266
1.007297713895208,0.02727830692374265,-0.0062472400515917095,0.01473006896934623,-0.0017041982335773433,0.014739326749397768
1.0073447959203383,0.0280866607277734,-0.005253314929856833,0.01711698325886342,0.0014666636701862448,0.017108594023163056
1.0073918779454687,0.03925806445151868,-0.0031381652176588064,0.028584290137595406,0.005873805867137664,0.028551753053321187
1.007438959970599,0.059562255279517966,0.0016573335694371727,0.043832242766228824,0.010642592579823308,0.04377509353916627
1.0074860419957294,0.08449757331606145,0.007077481130984312,0.058037587268334905,0.01744136730746613,0.05794908294037313
1.0075331240208598,0.10858230355013457,0.011182640498720333,0.06858033205585247,0.023336398352951735,0.06846911776661978
1.0075802060459902,0.12742598805780986,0.01199453237896055,0.07621925524513734,0.027539562589215288,0.07609512934795305
1.0076272880711206,0.13840784538629322,0.012748059541024353,0.07904744927672683,0.031160036698219457,0.07891284311166658
1.007674370096251,0.14057521646913557,0.012198375676332474,0.0769603579802706,0.034455571575387665,0.07681481487755931
1.0077214521213813,0.1345761316442056,0.009008730717153976,0.07084930100861353,0.03507699997691959,0.07069811425541835
