freq,gls,usurper,pdc_unbiased,shape_periodogram,shift_periodogram
1.0,0.02176245538732735,0.02136187794615171,-0.007335655112181927,0.002747587028434957,-0.007411919572633998
1.0000470820251304,0.05134779247241603,0.02937219772944656,0.016081221596065367,0.006457159366289421,0.015888565673031676
1.0000941640502607,0.09689124580742478,0.03695623187427119,0.05094334186944231,0.01576456580468049,0.050475200813803855
1.0001412460753911,0.14848755125694818,0.04463231693178054,0.08456655871201842,0.026671932797545952,0.08379956454952646
1.0001883281005215,0.19664060203551523,0.05188584279915063,0.10917973127593883,0.03928752527750875,0.10810338723350892
1.0002354101256519,0.23592916525893703,0.057055766808172675,0.12678225514793529,0.04847975986564456,0.12550957724122455
1.0002824921507822,0.26363730657080775,0.058070597791211966,0.13936052532630389,0.052929259633800387,0.13800955562828898
1.0003295741759126,0.2780607972143743,0.059027431376621836,0.14663287491158739,0.05555076867546458,0.14524024231664184
1.000376656201043,0.27778293516045677,0.059975481335482105,0.14742341655727248,0.05678485822734511,0.14600756938099368
1.0004237382261734,0.2619162710265795,0.058036531511371586,0.139633635428265,0.05699758000051186,0.13819926549292022
1.0004708202513037,0.23107843684954268,0.05347982123035438,0.12167319492364326,0.05513057201916973,0.12024709220238508
1.0005179022764341,0.1884924826566669,0.04735716162781398,0.09811663264576473,0.0518859257707832,0.09672897216277829
1.0005649843015645,0.1401213853463462,0.04281812199476981,0.07552593926328457,0.048148476316319945,0.07420227068947953
1.0006120663266949,0.09311329616242185,0.04000253341101113,0.056936636782797936,0.04324355364582443,0.0557228270328409
1.0006591483518252,0.05338098213176131,0.04001629739370089,0.04656239048066332,0.03615116338149996,0.04553268565973198
1.0007062303769556,0.024158292773911582,0.03946297705963479,0.0379052596807291,0.027300777552895512,0.03711703647774855
1.000753312402086,0.006389706849983347,0.03859526577606704,0.024925530867037873,0.016940755956837247,0.02443017395252087
1.0008003944272164,4.4957735270936574e-05,0.03964511364731515,0.013623927240606612,0.007591095021996682,0.013399610986179668
1.0008474764523467,0.004476680458159687,0.038853567368911865,0.005279248516488982,0.0052435915475752114,0.005125789766668052
1.000894558477477,0.016631009383087918,0.04164316289857681,0.00604487589630294,0.008145959046164528,0.005807460940111604
1.0009416405026075,0.030279800796216314,0.049564607082345745,0.01614856324889533,0.015577693989854027,0.015694322089702027
1.0009887225277379,0.04019506929021177,0.06013782972426668,0.031662352407458065,0.0287503488076743,0.03083335478973507
1.0010358045528682,0.045271217739530065,0.06917241859536816,0.049643587368788454,0.044832448721166394,0.04838222791816928
1.0010828865779986,0.04665854735345898,0.07285475477508493,0.06394396252727896,0.06091663106694775,0.06228500473715422
1.001129968603129,0.04557434040645729,0.07494053281722919,0.06951556918541625,0.07385036910272195,0.0675539250109784
1.0011770506282593,0.04281463251624272,0.07275192766679654,0.06676401531502141,0.08146231475809652,0.06461423415291967
1.0012241326533897,0.03911406922799136,0.06650941686006605,0.05756222886158259,0.0845290957867004,0.05530766516869
1.00127121467852,0.035734840091298535,0.058259859682733596,0.04469056838221148,0.08433947814834976,0.0423955281002421
1.0013182967036505,0.034632288517627896,0.05067486591162536,0.03354469161607427,0.08354052223728858,0.031232506836815322
1.0013653787287808,0.03686446430802818,0.04918853333124345,0.03235087082016887,0.08258379920363375,0.03006000090541514
1.0014124607539112,0.040499198873267514,0.05267106755776002,0.04235422606047071,0.08264363946368503,0.0400944149170031
1.0014595427790416,0.04245011553894062,0.05693020426577264,0.05148956578485458,0.08207133246346092,0.04927430672712014
1.001506624804172,0.04142424671447975,0.05817518332542549,0.057489670337512934,0.07667052243248733,0.0554261861008748
1.0015537068293023,0.03772147907862947,0.056801397017212645,0.05838903434484734,0.06746647478842469,0.05655569583799273
1.0016007888544327,0.032149333674356434,0.053829774003653144,0.05286952532393206,0.05427892679468521,0.05136289491136748
1.001647870879563,0.025799799790141527,0.04951452310099069,0.040386054375886556,0.03751956139458269,0.03931661552499051
1.0016949529046935,0.020580986012262138,0.041643090944370555,0.02276083148008517,0.02049152197381352,0.02216504448497994
1.0017420349298238,0.01993155776046648,0.0363976556360501,0.008396000375120035,0.007426394557804047,0.008178416169096593
1.0017891169549542,0.027489951613850306,0.035900309061703016,0.00883020356959996,0.004729846242336578,0.008690129414856543
1.0018361989800846,0.042074300128446054,0.03628602173478128,0.022145335055818467,0.009358234862229304,0.02186717795481261
1.001883281005215,0.05845891480384451,0.04096595489566402,0.04104344236602053,0.019535560603463977,0.0404716686758605
1.0019303630303453,0.07582159493280267,0.04817770285042432,0.05832937685591873,0.031046782260219927,0.05744120952214297
1.0019774450554757,0.09824195100672209,0.05438260721276916,0.07041397317164165,0.04349309406204007,0.06920384918189222
1.002024527080606,0.1303669711588208,0.05333457848112879,0.07896421651578898,0.053615561141483796,0.07750909594332268
1.0020716091057364,0.17464242099810953,0.04823038650026109,0.08832693698111686,0.060720414450060226,0.08671682879417775
1.0021186911308668,0.22917237164395338,0.04929072574623991,0.11355266104308831,0.0657798534629553,0.11188275598729566
1.0021657731559972,0.2864808872447173,0.0543225959852568,0.14880372324738836,0.07041411697056572,0.14713439728878103
1.0022128551811276,0.335488571803669,0.059608473031185404,0.17945522269565434,0.07440319195564073,0.17781449822105452
1.002259937206258,0.3667004160945303,0.06310428265059254,0.20044309409803335,0.07662540573712517,0.19884351722702795
1.0023070192313883,0.37630521047742305,0.06435504507274253,0.20989430295355302,0.07655336636212465,0.20832909188198473
1.0023541012565187,0.3658732131217113,0.06320395555813174,0.20800353236518512,0.07428891057415128,0.20645905223062677
1.002401183281649,0.3393357840705059,0.06117548145587886,0.19716291122807472,0.06959505104781531,0.19564644328740619
1.0024482653067794,0.30043566038503033,0.05839417641964974,0.1783931936762516,0.06138871868671297,0.17695586928984305
1.0024953473319098,0.25183659939415354,0.053401288634275366,0.15384153094853617,0.048617411460422415,0.15260111023154802
1.0025424293570402,0.1956066522565673,0.044206672538265046,0.12081929242955049,0.03261491065912265,0.11991163251821889
1.0025895113821706,0.13475970805500284,0.0322518335762234,0.07564140824241966,0.015257121898499534,0.07518219033587555
1.002636593407301,0.07582916802294695,0.021710686991111738,0.025728531183742454,0.0018774423380894154,0.025663734158301386
1.0026836754324313,0.03145358980808763,0.02113849922436012,-0.0040036080406334615,-0.0011258544885785775,-0.003969450082860805
1.0027307574575617,0.01779891286180085,0.029486370724239357,-0.006351274616742859,0.009607161103938333,-0.006626191252661825
1.002777839482692,0.04358985242398123,0.03104154466780675,0.006591376950054447,0.029786933433809636,0.005731537408400623
1.0028249215078224,0.1037077589167159,0.03458442289327703,0.04281328660270074,0.04592990266549324,0.04151716116644772
1.0028720035329528,0.18101238562213362,0.04437135596967425,0.0979436666785688,0.056353672006878616,0.09645162460947826
1.0029190855580832,0.25636899888384335,0.05942595748083723,0.15380629462607742,0.06089174329283057,0.15232370939571596
1.0029661675832136,0.31832235074100634,0.0727860770875018,0.19704252226634572,0.05906424646182772,0.19568498039047863
1.003013249608344,0.36361141655314383,0.0789155481450925,0.228525784613192,0.058232248038813855,0.22724961863627266
1.0030603316334743,0.39341420767750745,0.08180260681009731,0.24979870354304085,0.05696820324550066,0.24858624149394104
1.0031074136586047,0.4102870696014962,0.08192331727992233,0.26258314989231946,0.05447613438103196,0.2614295934128128
1.003154495683735,0.41662904201390033,0.08079119554681226,0.266777273312063,0.051350016820096746,0.2656723169383934
1.0032015777088654,0.41405085665469693,0.07828408407795451,0.26326150551395927,0.04727932828572656,0.26220662097119357
1.0032486597339958,0.4030953535584088,0.07441753020456739,0.251751202986526,0.04202245378928131,0.2507606298880201
1.0032957417591262,0.38301151602067063,0.06911286909589791,0.2324239377319079,0.035638690223042606,0.23152478823806474
1.0033428237842565,0.3514583105172215,0.06213045162773548,0.2047530276495091,0.02795645129392395,0.20399084782108154
1.003389905809387,0.3042863356687068,0.05321659877254761,0.16911475512504195,0.01934866799147151,0.16854224118430133
1.0034369878345173,0.2364892670841809,0.04285283716900135,0.12615890065588273,0.010026883967884448,0.12583088058997816
1.0034840698596477,0.14805992805189566,0.03182722033714226,0.07745804013496241,0.0009297584070329423,0.07739940704283327
1.003531151884778,0.05937981673678241,0.024307608556440125,0.035632586371168055,-0.005481840950596991,0.03577620867065682
1.0035782339099084,0.016571701488668728,0.023839650048710418,0.012038086514572617,-0.0065314481755750315,0.012221796897427107
1.0036253159350388,0.04141534161646615,0.03238300270279184,0.014399178728297872,0.0007875893785322806,0.014370462445637928
1.0036723979601692,0.0978579156313711,0.04570455000754455,0.03595348541122598,0.014075797930459174,0.03553657753223789
1.0037194799852995,0.14599333246590304,0.061225313211638197,0.06503465797160808,0.03003205010793826,0.06417516476648946
1.00376656201043,0.17300879075255565,0.0720331829514515,0.0922030709843016,0.04619500927074808,0.09094474392613545
1.0038136440355603,0.18229222765708752,0.07984713725643462,0.11374971918924169,0.05657848195713352,0.11227873941887889
1.0038607260606907,0.18262972424027749,0.08434634124341579,0.12736778710133306,0.06478460434047835,0.12575046589769023
1.003907808085821,0.18292620727983336,0.08492149123727748,0.13485525602086357,0.07353614019139944,0.13308844386960683
1.0039548901109514,0.18798821740501145,0.08516279601037981,0.13913083302593265,0.0785973432788526,0.13728678592306867
1.0040019721360818,0.19658928748535154,0.08413217366939998,0.1397247738744464,0.08055320039685908,0.13784894916492532
1.0040490541612122,0.20361099360789395,0.08228858515703434,0.1356935801867525,0.07924999812816626,0.13382606444641346
1.0040961361863425,0.20356945018764083,0.07698065786530324,0.1287855413388881,0.07701019444623415,0.12693519150909835
1.004143218211473,0.19261735903368254,0.06788338621320944,0.11776025800915435,0.07276980978315299,0.11595772017711158
1.0041903002366033,0.1692114287165738,0.057026765603994355,0.09836742477706704,0.06505489149093932,0.09667882706743014
1.0042373822617336,0.13469585530973552,0.045034849719250265,0.07519967777083232,0.05455725422006146,0.0737161884256231
1.004284464286864,0.094068350002802,0.03389600062633103,0.051842634052145065,0.04152655955452989,0.050670901345907605
1.0043315463119944,0.0558705414627791,0.024582154357860774,0.03082107495389939,0.026596038271074582,0.030052341605038002
1.0043786283371248,0.029785725493520713,0.01902848413048144,0.019809015244991575,0.012208340881117162,0.019450071998586612
1.0044257103622551,0.022326134922130727,0.01707229144397296,0.01684685304795892,0.0007482510313115264,0.016818255607240516
1.0044727923873855,0.03362727707623793,0.01853725068295761,0.01768087969631584,-0.00510769052309956,0.01782109338837259
1.004519874412516,0.057935866130881315,0.02280184925186548,0.0238553638180855,-0.005359637419768351,0.024000329232985767
1.0045669564376463,0.08691312585069338,0.02973690845495013,0.038233159934289905,0.0007017927843885485,0.03819705554960888
1.0046140384627766,0.11302745450084833,0.03815572278514334,0.05542672474865837,0.012423999416335124,0.05505101034351025
1.004661120487907,0.13143773576861661,0.04566343128182608,0.07126698378066398,0.025969306802946755,0.07051724518656748
1.0047082025130374,0.140315951549541,0.05148441636057807,0.0817840112464661,0.04004647858815731,0.08067007908739597
1.0047552845381678,0.14016084842095028,0.05300281629660554,0.0846685751900148,0.05217739976416169,0.08325614911270775
1.0048023665632981,0.13271042804166153,0.05131469533283069,0.08028160564993014,0.06047029906170688,0.07866267048642646
1.0048494485884285,0.1199532079956697,0.0481562654446708,0.06958311394397716,0.0677710546889492,0.06776719075258879
1.0048965306135589,0.10352759540252561,0.04427414441261615,0.05738407400153901,0.07194791393415126,0.05543685283205124
1.0049436126386893,0.08458770500586026,0.0377054374775179,0.04469505929439128,0.07247679926701986,0.042702784038446406
1.0049906946638196,0.06411017510052013,0.03273933041200907,0.03435472552873721,0.0696665962534166,0.032411790441971476
1.00503777668895,0.043500849939608656,0.027678745207567638,0.022887706523455283,0.06419269506135969,0.021070277872834633
1.0050848587140804,0.02497562650004661,0.02292934009270027,0.013888116903115118,0.05539748421092432,0.012302796438406125
1.0051319407392107,0.011013597455985432,0.02009254757086333,0.011624969459267675,0.04446256961506792,0.010347349439087447
1.0051790227643411,0.003334338693202587,0.018315361139359332,0.009001101837417943,0.03230189603332376,0.008069394269761037
1.0052261047894715,0.0027948227754708652,0.013248787192430153,0.005716764128480125,0.020844462192398813,0.005113924540019448
1.0052731868146019,0.010164673003053454,0.008212639932217894,0.005314070387151807,0.010824067439501654,0.004999766754015508
1.0053202688397322,0.026566180290056158,0.005551441335671998,0.008193549268036414,0.0007937497755325039,0.008167232621231526
1.0053673508648626,0.05291846997433676,0.005509706058496664,0.011498759854167706,-0.004243521277865613,0.011616523522482429
1.005414432889993,0.08828034555015178,0.00854718087341792,0.017065936640710815,-0.005102571867407539,0.017206254881131994
1.0054615149151234,0.12763762777320273,0.011865927207349853,0.025647230237824777,-0.0027268111852949174,0.0257152700959817
1.0055085969402537,0.16155770115500132,0.014974059003725726,0.038076850744054896,0.0044730726311820335,0.037932572291798416
1.0055556789653841,0.18078890709766565,0.018420253921687457,0.05135766337998839,0.01497960855391092,0.0509113876371935
1.0056027609905145,0.18307418566708303,0.02029866631867262,0.06056084021799014,0.026374030395624116,0.05979937464262059
1.0056498430156449,0.1741533504439713,0.02165665103328731,0.06655908741414072,0.035446950708057576,0.06555614615450235
1.0056969250407752,0.16242605985016223,0.02195610752738943,0.07063087442771013,0.04301347467299096,0.06943324007362378
1.0057440070659056,0.15418810481596457,0.02084787534931787,0.07107575192890922,0.04639980133181957,0.06979188254726058
1.005791089091036,0.1523552110015489,0.01872917605151863,0.0660360559428213,0.0463690058890014,0.06474831841369592
1.0058381711161664,0.15691036178882456,0.017788842391904675,0.06130313889977103,0.0454591210370028,0.06003476135441807
1.0058852531412967,0.16538784679386007,0.01859384635024116,0.06307528196508604,0.043724786830038935,0.061853460770251244
1.005932335166427,0.17322460684996496,0.017361828070919343,0.06323184659303546,0.03970630166162424,0.06211517372696228
1.0059794171915575,0.17475929729964576,0.015054552371737383,0.05880087400333982,0.03381272300663183,0.05783852084519119
1.0060264992166879,0.16548577922015562,0.012996608583882154,0.05204155960234529,0.027590477415633627,0.0512462843828711
1.0060735812418182,0.1445721481217929,0.011172609498842712,0.04234591607178599,0.020259578842736357,0.04175369632988225
1.0061206632669486,0.11538472372115638,0.009524568444521812,0.03266210113426135,0.012104198875502745,0.0323020845063806
1.006167745292079,0.08342022676517998,0.007852327253894878,0.0259645785337829,0.005057132025295102,0.025808291364352927
1.0062148273172093,0.053714935068683495,0.008173427509285864,0.01794830890199036,0.0005455369690403273,0.017925099991261764
1.0062619093423397,0.029620632829972474,0.009024290105887558,0.006428025048282717,-0.0016095951992882954,0.006471807734725589
1.00630899136747,0.012907514843990737,0.010843081181379737,-0.004503164505502606,-0.00048128770004984703,-0.004487399067156707
1.0063560733926005,0.004292560353454192,0.013327011759076093,-0.010519166817943732,0.0029102628274063147,-0.010598809784117055
1.0064031554177308,0.0038095921685766332,0.01765843679531218,-0.007972360122875525,0.006529575524083241,-0.008157646050230843
1.0064502374428612,0.010924293923755681,0.025707968832058167,0.0013341291502741227,0.015047704998273365,0.0008993815235286943
1.0064973194679916,0.02453035587728399,0.03190355063544541,0.011333716656649779,0.024676171502515665,0.010620174722834535
1.006544401493122,0.042966387475684646,0.03652892952653679,0.020787738978896356,0.033688301870865904,0.019818644555448288
1.0065914835182523,0.06411092062196938,0.038014389247539644,0.03329944681240632,0.03913774875410993,0.0321824747547229
1.0066385655433827,0.08556714248621351,0.040463272632170526,0.049462130528264495,0.04178011886692078,0.04828212552837666
1.006685647568513,0.10493697207975199,0.04207065128751389,0.06485229624100503,0.041585040930339864,0.06368748883362274
1.0067327295936435,0.12014720761669652,0.042150933887995214,0.07640706666955516,0.03970858868360095,0.07529830290382168
1.0067798116187738,0.12974860817624662,0.039833069831973066,0.08294186479002422,0.03663217099250984,0.08191566081610117
1.0068268936439042,0.1331160769266914,0.038993352386792565,0.08436945777741765,0.0319931960239202,0.08346335653966538
1.0068739756690346,0.13051634907150206,0.03486132200123265,0.08386978816652868,0.02732275180416963,0.08308555600938745
1.006921057694165,0.12301693370584733,0.02843855493624585,0.08185258015702256,0.02235572454384533,0.08120007603180775
1.0069681397192953,0.11219272060745543,0.020946673740612747,0.07585112215539112,0.0163031776270352,0.07536316352074855
1.0070152217444257,0.09964098937742749,0.014337905330439157,0.06985230351433948,0.010544891822387558,0.06952506910583854
1.007062303769556,0.08648287672211809,0.009142623635885253,0.06302251331950957,0.0057197906049134,0.0628332872345934
1.0071093857946865,0.07315337862299943,0.006593536625511612,0.053521194673379444,0.0018017033299021403,0.05344727322691259
1.0071564678198168,0.05967551136841471,0.004830531149260345,0.042771215350936226,-0.0016845934996545593,0.042801977277257215
1.0072035498449472,0.046352747241279996,0.002706253141048954,0.029687677967592516,-0.0039400388715078285,0.02978911628293935
1.0072506318700776,0.03458526276589038,0.002133255276215245,0.01916866027493343,-0.004215703803069119,0.019282452151569054
1.007297713895208,0.02727830692374265,0.0028495268664250326,0.01473006896934623,-0.003859596667152916,0.014835400677075167
1.0073447959203383,0.0280866607277734,0.005358162723202923,0.01711698325886342,-0.0020598449683163515,0.017169314689965604
1.0073918779454687,0.03925806445151868,0.011669855480445896,0.028584290137595406,0.002752078319441986,0.028493169048926025
1.007438959970599,0.059562255279517966,0.019213393841093367,0.043832242766228824,0.008939091888727617,0.043558501101459486
1.0074860419957294,0.08449757331606145,0.02568836642510167,0.058037587268334905,0.015474509321600114,0.057575986011102205
1.0075331240208598,0.10858230355013457,0.030358623525576875,0.06858033205585247,0.022142923825568733,0.06793386443943727
1.0075802060459902,0.12742598805780986,0.03396553905237873,0.07621925524513734,0.026583353655809727,0.07545357962220312
1.0076272880711206,0.13840784538629322,0.03540124580079922,0.07904744927672683,0.029113704814768084,0.07821519675604638
1.007674370096251,0.14057521646913557,0.03399833516676378,0.0769603579802706,0.030541602843522225,0.0760900374406408
1.0077214521213813,0.1345761316442056,0.031713536314589334,0.07084930100861353,0.029833112665043498,0.06999631157731266
1.0077685341465117,0.12269802495893224,0.02767798160933912,0.062425783036096825,0.027111102290188233,0.06164450295287058
