freq,gls,usurper,pdc_unbiased,shape_periodogram,shift_periodogram
1.0,0.02176245538732735,0.03708712801468923,-0.007335655112181927,0.024774140601831796,-0.009984399551742745
1.0000470820251304,0.05134779247241603,0.0651885310019737,0.016081221596065367,0.045697145926210055,0.011038511759971309
1.0000941640502607,0.09689124580742478,0.09743848903819655,0.05094334186944231,0.0754130401347173,0.042604465946401736
1.0001412460753911,0.14848755125694818,0.13134799315584547,0.08456655871201842,0.1092096426285504,0.07275689782756393
1.0001883281005215,0.19664060203551523,0.1621254163522569,0.10917973127593883,0.14357298340824065,0.09416150309888456
1.0002354101256519,0.23592916525893703,0.18501625438280045,0.12678225514793529,0.17018385685928203,0.10952868676656112
1.0002824921507822,0.26363730657080775,0.19978021440931198,0.13936052532630389,0.1878844019822138,0.12078268379123504
1.0003295741759126,0.2780607972143743,0.2090154321834294,0.14663287491158739,0.19904973068584259,0.12727570377728778
1.000376656201043,0.27778293516045677,0.2124609567704488,0.14742341655727248,0.2045629707755462,0.12763390153077184
1.0004237382261734,0.2619162710265795,0.20836297536267834,0.139633635428265,0.2041790934805917,0.11969041511729664
1.0004708202513037,0.23107843684954268,0.1964529293918603,0.12167319492364326,0.19649026237294304,0.10199380034115944
1.0005179022764341,0.1884924826566669,0.18029640248394124,0.09811663264576473,0.18513278055291552,0.079035344779009
1.0005649843015645,0.1401213853463462,0.16864305974168595,0.07552593926328457,0.1768557531640187,0.05690235988564966
1.0006120663266949,0.09311329616242185,0.16238093547422505,0.056936636782797936,0.17165841454897646,0.038602569067036414
1.0006591483518252,0.05338098213176131,0.16201362830286486,0.04656239048066332,0.1679167963786516,0.028502744057831736
1.0007062303769556,0.024158292773911582,0.1611330630443149,0.0379052596807291,0.1622840127144267,0.020357482317943904
1.000753312402086,0.006389706849983347,0.1563659838759134,0.024925530867037873,0.1516391594744074,0.008422002742284128
1.0008003944272164,4.4957735270936574e-05,0.15210445113109575,0.013623927240606612,0.14052460807188047,-0.0017269611021781435
1.0008474764523467,0.004476680458159687,0.1492190023890461,0.005279248516488982,0.1375791677608566,-0.009779167558698442
1.000894558477477,0.016631009383087918,0.15668741857869858,0.00604487589630294,0.14484593075078908,-0.009817398638097425
1.0009416405026075,0.030279800796216314,0.17578907580089884,0.01614856324889533,0.163151305577417,-0.001677972256000726
1.0009887225277379,0.04019506929021177,0.20239753148152134,0.031662352407458065,0.19037514993330798,0.011026052057402926
1.0010358045528682,0.045271217739530065,0.22785267062672582,0.049643587368788454,0.22096765459935858,0.026059766343033256
1.0010828865779986,0.04665854735345898,0.24696723310561575,0.06394396252727896,0.24710231885070652,0.03802502339273387
1.001129968603129,0.04557434040645729,0.2560906259062063,0.06951556918541625,0.26237289532549085,0.0422339393819711
1.0011770506282593,0.04281463251624272,0.25252355147580724,0.06676401531502141,0.2640192451781484,0.039220060930364536
1.0012241326533897,0.03911406922799136,0.23834736290377379,0.05756222886158259,0.2542471390152762,0.030712797622839707
1.00127121467852,0.035734840091298535,0.218491897440784,0.04469056838221148,0.23844222602090603,0.019135587987485686
1.0013182967036505,0.034632288517627896,0.2030042510662337,0.03354469161607427,0.22632095070907382,0.009031179660420609
1.0013653787287808,0.03686446430802818,0.20134528988171438,0.03235087082016887,0.22437822994546888,0.008023729476548535
1.0014124607539112,0.040499198873267514,0.21245561047446385,0.04235422606047071,0.23317232106625027,0.017304443921357146
1.0014595427790416,0.04245011553894062,0.2284448073007939,0.05148956578485458,0.2473582863296182,0.025176195748160716
1.001506624804172,0.04142424671447975,0.23974447475690383,0.057489670337512934,0.25580261138033344,0.030476521475762672
1.0015537068293023,0.03772147907862947,0.24200514070963747,0.05838903434484734,0.2530684589326103,0.031687686745452075
1.0016007888544327,0.032149333674356434,0.23260970882738036,0.05286952532393206,0.23773114642539095,0.027605239984315653
1.001647870879563,0.025799799790141527,0.21100224551600033,0.040386054375886556,0.209970067138661,0.017780717630765462
1.0016949529046935,0.020580986012262138,0.1811790562741862,0.02276083148008517,0.17614187269245526,0.0035670431634490414
1.0017420349298238,0.01993155776046648,0.15812836977461742,0.008396000375120035,0.14906443793462407,-0.007923130640962912
1.0017891169549542,0.027489951613850306,0.15058898981490457,0.00883020356959996,0.14120717547503367,-0.006616385372200591
1.0018361989800846,0.042074300128446054,0.15449025905991942,0.022145335055818467,0.1487378271539669,0.005939755612106764
1.001883281005215,0.05845891480384451,0.16917360355520292,0.04104344236602053,0.1671983825306665,0.02300306759675524
1.0019303630303453,0.07582159493280267,0.1851440116540378,0.05832937685591873,0.18711812437900818,0.03842190400827319
1.0019774450554757,0.09824195100672209,0.19275522566551875,0.07041397317164165,0.20218050049655498,0.049181881476754466
1.002024527080606,0.1303669711588208,0.18608748837455127,0.07896421651578898,0.20385850281615608,0.05773173702982021
1.0020716091057364,0.17464242099810953,0.17493981622997284,0.08832693698111686,0.19977043588850354,0.06767540886490683
1.0021186911308668,0.22917237164395338,0.17728750053720363,0.11355266104308831,0.2021488606517666,0.09319753347215103
1.0021657731559972,0.2864808872447173,0.19033218182922945,0.14880372324738836,0.21195537449927312,0.12845107724678168
1.0022128551811276,0.335488571803669,0.20386569504611718,0.17945522269565434,0.22250409066871102,0.15917106014934101
1.002259937206258,0.3667004160945303,0.21135527607975363,0.20044309409803335,0.2276456810362948,0.18047901096748667
1.0023070192313883,0.37630521047742305,0.2112387318343534,0.20989430295355302,0.22537756816561505,0.1903846519669369
1.0023541012565187,0.3658732131217113,0.20408367910887507,0.20800353236518512,0.2162460356282393,0.18900857573469118
1.002401183281649,0.3393357840705059,0.192210464947996,0.19716291122807472,0.20175853193287527,0.1788283400359098
1.0024482653067794,0.30043566038503033,0.1763186926949472,0.1783931936762516,0.18051170302455952,0.16118216305602967
1.0024953473319098,0.25183659939415354,0.15485281388347383,0.15384153094853617,0.15099196730585493,0.13863728457727845
1.0025424293570402,0.1956066522565673,0.12429647232638302,0.12081929242955049,0.11386070292999355,0.10869485847029148
1.0025895113821706,0.13475970805500284,0.08576971298486541,0.07564140824241966,0.06823543336016678,0.06800430391430258
1.002636593407301,0.07582916802294695,0.05005366218220215,0.025728531183742454,0.027733814536111154,0.02257727449418909
1.0026836754324313,0.03145358980808763,0.03249556905966709,-0.0040036080406334615,0.01193624772930339,-0.005276010172482648
1.0027307574575617,0.01779891286180085,0.038471362456193585,-0.006351274616742859,0.026510665680998354,-0.009194550130685201
1.002777839482692,0.04358985242398123,0.056172682415370975,0.006591376950054447,0.05933349841863817,0.00011187917794588099
1.0028249215078224,0.1037077589167159,0.09017501871783876,0.04281328660270074,0.0991870156062214,0.03197359349851952
1.0028720035329528,0.18101238562213362,0.13565628936875807,0.0979436666785688,0.13894109072781144,0.08327294050122436
1.0029190855580832,0.25636899888384335,0.17678088490377925,0.15380629462607742,0.17071906894305067,0.13693357451134283
1.0029661675832136,0.31832235074100634,0.20600025823602056,0.19704252226634572,0.1902621809481623,0.17951049268554206
1.003013249608344,0.36361141655314383,0.22337914742211462,0.228525784613192,0.20149448883176188,0.2110426742877148
1.0030603316334743,0.39341420767750745,0.23277960647293935,0.24979870354304085,0.20641513846372134,0.23263416299789785
1.0031074136586047,0.4102870696014962,0.23609995354306562,0.26258314989231946,0.20731812808759745,0.24575232733554178
1.003154495683735,0.41662904201390033,0.2350451728878602,0.266777273312063,0.20451477361960335,0.250214380940438
1.0032015777088654,0.41405085665469693,0.22995121778558436,0.26326150551395927,0.19806854567434176,0.24693141751283848
1.0032486597339958,0.4030953535584088,0.2206548788989203,0.251751202986526,0.18769502944557256,0.23569485299753012
1.0032957417591262,0.38301151602067063,0.20682687418159962,0.2324239377319079,0.1732430450205955,0.21682445295667868
1.0033428237842565,0.3514583105172215,0.18793123297113215,0.2047530276495091,0.1544497277269981,0.1899803955345149
1.003389905809387,0.3042863356687068,0.16359795743201658,0.16911475512504195,0.13176012491681274,0.15572048502743052
1.0034369878345173,0.2364892670841809,0.13465727673900968,0.12615890065588273,0.10579071856926837,0.11482360957384996
1.0034840698596477,0.14805992805189566,0.10369232510399336,0.07745804013496241,0.07888403693312322,0.06872097704386573
1.003531151884778,0.05937981673678241,0.08246177904783734,0.035632586371168055,0.06054118715107436,0.02891350614404731
1.0035782339099084,0.016571701488668728,0.08226874975694341,0.012038086514572617,0.06058773442822842,0.005400620191016916
1.0036253159350388,0.04141534161646615,0.108963956084889,0.014399178728297872,0.0858481287712193,0.005014868829143429
1.0036723979601692,0.0978579156313711,0.15298400881221558,0.03595348541122598,0.12901568001384292,0.02193708274132542
1.0037194799852995,0.14599333246590304,0.20408707884176233,0.06503465797160808,0.17740347168933193,0.04621403778358778
1.00376656201043,0.17300879075255565,0.24532368291465897,0.0922030709843016,0.21946296892700431,0.06976124452669011
1.0038136440355603,0.18229222765708752,0.272740323520194,0.11374971918924169,0.24712783870218596,0.08941449255803452
1.0038607260606907,0.18262972424027749,0.28667777620440626,0.12736778710133306,0.2643215111432564,0.10207507880323585
1.003907808085821,0.18292620727983336,0.2920895026306543,0.13485525602086357,0.2742460189461169,0.10907612596558909
1.0039548901109514,0.18798821740501145,0.29304141741405576,0.13913083302593265,0.27764523632068916,0.11327619355341688
1.0040019721360818,0.19658928748535154,0.2879779381227649,0.1397247738744464,0.275031261866151,0.11409846848905585
1.0040490541612122,0.20361099360789395,0.2777539670708206,0.1356935801867525,0.2679691459502994,0.11044617739302715
1.0040961361863425,0.20356945018764083,0.26131697487319494,0.1287855413388881,0.2554921149549587,0.10427302566459269
1.004143218211473,0.19261735903368254,0.2393203961451878,0.11776025800915435,0.2380598011714351,0.09434406683500246
1.0041903002366033,0.1692114287165738,0.20988989538112607,0.09836742477706704,0.21267264657262866,0.07670956712986417
1.0042373822617336,0.13469585530973552,0.17628332773359892,0.07519967777083232,0.18159379378465093,0.05610056557064192
1.004284464286864,0.094068350002802,0.14341708010559626,0.051842634052145065,0.14960172789532308,0.03574547591904711
1.0043315463119944,0.0558705414627791,0.11417877379086261,0.03082107495389939,0.1185546581845404,0.01790736517282754
1.0043786283371248,0.029785725493520713,0.09548022057828585,0.019809015244991575,0.09451401036014057,0.009477954085543234
1.0044257103622551,0.022326134922130727,0.08740951297441628,0.01684685304795892,0.07990842079359553,0.008100939731987158
1.0044727923873855,0.03362727707623793,0.08870571208636359,0.01768087969631584,0.07622433080445394,0.009331433903433824
1.004519874412516,0.057935866130881315,0.09788828900242084,0.0238553638180855,0.08221127597350031,0.014845405658273894
1.0045669564376463,0.08691312585069338,0.11516303667043074,0.038233159934289905,0.0990797105149249,0.027404135301134266
1.0046140384627766,0.11302745450084833,0.13757597245293723,0.05542672474865837,0.12519914099941667,0.04188622672725559
1.004661120487907,0.13143773576861661,0.15976899602450556,0.07126698378066398,0.15385698549975066,0.054896377921601035
1.0047082025130374,0.140315951549541,0.17856121599688943,0.0817840112464661,0.17984108877997815,0.06295486832897884
1.0047552845381678,0.14016084842095028,0.1878636104644204,0.0846685751900148,0.19849066278802016,0.06407014070818298
1.0048023665632981,0.13271042804166153,0.18772138769094618,0.08028160564993014,0.2079469261313359,0.05867575096802339
1.0048494485884285,0.1199532079956697,0.18032698316030701,0.06958311394397716,0.21019161913496995,0.04753212792344371
1.0048965306135589,0.10352759540252561,0.16958164964689687,0.05738407400153901,0.20424633829406877,0.035697609457553
1.0049436126386893,0.08458770500586026,0.15464598949129083,0.04469505929439128,0.19114917887381025,0.02416401527114364
1.0049906946638196,0.06411017510052013,0.1395520869831155,0.03435472552873721,0.17422280132068235,0.01549444206717516
1.00503777668895,0.043500849939608656,0.12229779186687627,0.022887706523455283,0.15432794976964373,0.006078213547165411
1.0050848587140804,0.02497562650004661,0.10287041793500742,0.013888116903115118,0.13113084825861918,-0.00043111717921866184
1.0051319407392107,0.011013597455985432,0.0865732169065069,0.011624969459267675,0.10908817234622474,-0.00028660959093215115
1.0051790227643411,0.003334338693202587,0.07136079953510854,0.009001101837417943,0.08599627986088008,-0.0003884021886258959
1.0052261047894715,0.0027948227754708652,0.05275255849169585,0.005716764128480125,0.060156559240735916,-0.0008486949815534595
1.0052731868146019,0.010164673003053454,0.03667077602271907,0.005314070387151807,0.03715479614271807,0.0012503040849813226
1.0053202688397322,0.026566180290056158,0.025816804478927136,0.008193549268036414,0.020119825308695383,0.005962417771155116
1.0053673508648626,0.05291846997433676,0.020158659964131725,0.011498759854167706,0.010688894093387876,0.010271287621007395
1.005414432889993,0.08828034555015178,0.018246026090720405,0.017065936640710815,0.006879789000354675,0.016218979463689387
1.0054615149151234,0.12763762777320273,0.02017834104608898,0.025647230237824777,0.008633314061290108,0.02456038314366301
1.0055085969402537,0.16155770115500132,0.027116107626600612,0.038076850744054896,0.019138763422058447,0.0357853424661628
1.0055556789653841,0.18078890709766565,0.03693896516740884,0.05135766337998839,0.035053745194564376,0.0472925310724987
1.0056027609905145,0.18307418566708303,0.04482999832155949,0.06056084021799014,0.052190919451141,0.05464096219628018
1.0056498430156449,0.1741533504439713,0.05192644864937986,0.06655908741414072,0.0669062554249102,0.05907910983649466
1.0056969250407752,0.16242605985016223,0.05763982074899623,0.07063087442771013,0.0796915698636587,0.06181697609934741
1.0057440070659056,0.15418810481596457,0.06013933452755746,0.07107575192890922,0.08852798721681882,0.061350368817773206
1.005791089091036,0.1523552110015489,0.05919966378974456,0.0660360559428213,0.09248963198602643,0.055901745154717734
1.0058381711161664,0.15691036178882456,0.05948389720270505,0.06130313889977103,0.09381652225039946,0.05103033984209016
1.0058852531412967,0.16538784679386007,0.06302794694145304,0.06307528196508604,0.09406493024537343,0.052777206049241014
1.005932335166427,0.17322460684996496,0.06481962522706544,0.06323184659303546,0.0918710562384624,0.053161117623333955
1.0059794171915575,0.17475929729964576,0.06232066209539636,0.05880087400333982,0.08560007487052439,0.049383635303590176
1.0060264992166879,0.16548577922015562,0.05740335774051272,0.05204155960234529,0.0770567118961197,0.043527660554181995
1.0060735812418182,0.1445721481217929,0.051049246121607765,0.04234591607178599,0.06607147379787015,0.03501622302335276
1.0061206632669486,0.11538472372115638,0.045789993095134505,0.03266210113426135,0.05551776308920411,0.026491318094451027
1.006167745292079,0.08342022676517998,0.043056039513272824,0.0259645785337829,0.04714531961676323,0.020720632189888885
1.0062148273172093,0.053714935068683495,0.04377118572685835,0.01794830890199036,0.042018707981714094,0.013294389422116607
1.0062619093423397,0.029620632829972474,0.044830365407084474,0.006428025048282717,0.03929166497143976,0.00212654277956132
1.00630899136747,0.012907514843990737,0.04463953769832305,-0.004503164505502606,0.03736025616933971,-0.008537851861321848
1.0063560733926005,0.004292560353454192,0.04665992362399197,-0.010519166817943732,0.03835822362980781,-0.01463072229857228
1.0064031554177308,0.0038095921685766332,0.05107294273419716,-0.007972360122875525,0.041362081355810175,-0.01242519205333842
1.0064502374428612,0.010924293923755681,0.06291042447524393,0.0013341291502741227,0.05256562359568814,-0.004385981535558506
1.0064973194679916,0.02453035587728399,0.07633922354166847,0.011333716656649779,0.06749921773461989,0.003949133387038048
1.006544401493122,0.042966387475684646,0.08847785731746913,0.020787738978896356,0.08255436744658282,0.011747048440170813
1.0065914835182523,0.06411092062196938,0.09868273523623249,0.03329944681240632,0.09504216924883975,0.02290151933817725
1.0066385655433827,0.08556714248621351,0.1102853330739099,0.049462130528264495,0.10644723763422234,0.03786293489284696
1.006685647568513,0.10493697207975199,0.11883015177431618,0.06485229624100503,0.11520370036130827,0.052376457450638535
1.0067327295936435,0.12014720761669652,0.1227756243940057,0.07640706666955516,0.11970770764249768,0.06351263260497697
1.0067798116187738,0.12974860817624662,0.12122024790751568,0.08294186479002422,0.11845192997801379,0.07020020726749022
1.0068268936439042,0.1331160769266914,0.11656434593891167,0.08436945777741765,0.11184753520406404,0.07229464067417267
1.0068739756690346,0.13051634907150206,0.10827305308222762,0.08386978816652868,0.10248282207567144,0.07273485690167177
1.006921057694165,0.12301693370584733,0.09574403447743339,0.08185258015702256,0.0891261890742309,0.07206750382360669
1.0069681397192953,0.11219272060745543,0.08023701606883003,0.07585112215539112,0.07349866688899606,0.06767013874933686
1.0070152217444257,0.09964098937742749,0.06429844987578778,0.06985230351433948,0.0576420035179988,0.0633304061100001
1.007062303769556,0.08648287672211809,0.051407325328274286,0.06302251331950957,0.04479271303698347,0.05787347108807525
1.0071093857946865,0.07315337862299943,0.041645711784792525,0.053521194673379444,0.0347783258259267,0.049475259372401374
1.0071564678198168,0.05967551136841471,0.034409001961199844,0.042771215350936226,0.027447438391339705,0.03956179846048723
1.0072035498449472,0.046352747241279996,0.02897636892064957,0.029687677967592516,0.0232100414428113,0.0270031393254046
1.0072506318700776,0.03458526276589038,0.02702590709517426,0.01916866027493343,0.022580512531213716,0.01660962605333758
1.007297713895208,0.02727830692374265,0.02927056707228754,0.01473006896934623,0.024365420522307064,0.012002347517150645
1.0073447959203383,0.0280866607277734,0.03744896310014233,0.01711698325886342,0.03135509858810366,0.013620038822694984
1.0073918779454687,0.03925806445151868,0.05477936217523904,0.028584290137595406,0.04640024043841794,0.023408862607059024
1.007438959970599,0.059562255279517966,0.07654833392499251,0.043832242766228824,0.0648152264516096,0.03663166323853978
1.0074860419957294,0.08449757331606145,0.09735648424551907,0.058037587268334905,0.08460096659279685,0.04872521076713385
1.0075331240208598,0.10858230355013457,0.1141490493283214,0.06858033205585247,0.1020964396107572,0.057458640173257344
1.0075802060459902,0.12742598805780986,0.12416762023965541,0.07621925524513734,0.11329163892120907,0.06397304353923185
1.0076272880711206,0.13840784538629322,0.12667545266372865,0.07904744927672683,0.11760934769581782,0.06637499194924971
1.007674370096251,0.14057521646913557,0.12124862077171074,0.0769603579802706,0.11607978348148315,0.06443453803896049
1.0077214521213813,0.1345761316442056,0.11011550582377638,0.07084930100861353,0.10866645039485279,0.0590589592046839
1.0077685341465117,0.12269802495893224,0.09442981056994167,0.062425783036096825,0.09523853189627825,0.05200587729165078
1.007815616171642,0.10844877640211482,0.07857892300899287,0.054884533548136764,0.07823125687837892,0.046242599419819196
