freq,gls,usurper,pdc_unbiased,shape_periodogram,shift_periodogram
1.0,0.02176245538732735,0.01956889145635729,-0.007335655112181927,0.006305003881533081,-0.007432577665794673
1.0000470820251304,0.05134779247241603,0.019201945083819096,0.016081221596065367,0.0031529246632200324,0.016030553348911746
1.0000941640502607,0.09689124580742478,0.02208266899210405,0.05094334186944231,0.0020356510152053616,0.05090594196089805
1.0001412460753911,0.14848755125694818,0.024617201066979205,0.08456655871201842,0.007765008606923699,0.08444002099021693
1.0001883281005215,0.19664060203551523,0.028051855988170882,0.10917973127593883,0.017084774208008552,0.10892256475822185
1.0002354101256519,0.23592916525893703,0.032255677408858964,0.12678225514793529,0.02413627555322813,0.1264386203320443
1.0002824921507822,0.26363730657080775,0.03366897918495326,0.13936052532630389,0.027896130550616013,0.1389775552902431
1.0003295741759126,0.2780607972143743,0.0345593550457172,0.14663287491158739,0.029741929602237496,0.14623300581450183
1.000376656201043,0.27778293516045677,0.035294387644251454,0.14742341655727248,0.03127944911657192,0.14700764002817465
1.0004237382261734,0.2619162710265795,0.03372125984787691,0.139633635428265,0.03162931491723547,0.13920978922674984
1.0004708202513037,0.23107843684954268,0.030694604691183486,0.12167319492364326,0.029872297059517987,0.12125961649207738
1.0005179022764341,0.1884924826566669,0.026931403646780688,0.09811663264576473,0.0272858259032305,0.09772442382894704
1.0005649843015645,0.1401213853463462,0.025052447563328303,0.07552593926328457,0.024255251405974357,0.07516640512728029
1.0006120663266949,0.09311329616242185,0.024694876046039777,0.056936636782797936,0.02129723282077958,0.05661433242960142
1.0006591483518252,0.05338098213176131,0.02677989173644888,0.04656239048066332,0.01847177946132335,0.04627949665022848
1.0007062303769556,0.024158292773911582,0.029309309315109708,0.0379052596807291,0.015528576687346283,0.03766523492721616
1.000753312402086,0.006389706849983347,0.03274368832117138,0.024925530867037873,0.01096122157697028,0.024754399223824067
1.0008003944272164,4.4957735270936574e-05,0.03565945625229684,0.013623927240606612,0.008771582971876964,0.013486979737365906
1.0008474764523467,0.004476680458159687,0.03457062073285915,0.005279248516488982,0.009815907710842252,0.005126822507213117
1.000894558477477,0.016631009383087918,0.03869261216642295,0.00604487589630294,0.012409025146932161,0.005852398963877881
1.0009416405026075,0.030279800796216314,0.04376005548456048,0.01614856324889533,0.017188768514558018,0.015882825179376576
1.0009887225277379,0.04019506929021177,0.04922849794928731,0.031662352407458065,0.023990328081295136,0.03129650434378727
1.0010358045528682,0.045271217739530065,0.0515876383253424,0.049643587368788454,0.0317797150521086,0.049171963924124984
1.0010828865779986,0.04665854735345898,0.053858403800170346,0.06394396252727896,0.041022924309012374,0.06335786259822343
1.001129968603129,0.04557434040645729,0.05480050818016037,0.06951556918541625,0.04869144418183176,0.06883971916571069
1.0011770506282593,0.04281463251624272,0.053626732592852035,0.06676401531502141,0.05195674987920955,0.06604537123065668
1.0012241326533897,0.03911406922799136,0.04915907764722182,0.05756222886158259,0.050765231698825034,0.056845916913692125
1.00127121467852,0.035734840091298535,0.04251580833539638,0.04469056838221148,0.04741498169308959,0.044002329479117294
1.0013182967036505,0.034632288517627896,0.035835766537745666,0.03354469161607427,0.044304205677591794,0.03288780355154579
1.0013653787287808,0.03686446430802818,0.032109561564727274,0.03235087082016887,0.042483134321357106,0.031718560060171146
1.0014124607539112,0.040499198873267514,0.033294053958942874,0.04235422606047071,0.043384026606149644,0.041718135862557786
1.0014595427790416,0.04245011553894062,0.03676919579645823,0.05148956578485458,0.04620399436272778,0.050824660963543426
1.001506624804172,0.04142424671447975,0.03786606797440863,0.057489670337512934,0.04616780777606102,0.056831570839304554
1.0015537068293023,0.03772147907862947,0.03798495069830822,0.05838903434484734,0.04263507606284482,0.05777734392630686
1.0016007888544327,0.032149333674356434,0.03674341940356025,0.05286952532393206,0.036921465428772206,0.052329248317157434
1.001647870879563,0.025799799790141527,0.03466281151571363,0.040386054375886556,0.028642673099327293,0.03995498929353929
1.0016949529046935,0.020580986012262138,0.030132651793011955,0.02276083148008517,0.019304881814489045,0.022463488032340034
1.0017420349298238,0.01993155776046648,0.02854318896788148,0.008396000375120035,0.012689046677016806,0.008199123520391127
1.0017891169549542,0.027489951613850306,0.02809063680140955,0.00883020356959996,0.012075582189947979,0.008642748209795709
1.0018361989800846,0.042074300128446054,0.028205803137255635,0.022145335055818467,0.015344999357576989,0.02190774064968818
1.001883281005215,0.05845891480384451,0.032017286876163516,0.04104344236602053,0.022990788005650954,0.04069403538399567
1.0019303630303453,0.07582159493280267,0.035119213184508315,0.05832937685591873,0.030021672293185697,0.057885731584493526
1.0019774450554757,0.09824195100672209,0.0339440789177447,0.07041397317164165,0.034697556764253706,0.06991396489330277
1.002024527080606,0.1303669711588208,0.028187486230891283,0.07896421651578898,0.037577933708281074,0.0784331814407566
1.0020716091057364,0.17464242099810953,0.022580652062146878,0.08832693698111686,0.039493239372635165,0.08777973278258164
1.0021186911308668,0.22917237164395338,0.022175600167046054,0.11355266104308831,0.04283416709773287,0.11299082008309787
1.0021657731559972,0.2864808872447173,0.024707921913410133,0.14880372324738836,0.04781038190572204,0.1482358330974388
1.0022128551811276,0.335488571803669,0.027123936357847548,0.17945522269565434,0.053638827338526894,0.1788924710601947
1.002259937206258,0.3667004160945303,0.02853264654422248,0.20044309409803335,0.05846364874619919,0.19989649746911867
1.0023070192313883,0.37630521047742305,0.028783499324201905,0.20989430295355302,0.061399365575990975,0.20935878346988315
1.0023541012565187,0.3658732131217113,0.027917807324488158,0.20800353236518512,0.06264389328570719,0.20746130188234851
1.002401183281649,0.3393357840705059,0.027763041377828084,0.19716291122807472,0.06251170016451205,0.19659720604292644
1.0024482653067794,0.30043566038503033,0.028055754705169245,0.1783931936762516,0.05802839821267384,0.17780614588941554
1.0024953473319098,0.25183659939415354,0.02593253155001622,0.15384153094853617,0.04829788289610598,0.153276343291901
1.0025424293570402,0.1956066522565673,0.022175593683763112,0.12081929242955049,0.034669719592151566,0.12035095130731878
1.0025895113821706,0.13475970805500284,0.018972457697055623,0.07564140824241966,0.01826251866340353,0.07536441584700052
1.002636593407301,0.07582916802294695,0.018238305971857587,0.025728531183742454,0.004784460734676629,0.02565170320959055
1.0026836754324313,0.03145358980808763,0.017663598524499696,-0.0040036080406334615,0.002199648106668913,-0.0040372086326551
1.0027307574575617,0.01779891286180085,0.019724627961492557,-0.006351274616742859,0.012518538539191408,-0.0065449222715108875
1.002777839482692,0.04358985242398123,0.01861614356631219,0.006591376950054447,0.02567511407514545,0.006194951979738416
1.0028249215078224,0.1037077589167159,0.02304428575733932,0.04281328660270074,0.03883233969210222,0.04224008970626593
1.0028720035329528,0.18101238562213362,0.03409460400761067,0.0979436666785688,0.0444831129718427,0.09734826710401825
1.0029190855580832,0.25636899888384335,0.045276424495405074,0.15380629462607742,0.048596620884297406,0.15323876089736904
1.0029661675832136,0.31832235074100634,0.05078220514049894,0.19704252226634572,0.04950758806217339,0.19652869687842603
1.003013249608344,0.36361141655314383,0.05436709540433673,0.228525784613192,0.048014616789201776,0.22806275721399413
1.0030603316334743,0.39341420767750745,0.055331146757555544,0.24979870354304085,0.047121056810444734,0.24936756416863332
1.0031074136586047,0.4102870696014962,0.054545616521643914,0.26258314989231946,0.04590909059811009,0.26217223187112865
1.003154495683735,0.41662904201390033,0.05347228511094909,0.266777273312063,0.043815490270267814,0.2663775191221541
1.0032015777088654,0.41405085665469693,0.05185202718458143,0.26326150551395927,0.040856375758038986,0.262868080550017
1.0032486597339958,0.4030953535584088,0.04936251819939679,0.251751202986526,0.03696024008601711,0.2513647508332252
1.0032957417591262,0.38301151602067063,0.045917106203573074,0.2324239377319079,0.03199085300700039,0.23205393294289553
1.0033428237842565,0.3514583105172215,0.04114678481915344,0.2047530276495091,0.02588155869393278,0.2044191046319139
1.003389905809387,0.3042863356687068,0.03506840753971469,0.16911475512504195,0.01894630771364058,0.1688434919186471
1.0034369878345173,0.2364892670841809,0.027723786203159597,0.12615890065588273,0.011100534758242119,0.12598378276640948
1.0034840698596477,0.14805992805189566,0.0198565462413144,0.07745804013496241,0.0026733034437590717,0.07740804099036426
1.003531151884778,0.05937981673678241,0.014754308208078784,0.035632586371168055,-0.0037159397472238116,0.03568601209981289
1.0035782339099084,0.016571701488668728,0.014998128080316897,0.012038086514572617,-0.005565329251694579,0.012123016807139564
1.0036253159350388,0.04141534161646615,0.02218978938173376,0.014399178728297872,-0.0003788585871178119,0.014403319199162394
1.0036723979601692,0.0978579156313711,0.032781403477879535,0.03595348541122598,0.011684000838600963,0.035770983018350286
1.0037194799852995,0.14599333246590304,0.04644478952767154,0.06503465797160808,0.024812098142783134,0.0646648015656046
1.00376656201043,0.17300879075255565,0.055912906088731826,0.0922030709843016,0.03673270249045092,0.09169167839903833
1.0038136440355603,0.18229222765708752,0.06316977559805874,0.11374971918924169,0.044520713776801196,0.11317067165592079
1.0038607260606907,0.18262972424027749,0.06666286771522205,0.12736778710133306,0.04842607902343027,0.12676705880769734
1.003907808085821,0.18292620727983336,0.0700816050228317,0.13485525602086357,0.05112403709200066,0.13424123821003894
1.0039548901109514,0.18798821740501145,0.07187042219015713,0.13913083302593265,0.052861493095603736,0.13850912169149446
1.0040019721360818,0.19658928748535154,0.07247435475447554,0.1397247738744464,0.05307775450061588,0.1391022894001515
1.0040490541612122,0.20361099360789395,0.06842012829887871,0.1356935801867525,0.05216611481473664,0.13507220500539147
1.0040961361863425,0.20356945018764083,0.060293803278462614,0.1287855413388881,0.04920940060517868,0.12817962277741773
1.004143218211473,0.19261735903368254,0.052685120954417096,0.11776025800915435,0.04598039506001437,0.11717100291271283
1.0041903002366033,0.1692114287165738,0.044292542642019886,0.09836742477706704,0.04036623910017629,0.0978184345684194
1.0042373822617336,0.13469585530973552,0.03586064967903623,0.07519967777083232,0.03176517934618651,0.0747403188913799
1.004284464286864,0.094068350002802,0.027390150529522428,0.051842634052145065,0.022720015986979997,0.051499170310946245
1.0043315463119944,0.0558705414627791,0.01930894564196426,0.03082107495389939,0.012621355962052005,0.030624593005254934
1.0043786283371248,0.029785725493520713,0.014579232916745526,0.019809015244991575,0.002918980161072418,0.019761536093422793
1.0044257103622551,0.022326134922130727,0.013367200972868446,0.01684685304795892,-0.004050891018862222,0.016907691566659434
1.0044727923873855,0.03362727707623793,0.014730720763530492,0.01768087969631584,-0.0064711183499852,0.01777931993447539
1.004519874412516,0.057935866130881315,0.01715614018452064,0.0238553638180855,-0.005001249181395462,0.02393020426393176
1.0045669564376463,0.08691312585069338,0.020942532471124934,0.038233159934289905,0.0008250885184254823,0.0382158402674852
1.0046140384627766,0.11302745450084833,0.025205280457727717,0.05542672474865837,0.01122348788175892,0.05525051376238645
1.004661120487907,0.13143773576861661,0.030063839824565952,0.07126698378066398,0.023090859432591208,0.07092232793694843
1.0047082025130374,0.140315951549541,0.034089782381696535,0.0817840112464661,0.035182786078092124,0.08128470589506148
1.0047552845381678,0.14016084842095028,0.03396223204652878,0.0846685751900148,0.04542298636679134,0.08404852795275233
1.0048023665632981,0.13271042804166153,0.03134533414815057,0.08028160564993014,0.052831776698164884,0.07957192926237378
1.0048494485884285,0.1199532079956697,0.025942692628258084,0.06958311394397716,0.05845985774545623,0.06879285806744533
1.0048965306135589,0.10352759540252561,0.0225907669138224,0.05738407400153901,0.06017608794232432,0.05655178324191686
1.0049436126386893,0.08458770500586026,0.01887060215526839,0.04469505929439128,0.05750831295462308,0.04387400466302863
1.0049906946638196,0.06411017510052013,0.01639077676710722,0.03435472552873721,0.05174400329964412,0.03359544759146626
1.00503777668895,0.043500849939608656,0.013452638307415393,0.022887706523455283,0.044536662518059066,0.02221766120571614
1.0050848587140804,0.02497562650004661,0.010584628444175783,0.013888116903115118,0.036635111578437525,0.01332808576173341
1.0051319407392107,0.011013597455985432,0.00988538248102908,0.011624969459267675,0.028031936797751473,0.011193850722357353
1.0051790227643411,0.003334338693202587,0.010902930309605628,0.009001101837417943,0.018036674668148754,0.008722090352151799
1.0052261047894715,0.0027948227754708652,0.008631910821931444,0.005716764128480125,0.007732719497547089,0.00559647357280308
1.0052731868146019,0.010164673003053454,0.00718443620939577,0.005314070387151807,-1.624778490157473e-05,0.005313684523272839
1.0053202688397322,0.026566180290056158,0.00839200397140339,0.008193549268036414,-0.005534180586782404,0.008278407369269634
1.0053673508648626,0.05291846997433676,0.009857150798248185,0.011498759854167706,-0.007443118692879697,0.011612970990200566
1.005414432889993,0.08828034555015178,0.01078683138187806,0.017065936640710815,-0.006498728536193304,0.01716487151395324
1.0054615149151234,0.12763762777320273,0.011822710897066028,0.025647230237824777,-0.003076537520960345,0.02569188445706792
1.0055085969402537,0.16155770115500132,0.012596666968464789,0.038076850744054896,0.0031692222205329324,0.03802349598625087
1.0055556789653841,0.18078890709766565,0.014655252572089137,0.05135766337998839,0.011321710086567276,0.05118011031992637
1.0056027609905145,0.18307418566708303,0.015171519177559066,0.06056084021799014,0.019472657035200937,0.06026500949844216
1.0056498430156449,0.1741533504439713,0.016430043849255272,0.06655908741414072,0.027302906633075108,0.06615556606284097
1.0056969250407752,0.16242605985016223,0.016952597703926913,0.07063087442771013,0.03490939289745268,0.07012824981964635
1.0057440070659056,0.15418810481596457,0.015477549239192574,0.07107575192890922,0.039496180911665575,0.07051481986891014
1.005791089091036,0.1523552110015489,0.011667220192069576,0.0660360559428213,0.0415212585407583,0.06544537278086393
1.0058381711161664,0.15691036178882456,0.009273348473472815,0.06130313889977103,0.042461118975110415,0.06069630354226459
1.0058852531412967,0.16538784679386007,0.008744945907618288,0.06307528196508604,0.04119798373301365,0.06248620806685162
1.005932335166427,0.17322460684996496,0.00986350890148337,0.06323184659303546,0.03838789178156519,0.06267921977697197
1.0059794171915575,0.17475929729964576,0.010280883912827622,0.05880087400333982,0.034105677056444655,0.05830207147013558
1.0060264992166879,0.16548577922015562,0.009690168733611252,0.05204155960234529,0.029641683810232706,0.05160065185827529
1.0060735812418182,0.1445721481217929,0.008951960050816016,0.04234591607178599,0.023883318716034458,0.041983838916734496
1.0061206632669486,0.11538472372115638,0.007370493943929836,0.03266210113426135,0.016536468769397683,0.03240687423875972
1.006167745292079,0.08342022676517998,0.006617318987244095,0.0259645785337829,0.00943403727578289,0.025816629828971916
1.0062148273172093,0.053714935068683495,0.00814175431142991,0.01794830890199036,0.004677373435512409,0.017873935316353673
1.0062619093423397,0.029620632829972474,0.01049273055152647,0.006428025048282717,0.0008626005728865247,0.0064138956466065706
1.00630899136747,0.012907514843990737,0.012974369548550054,-0.004503164505502606,-0.0013692898650619378,-0.004481419161799052
1.0063560733926005,0.004292560353454192,0.016472426792458805,-0.010519166817943732,-0.001573817222921408,-0.010493543956249084
1.0064031554177308,0.0038095921685766332,0.021416569827263532,-0.007972360122875525,-0.0015444923987845496,-0.007947491686504599
1.0064502374428612,0.010924293923755681,0.028383039009514634,0.0013341291502741227,0.001546080100898536,0.001310022346346603
1.0064973194679916,0.02453035587728399,0.03371100739978363,0.011333716656649779,0.006291413259294296,0.011235145696586915
1.006544401493122,0.042966387475684646,0.03704013012183942,0.020787738978896356,0.010331582491465659,0.0206264159080319
1.0065914835182523,0.06411092062196938,0.03839084910004446,0.03329944681240632,0.013820382852634192,0.0330848920674475
1.0066385655433827,0.08556714248621351,0.041181658593442416,0.049462130528264495,0.017485518129183603,0.04919385526294658
1.006685647568513,0.10493697207975199,0.04343450515323129,0.06485229624100503,0.019883372056160514,0.06455119981811971
1.0067327295936435,0.12014720761669652,0.04395137447322384,0.07640706666955516,0.021967170344446153,0.07607890145546319
1.0067798116187738,0.12974860817624662,0.04106029146410576,0.08294186479002422,0.02266638639900271,0.0826055647511036
1.0068268936439042,0.1331160769266914,0.03838204393424524,0.08436945777741765,0.022528188356183913,0.08403533218855366
1.0068739756690346,0.13051634907150206,0.03458742410628882,0.08386978816652868,0.02054907301919998,0.08356235767413098
1.006921057694165,0.12301693370584733,0.030508432910635826,0.08185258015702256,0.017219741675989313,0.081590780405078
1.0069681397192953,0.11219272060745543,0.024757646909073453,0.07585112215539112,0.01282765114213619,0.07565127372403854
1.0070152217444257,0.09964098937742749,0.019213963220076905,0.06985230351433948,0.007491982156620667,0.0697307093934593
1.007062303769556,0.08648287672211809,0.014845743168253253,0.06302251331950957,0.003759301222777975,0.06295754103597287
1.0071093857946865,0.07315337862299943,0.012089366336564142,0.053521194673379444,0.000674597398674307,0.053504399607168865
1.0071564678198168,0.05967551136841471,0.008640290115673351,0.042771215350936226,-0.002695672148384869,0.04280788922865805
1.0072035498449472,0.046352747241279996,0.005141656904117675,0.029687677967592516,-0.004707704050416239,0.029757273336458535
1.0072506318700776,0.03458526276589038,0.0023799259619730713,0.01916866027493343,-0.00530450572743592,0.01924875203474225
1.007297713895208,0.02727830692374265,0.0009767920143923814,0.01473006896934623,-0.005358672158909068,0.014811492012562086
1.0073447959203383,0.0280866607277734,0.0010129490165096367,0.01711698325886342,-0.004567451300413404,0.017185826895977686
1.0073918779454687,0.03925806445151868,0.00395204100233458,0.028584290137595406,-0.0019620755848056455,0.02861127338147078
1.007438959970599,0.059562255279517966,0.008512472847755819,0.043832242766228824,0.002718638378486379,0.043785165837723176
1.0074860419957294,0.08449757331606145,0.013114684212607789,0.058037587268334905,0.008048458742492952,0.05790847646028197
1.0075331240208598,0.10858230355013457,0.01615341589580638,0.06858033205585247,0.013474982826732337,0.06837106353513654
1.0075802060459902,0.12742598805780986,0.01873695074152265,0.07621925524513734,0.01847366176711502,0.0759393765746959
1.0076272880711206,0.13840784538629322,0.02020101567580795,0.07904744927672683,0.022002443356673628,0.07871932648706534
1.007674370096251,0.14057521646913557,0.01952713586601153,0.0769603579802706,0.024401086296406627,0.07659922274799538
1.0077214521213813,0.1345761316442056,0.017559134187125732,0.07084930100861353,0.024727884537143103,0.07048212458586509
