freq,gls,usurper,pdc_unbiased,shape_periodogram,shift_periodogram
1.0,0.02176245538732735,0.012840188876772454,-0.007335655112181927,0.007057942991244508,-0.007470530672746955
1.0000470820251304,0.05134779247241603,0.016648422899718823,0.016081221596065367,0.006425420234330027,0.015954740746301103
1.0000941640502607,0.09689124580742478,0.022240404478031703,0.05094334186944231,0.009390022520846772,0.05075581053736821
1.0001412460753911,0.14848755125694818,0.026950474101099204,0.08456655871201842,0.016841358557186523,0.08424161048018057
1.0001883281005215,0.19664060203551523,0.03240103704743638,0.10917973127593883,0.028617690435015643,0.10866175011118873
1.0002354101256519,0.23592916525893703,0.03824943064010952,0.12678225514793529,0.03905391144151607,0.12611884197086254
1.0002824921507822,0.26363730657080775,0.042652014577820474,0.13936052532630389,0.04552467255004503,0.1386237436149101
1.0003295741759126,0.2780607972143743,0.045619025547047914,0.14663287491158739,0.04882047837548978,0.14586527680686553
1.000376656201043,0.27778293516045677,0.046306964127258855,0.14742341655727248,0.05127017727377018,0.14662875565767253
1.0004237382261734,0.2619162710265795,0.044496916109468695,0.139633635428265,0.05189660904263085,0.13882009539321782
1.0004708202513037,0.23107843684954268,0.040495920667264075,0.12167319492364326,0.05013745835059447,0.12085535387874292
1.0005179022764341,0.1884924826566669,0.03512917829477045,0.09811663264576473,0.04719746157618705,0.09730909728013165
1.0005649843015645,0.1401213853463462,0.03121193922511748,0.07552593926328457,0.04402404913998467,0.07474251171614876
1.0006120663266949,0.09311329616242185,0.02881190279178593,0.056936636782797936,0.03996855582556906,0.05620403238344636
1.0006591483518252,0.05338098213176131,0.028755316996395924,0.04656239048066332,0.03432547241755215,0.04592114923317445
1.0007062303769556,0.024158292773911582,0.028521250250317307,0.0379052596807291,0.027033311478479434,0.03739182749130357
1.000753312402086,0.006389706849983347,0.02902366352319436,0.024925530867037873,0.018707913366965555,0.024564875745798947
1.0008003944272164,4.4957735270936574e-05,0.02991115216632817,0.013623927240606612,0.011648170651808452,0.01339781125594686
1.0008474764523467,0.004476680458159687,0.029299235097272256,0.005279248516488982,0.009530277734462867,0.0050947803976219945
1.000894558477477,0.016631009383087918,0.03349117606386063,0.00604487589630294,0.012175638675841306,0.005809472124849069
1.0009416405026075,0.030279800796216314,0.04086814619200957,0.01614856324889533,0.018786024094339483,0.015786327378894696
1.0009887225277379,0.04019506929021177,0.04953802274604581,0.031662352407458065,0.03015236925278174,0.03109017345152944
1.0010358045528682,0.045271217739530065,0.05530703492144776,0.049643587368788454,0.04438100906701178,0.04882990639354244
1.0010828865779986,0.04665854735345898,0.06071518300940771,0.06394396252727896,0.05763003524875443,0.06293199608856018
1.001129968603129,0.04557434040645729,0.06462742649697291,0.06951556918541625,0.06793060815697005,0.06835961211202904
1.0011770506282593,0.04281463251624272,0.06563567095038493,0.06676401531502141,0.07299110715339943,0.0655277728611348
1.0012241326533897,0.03911406922799136,0.0626083367622159,0.05756222886158259,0.07293020933808635,0.05630187677105928
1.00127121467852,0.035734840091298535,0.05682554199733543,0.04469056838221148,0.07001079262973882,0.043442921103755375
1.0013182967036505,0.034632288517627896,0.05149642020775834,0.03354469161607427,0.06686133934903336,0.03232385214539417
1.0013653787287808,0.03686446430802818,0.0476460662976528,0.03235087082016887,0.06470057703592169,0.0311646774960704
1.0014124607539112,0.040499198873267514,0.04698192594033587,0.04235422606047071,0.06458683249296,0.04119036312624795
1.0014595427790416,0.04245011553894062,0.048738462304825425,0.05148956578485458,0.06638539854588775,0.050315910028420875
1.001506624804172,0.04142424671447975,0.049567196311744374,0.057489670337512934,0.06455568609482047,0.05635772421725631
1.0015537068293023,0.03772147907862947,0.05031716755632159,0.05838903434484734,0.058259116043055954,0.057357824478973495
1.0016007888544327,0.032149333674356434,0.047996624001488096,0.05286952532393206,0.048613125664415405,0.05198771427456771
1.001647870879563,0.025799799790141527,0.04245122818334222,0.040386054375886556,0.03543760517693232,0.03972194335513862
1.0016949529046935,0.020580986012262138,0.034105371001263145,0.02276083148008517,0.021741262942886665,0.02234307129048387
1.0017420349298238,0.01993155776046648,0.030280905498996275,0.008396000375120035,0.011889054503656493,0.00816584222980936
1.0017891169549542,0.027489951613850306,0.029816845402758585,0.00883020356959996,0.010485555259280143,0.008626918229286979
1.0018361989800846,0.042074300128446054,0.030194324614770493,0.022145335055818467,0.014658767699437298,0.021861181010190755
1.001883281005215,0.05845891480384451,0.03566419524574227,0.04104344236602053,0.023435759671322207,0.04059629016878241
1.0019303630303453,0.07582159493280267,0.040568939084669756,0.05832937685591873,0.03431577890185406,0.05769423084156084
1.0019774450554757,0.09824195100672209,0.04242220754044077,0.07041397317164165,0.04736865033306732,0.06957218662955794
1.002024527080606,0.1303669711588208,0.03882219235728715,0.07896421651578898,0.055767001010294664,0.07800510550400457
1.0020716091057364,0.17464242099810953,0.034310032280745036,0.08832693698111686,0.061233812243917884,0.08730636850112325
1.0021186911308668,0.22917237164395338,0.03460261701401855,0.11355266104308831,0.06547512728760606,0.11253207818834382
1.0021657731559972,0.2864808872447173,0.038360130980894296,0.14880372324738836,0.06991937420250659,0.14782679240221477
1.0022128551811276,0.335488571803669,0.04210519215030258,0.17945522269565434,0.0739941225985953,0.1785381839760536
1.002259937206258,0.3667004160945303,0.04399708822232205,0.20044309409803335,0.07640116975780535,0.19958191252873375
1.0023070192313883,0.37630521047742305,0.04392554865699913,0.20989430295355302,0.07662686815550553,0.20906359598883634
1.0023541012565187,0.3658732131217113,0.04237419561598075,0.20800353236518512,0.07489956352365745,0.20717173880715237
1.002401183281649,0.3393357840705059,0.041108533573606144,0.19716291122807472,0.07178001849321786,0.196310201419636
1.0024482653067794,0.30043566038503033,0.039821969391789835,0.1783931936762516,0.06418864038088529,0.1775364668818515
1.0024953473319098,0.25183659939415354,0.03660286574501919,0.15384153094853617,0.05096744485833431,0.15305978886688404
1.0025424293570402,0.1956066522565673,0.0300211166711998,0.12081929242955049,0.034368326005110306,0.1202189778445836
1.0025895113821706,0.13475970805500284,0.02425314422823902,0.07564140824241966,0.014924326721479001,0.07535051848840668
1.002636593407301,0.07582916802294695,0.021573716039336704,0.025728531183742454,-0.0002749262527149345,0.02572904872420511
1.0026836754324313,0.03145358980808763,0.01939126882081115,-0.0040036080406334615,-0.00021142789733423587,-0.003998788276170717
1.0027307574575617,0.01779891286180085,0.02077704057372912,-0.006351274616742859,0.015352464641126823,-0.006646825573968508
1.002777839482692,0.04358985242398123,0.023155453963805323,0.006591376950054447,0.03623343863892698,0.0058955515146505285
1.0028249215078224,0.1037077589167159,0.034349737632390645,0.04281328660270074,0.05274601222764859,0.04184938285315865
1.0028720035329528,0.18101238562213362,0.049219214903355034,0.0979436666785688,0.061494309598319565,0.09693869808902772
1.0029190855580832,0.25636899888384335,0.06174391948114656,0.15380629462607742,0.06466738747242987,0.1528878958721644
1.0029661675832136,0.31832235074100634,0.0681257102549233,0.19704252226634572,0.06567262742755421,0.1962211689361264
1.003013249608344,0.36361141655314383,0.07225572409219169,0.228525784613192,0.06561355350452447,0.2277833418676449
1.0030603316334743,0.39341420767750745,0.07310412568633465,0.24979870354304085,0.0628668233191897,0.24911662610416796
1.0031074136586047,0.4102870696014962,0.071626576763884,0.26258314989231946,0.05994813450768443,0.2619378300688172
1.003154495683735,0.41662904201390033,0.0691510764650473,0.266777273312063,0.05634589027628069,0.2661513549537472
1.0032015777088654,0.41405085665469693,0.06554482413990341,0.26326150551395927,0.051756335674935754,0.2626475175683731
1.0032486597339958,0.4030953535584088,0.06077247446182447,0.251751202986526,0.04605453800717223,0.25115200768561685
1.0032957417591262,0.38301151602067063,0.05476751883651067,0.2324239377319079,0.03932350440480143,0.2318550874367774
1.0033428237842565,0.3514583105172215,0.04731642309463053,0.2047530276495091,0.031511736903670186,0.20424396886497667
1.003389905809387,0.3042863356687068,0.03811350116993017,0.16911475512504195,0.0229885031769863,0.1687031869466418
1.0034369878345173,0.2364892670841809,0.02794345711217412,0.12615890065588273,0.014063660686574013,0.12588339090209094
1.0034840698596477,0.14805992805189566,0.01811033538490309,0.07745804013496241,0.0053302434000387835,0.07734298857354792
1.003531151884778,0.05937981673678241,0.012185539310139229,0.035632586371168055,-0.0008743668947341481,0.03564281047012409
1.0035782339099084,0.016571701488668728,0.012980818627433782,0.012038086514572617,-0.0022920305053662454,0.01208005780581835
1.0036253159350388,0.04141534161646615,0.022258401011222183,0.014399178728297872,0.004469756685579699,0.014310504385108143
1.0036723979601692,0.0978579156313711,0.037288897509289896,0.03595348541122598,0.01848385188834272,0.03559723593915992
1.0037194799852995,0.14599333246590304,0.05583987070800028,0.06503465797160808,0.032148420077220796,0.06443992162513185
1.00376656201043,0.17300879075255565,0.06926247467226339,0.0922030709843016,0.04396795597663524,0.09143683316403833
1.0038136440355603,0.18229222765708752,0.07824406621399317,0.11374971918924169,0.05106926910953323,0.11290867073174662
1.0038607260606907,0.18262972424027749,0.08206486788200522,0.12736778710133306,0.055410262607477,0.12649319597430578
1.003907808085821,0.18292620727983336,0.08435630676131246,0.13485525602086357,0.059514793773464233,0.1339473879134166
1.0039548901109514,0.18798821740501145,0.08626770820539659,0.13913083302593265,0.0633179284953496,0.13819180141697032
1.0040019721360818,0.19658928748535154,0.08479697000011344,0.1397247738744464,0.06522377090758784,0.1387680451868797
1.0040490541612122,0.20361099360789395,0.07940020493236347,0.1356935801867525,0.06616625212345428,0.13471788094342854
1.0040961361863425,0.20356945018764083,0.0711629898836104,0.1287855413388881,0.06416677560956793,0.12781445238059325
1.004143218211473,0.19261735903368254,0.06265518876507323,0.11776025800915435,0.062303229974784824,0.11678602746350747
1.0041903002366033,0.1692114287165738,0.052152934248764736,0.09836742477706704,0.05684181103849233,0.0974252308887041
1.0042373822617336,0.13469585530973552,0.040544564963458936,0.07519967777083232,0.04730961215843453,0.07436417932921154
1.004284464286864,0.094068350002802,0.028571978112013414,0.051842634052145065,0.03643586885864442,0.05116728786367327
1.0043315463119944,0.0558705414627791,0.018048976584082846,0.03082107495389939,0.02403121056870534,0.030361485975460043
1.0043786283371248,0.029785725493520713,0.011672323295456524,0.019809015244991575,0.012109053365011417,0.019573465849913797
1.0044257103622551,0.022326134922130727,0.008984776857279412,0.01684685304795892,0.0030041749242530383,0.016785908556661164
1.0044727923873855,0.03362727707623793,0.009584747052527683,0.01768087969631584,-0.0014006094185083492,0.017704600705588755
1.004519874412516,0.057935866130881315,0.013055931350596165,0.0238553638180855,-0.001121321399585694,0.023872546562053214
1.0045669564376463,0.08691312585069338,0.01875425377282903,0.038233159934289905,0.0046761490762277464,0.038136531101293246
1.0046140384627766,0.11302745450084833,0.025140324889908458,0.05542672474865837,0.01596289953001085,0.055117131290280195
1.004661120487907,0.13143773576861661,0.03159240108544275,0.07126698378066398,0.029264229724239203,0.07072404378023084
1.0047082025130374,0.140315951549541,0.03706870536784042,0.0817840112464661,0.042341857440791546,0.08103293052327547
1.0047552845381678,0.14016084842095028,0.03793321858548395,0.0846685751900148,0.053180128308925115,0.08375630051633343
1.0048023665632981,0.13271042804166153,0.0360770772682241,0.08028160564993014,0.06090868158612307,0.0792499621288597
1.0048494485884285,0.1199532079956697,0.03189851413562104,0.06958311394397716,0.0663034458552409,0.06845106292074694
1.0048965306135589,0.10352759540252561,0.02935789911622103,0.05738407400153901,0.06909489553666656,0.0561816929703616
1.0049436126386893,0.08458770500586026,0.025652446467447725,0.04469505929439128,0.06735697344481703,0.0434906136559194
1.0049906946638196,0.06411017510052013,0.022858176209214664,0.03435472552873721,0.0619327997398012,0.03322014237180455
1.00503777668895,0.043500849939608656,0.018773621901287528,0.022887706523455283,0.055280574177909304,0.021851947192126322
1.0050848587140804,0.02497562650004661,0.014385688293479392,0.013888116903115118,0.0473665675839602,0.0129872199174269
1.0051319407392107,0.011013597455985432,0.010119338182847527,0.011624969459267675,0.038024402358196804,0.010897789987691125
1.0051790227643411,0.003334338693202587,0.00837170084161131,0.009001101837417943,0.0263910947340145,0.008493675090266847
1.0052261047894715,0.0027948227754708652,0.005001572035726288,0.005716764128480125,0.014093261076489562,0.005444563589949366
1.0052731868146019,0.010164673003053454,0.003861701255910914,0.005314070387151807,0.004693869798120625,0.005222655163833614
1.0053202688397322,0.026566180290056158,0.0051100176409481215,0.008193549268036414,-0.0013450749156142289,0.008217962009233531
1.0053673508648626,0.05291846997433676,0.007659194121766619,0.011498759854167706,-0.00414285046611515,0.011576572959492075
1.005414432889993,0.08828034555015178,0.009459576828069709,0.017065936640710815,-0.003460970669760131,0.017129560345182492
1.0054615149151234,0.12763762777320273,0.012095269085044885,0.025647230237824777,0.0006729090482209098,0.02562951324939436
1.0055085969402537,0.16155770115500132,0.014705839114257402,0.038076850744054896,0.009095667253994168,0.037896382130600564
1.0055556789653841,0.18078890709766565,0.017995404780057903,0.05135766337998839,0.01942603315759085,0.05098471223789868
1.0056027609905145,0.18307418566708303,0.01916202100948305,0.06056084021799014,0.030205451317127954,0.05999776927777173
1.0056498430156449,0.1741533504439713,0.021147241525728996,0.06655908741414072,0.04000273260878064,0.06583312047475699
1.0056969250407752,0.16242605985016223,0.021389760160687766,0.07063087442771013,0.04839501275266962,0.06977308583448302
1.0057440070659056,0.15418810481596457,0.019655982045037348,0.07107575192890922,0.05326097646540232,0.07014256520280387
1.005791089091036,0.1523552110015489,0.016040059259829483,0.0660360559428213,0.05442645612843948,0.06507739453301074
1.0058381711161664,0.15691036178882456,0.01421941568830095,0.06130313889977103,0.053508969799809986,0.06035209563816754
1.0058852531412967,0.16538784679386007,0.013725742487496998,0.06307528196508604,0.05051107753775915,0.062174622385159625
1.005932335166427,0.17322460684996496,0.012580972943521493,0.06323184659303546,0.04547019292447247,0.06241304376814197
1.0059794171915575,0.17475929729964576,0.009563130542824618,0.05880087400333982,0.038288141075244544,0.058098094102000175
1.0060264992166879,0.16548577922015562,0.006276239676142707,0.05204155960234529,0.03149169662476601,0.05145270127254315
1.0060735812418182,0.1445721481217929,0.003456951721365572,0.04234591607178599,0.024247499392332738,0.04188414985625336
1.0061206632669486,0.11538472372115638,0.0006357000303841676,0.03266210113426135,0.01747382824718957,0.03232463844844208
1.006167745292079,0.08342022676517998,-0.00014591138808770705,0.0259645785337829,0.011751758313645468,0.025735207656894448
1.0062148273172093,0.053714935068683495,0.0016268600908665488,0.01794830890199036,0.0085210455818844,0.017781428688547738
1.0062619093423397,0.029620632829972474,0.00459284839491087,0.006428025048282717,0.007823911986101655,0.006276201419490322
1.00630899136747,0.012907514843990737,0.007917701279937198,-0.004503164505502606,0.008453066441847507,-0.0046654484238775945
1.0063560733926005,0.004292560353454192,0.012685538917847636,-0.010519166817943732,0.01047996042716146,-0.010719800534735889
1.0064031554177308,0.0038095921685766332,0.018084808497484367,-0.007972360122875525,0.012344575179190234,-0.00820946095846882
1.0064502374428612,0.010924293923755681,0.025701571174121186,0.0013341291502741227,0.016807821990092297,0.0010100013621288533
1.0064973194679916,0.02453035587728399,0.03308209772354342,0.011333716656649779,0.023018097973648243,0.010890832389481532
1.006544401493122,0.042966387475684646,0.039030443237580904,0.020787738978896356,0.028673305722196386,0.020239777189958265
1.0065914835182523,0.06411092062196938,0.04329484102390649,0.03329944681240632,0.033387711627981105,0.032668856656473386
1.0066385655433827,0.08556714248621351,0.048437076269115455,0.049462130528264495,0.03726252486784487,0.04877099566675767
1.006685647568513,0.10493697207975199,0.05046020100565016,0.06485229624100503,0.039938313303988254,0.06412610568590656
1.0067327295936435,0.12014720761669652,0.05034308176215514,0.07640706666955516,0.04072865311096379,0.07567700609240754
1.0067798116187738,0.12974860817624662,0.04663039632246508,0.08294186479002422,0.0393793196091091,0.08223850326531593
1.0068268936439042,0.1331160769266914,0.0428365940514457,0.08436945777741765,0.035815128251767574,0.08372407725570864
1.0068739756690346,0.13051634907150206,0.03781753058791454,0.08386978816652868,0.03190491855927953,0.08328778083913613
1.006921057694165,0.12301693370584733,0.0316381249354055,0.08185258015702256,0.02538813569928501,0.0813789720348557
1.0069681397192953,0.11219272060745543,0.024030134202177676,0.07585112215539112,0.017986892034131268,0.07550547263768215
1.0070152217444257,0.09964098937742749,0.016051648986288043,0.06985230351433948,0.011303993869747375,0.06962748031427622
1.007062303769556,0.08648287672211809,0.009778732806211348,0.06302251331950957,0.006472002853000222,0.06288813242652609
1.0071093857946865,0.07315337862299943,0.005222449130192335,0.053521194673379444,0.0033834612573730408,0.053446634668157515
1.0071564678198168,0.05967551136841471,0.0006724015631415237,0.042771215350936226,0.0007616950974997169,0.04274864985222041
1.0072035498449472,0.046352747241279996,-0.002325437747507092,0.029687677967592516,0.00029214773234692906,0.029676542310895077
1.0072506318700776,0.03458526276589038,-0.003873139351671018,0.01916866027493343,0.0014055046413014374,0.019138037591262456
1.007297713895208,0.02727830692374265,-0.003576859086701677,0.01473006896934623,0.0022749762126520034,0.014683527075540298
1.0073447959203383,0.0280866607277734,-0.0019858146309566197,0.01711698325886342,0.004253915902193735,0.017031985580648848
1.0073918779454687,0.03925806445151868,0.002811539722756849,0.028584290137595406,0.008821076158291807,0.02841024011745122
1.007438959970599,0.059562255279517966,0.009770761050774516,0.043832242766228824,0.014443906613876388,0.043550992546606535
1.0074860419957294,0.08449757331606145,0.015848395255172457,0.058037587268334905,0.02154743285999118,0.057626860233860815
1.0075331240208598,0.10858230355013457,0.020701546124958187,0.06858033205585247,0.02721945673707956,0.06807168031753519
1.0075802060459902,0.12742598805780986,0.023662915438642323,0.07621925524513734,0.03102364353389006,0.07564846236378965
1.0076272880711206,0.13840784538629322,0.025179714508740056,0.07904744927672683,0.033382439707645865,0.07843872099885318
1.007674370096251,0.14057521646913557,0.02434449886335612,0.0769603579802706,0.03422358351155654,0.07633663276521271
1.0077214521213813,0.1345761316442056,0.021377251024612548,0.07084930100861353,0.032991703090285554,0.07024297104575106
