freq,gls,usurper,pdc_unbiased,shape_periodogram,shift_periodogram
1.0,0.02176245538732735,0.013490166999360455,-0.007335655112181927,0.00796714171094917,-0.007484020168885748
1.0000470820251304,0.05134779247241603,0.016481106238390036,0.016081221596065367,0.007013245055428735,0.01594729717367105
1.0000941640502607,0.09689124580742478,0.022277908871710633,0.05094334186944231,0.009383880557242017,0.050761313016401126
1.0001412460753911,0.14848755125694818,0.027570882335108612,0.08456655871201842,0.017652756049243552,0.08423726100745973
1.0001883281005215,0.19664060203551523,0.0332633211372286,0.10917973127593883,0.030419825801596058,0.10865001111171935
1.0002354101256519,0.23592916525893703,0.038983773093040984,0.12678225514793529,0.04171712143092061,0.12610457903374014
1.0002824921507822,0.26363730657080775,0.04325601964330348,0.13936052532630389,0.04899985988477794,0.13860722340939927
1.0003295741759126,0.2780607972143743,0.04613402477399092,0.14663287491158739,0.05279004867402797,0.14584810861498676
1.000376656201043,0.27778293516045677,0.04675379737838208,0.14742341655727248,0.05569242020145082,0.14660977921192372
1.0004237382261734,0.2619162710265795,0.04501605288557163,0.139633635428265,0.05675223124645841,0.13879525651062838
1.0004708202513037,0.23107843684954268,0.041173329656301334,0.12167319492364326,0.05549380783163353,0.12081757051924243
1.0005179022764341,0.1884924826566669,0.036032853383588394,0.09811663264576473,0.05328192752144104,0.09725128218546077
1.0005649843015645,0.1401213853463462,0.0321211452555404,0.07552593926328457,0.050627185140498895,0.07466640336575721
1.0006120663266949,0.09311329616242185,0.029562499301575125,0.056936636782797936,0.0469030358954541,0.05611271788017395
1.0006591483518252,0.05338098213176131,0.029468725135527223,0.04656239048066332,0.041427119126066565,0.04581895333110737
1.0007062303769556,0.024158292773911582,0.029255805698186487,0.0379052596807291,0.03351776898079908,0.03729220496532073
1.000753312402086,0.006389706849983347,0.029692980343403428,0.024925530867037873,0.02467452829272108,0.02446622611346453
1.0008003944272164,4.4957735270936574e-05,0.03050409703578294,0.013623927240606612,0.017403079761088076,0.01329722451064069
1.0008474764523467,0.004476680458159687,0.029575402073347204,0.005279248516488982,0.015288297476514978,0.004992170340952514
1.000894558477477,0.016631009383087918,0.03393524127591626,0.00604487589630294,0.017588113413778465,0.005714834440748528
1.0009416405026075,0.030279800796216314,0.040726741414386564,0.01614856324889533,0.02401219120856962,0.015700052361284807
1.0009887225277379,0.04019506929021177,0.0487659602929825,0.031662352407458065,0.03440263872325051,0.03103084023700736
1.0010358045528682,0.045271217739530065,0.054150531609648764,0.049643587368788454,0.047650650680693525,0.0487996934305455
1.0010828865779986,0.04665854735345898,0.06007006558509477,0.06394396252727896,0.06039437601333362,0.06292123511279804
1.001129968603129,0.04557434040645729,0.06443413267343516,0.06951556918541625,0.07057850323635713,0.06835872150075667
1.0011770506282593,0.04281463251624272,0.06621619718139236,0.06676401531502141,0.07550437773541305,0.06553169740466522
1.0012241326533897,0.03911406922799136,0.06376928939054792,0.05756222886158259,0.07520965354974396,0.05630732598417633
1.00127121467852,0.035734840091298535,0.05787999156899656,0.04469056838221148,0.07204616629748482,0.043448059271397235
1.0013182967036505,0.034632288517627896,0.05267215001624882,0.03354469161607427,0.06890918498921438,0.032325206675800924
1.0013653787287808,0.03686446430802818,0.04894695826952208,0.03235087082016887,0.06676068585423885,0.031164385139522955
1.0014124607539112,0.040499198873267514,0.04832821059510412,0.04235422606047071,0.06665515647702867,0.041191332918675855
1.0014595427790416,0.04245011553894062,0.050031257236781236,0.05148956578485458,0.06870076468040846,0.05031556697614443
1.001506624804172,0.04142424671447975,0.0505134285256161,0.057489670337512934,0.067687050181613,0.05634502794660329
1.0015537068293023,0.03772147907862947,0.050649350275642324,0.05838903434484734,0.06205357984183664,0.05733088609596371
1.0016007888544327,0.032149333674356434,0.04775146255650619,0.05286952532393206,0.05280190854300007,0.05194624958798544
1.001647870879563,0.025799799790141527,0.04174251185316879,0.040386054375886556,0.04007693775715963,0.03966090393681648
1.0016949529046935,0.020580986012262138,0.033187528497147734,0.02276083148008517,0.026486852511530868,0.022268233724013528
1.0017420349298238,0.01993155776046648,0.029156424815448518,0.008396000375120035,0.016967963932224505,0.008077470935277874
1.0017891169549542,0.027489951613850306,0.028597507975082783,0.00883020356959996,0.01626786247601327,0.008524695996397451
1.0018361989800846,0.042074300128446054,0.02914588090559048,0.022145335055818467,0.02067538210532216,0.021758587086360404
1.001883281005215,0.05845891480384451,0.034817223041407906,0.04104344236602053,0.030021698897438606,0.04049277829860492
1.0019303630303453,0.07582159493280267,0.03922570178098471,0.05832937685591873,0.04127561438024645,0.05759781050391872
1.0019774450554757,0.09824195100672209,0.040130853700994715,0.07041397317164165,0.05381774800434458,0.06949987776328109
1.002024527080606,0.1303669711588208,0.03620614013053094,0.07896421651578898,0.06180974560016951,0.07794992818706135
1.0020716091057364,0.17464242099810953,0.03209193907539116,0.08832693698111686,0.06694048372693666,0.08726470430253036
1.0021186911308668,0.22917237164395338,0.03229202011786759,0.11355266104308831,0.07035117194088432,0.11251385356844967
1.0021657731559972,0.2864808872447173,0.03580781252091021,0.14880372324738836,0.07425032084940426,0.14783025540317934
1.0022128551811276,0.335488571803669,0.039243065015641426,0.17945522269565434,0.07801846791624666,0.17855790876682778
1.002259937206258,0.3667004160945303,0.04098380188580754,0.20044309409803335,0.08032539076132418,0.199611327872515
1.0023070192313883,0.37630521047742305,0.040895320879292915,0.20989430295355302,0.0805816968760417,0.20909610083050964
1.0023541012565187,0.3658732131217113,0.03948947663837247,0.20800353236518512,0.07900103228974402,0.20720117619407755
1.002401183281649,0.3393357840705059,0.03867189835012813,0.19716291122807472,0.07604093029242058,0.19633175464209712
1.0024482653067794,0.30043566038503033,0.037687464318719194,0.1783931936762516,0.0684945870460446,0.17754240387017994
1.0024953473319098,0.25183659939415354,0.034376979129531256,0.15384153094853617,0.05532836430725285,0.15304270447105323
1.0025424293570402,0.1956066522565673,0.028035997084338033,0.12081929242955049,0.03834915054910313,0.12018180591319243
1.0025895113821706,0.13475970805500284,0.023051361079621583,0.07564140824241966,0.017921021293395813,0.07530694769115978
1.002636593407301,0.07582916802294695,0.02132220349955406,0.025728531183742454,0.0017495329908536997,0.025691266302919156
1.0026836754324313,0.03145358980808763,0.019685918898115936,-0.0040036080406334615,0.0018148534254496258,-0.00403694865542166
1.0027307574575617,0.01779891286180085,0.020772302988190255,-0.006351274616742859,0.018574325257937948,-0.006699667375236091
1.002777839482692,0.04358985242398123,0.022455030709004113,0.006591376950054447,0.03961791472013719,0.005851788869821586
1.0028249215078224,0.1037077589167159,0.03315135003172374,0.04281328660270074,0.05638590329028452,0.041817454138090085
1.0028720035329528,0.18101238562213362,0.048155876744222385,0.0979436666785688,0.06170411573856073,0.09696875054305179
1.0029190855580832,0.25636899888384335,0.06016658836606093,0.15380629462607742,0.06295323873832044,0.15293674827695028
1.0029661675832136,0.31832235074100634,0.06484015778684575,0.19704252226634572,0.06384944750367182,0.196265397497654
1.003013249608344,0.36361141655314383,0.06830681880641175,0.228525784613192,0.06270872540483098,0.2278271825253744
1.0030603316334743,0.39341420767750745,0.06911210893657146,0.24979870354304085,0.05960230501134505,0.24915767613383616
1.0031074136586047,0.4102870696014962,0.06772159527669072,0.26258314989231946,0.05697650601057865,0.2619761091935494
1.003154495683735,0.41662904201390033,0.06541039688449386,0.266777273312063,0.05371195489989388,0.2661885783696563
1.0032015777088654,0.41405085665469693,0.062013168527888636,0.26326150551395927,0.04958876401713037,0.26268391024870685
1.0032486597339958,0.4030953535584088,0.0574800628076518,0.251751202986526,0.04444137229728493,0.2511864457956844
1.0032957417591262,0.38301151602067063,0.051800651962230444,0.2324239377319079,0.03844901117818492,0.23188383008850563
1.0033428237842565,0.3514583105172215,0.0447049330493146,0.2047530276495091,0.031518426597887915,0.20426129040264296
1.003389905809387,0.3042863356687068,0.035882054996661715,0.16911475512504195,0.023927967474321254,0.16870305712233447
1.0034369878345173,0.2364892670841809,0.02612986331003755,0.12615890065588273,0.01589807631381363,0.12586160693688406
1.0034840698596477,0.14805992805189566,0.01675921656991553,0.07745804013496241,0.008025869546895615,0.07729778925366503
1.003531151884778,0.05937981673678241,0.011494987639940937,0.035632586371168055,0.002468308086885969,0.03558022749737325
1.0035782339099084,0.016571701488668728,0.012655992326658984,0.012038086514572617,0.001221267608856814,0.012013077322346181
1.0036253159350388,0.04141534161646615,0.02208263625815342,0.014399178728297872,0.007413921739978003,0.014258026878383191
1.0036723979601692,0.0978579156313711,0.036647010292895986,0.03595348541122598,0.021161192123786393,0.035558986991564595
1.0037194799852995,0.14599333246590304,0.055219640283872995,0.06503465797160808,0.034380339192118914,0.06442040662727581
1.00376656201043,0.17300879075255565,0.06895796693167186,0.0922030709843016,0.045509171739941984,0.0914381339091996
1.0038136440355603,0.18229222765708752,0.078128368344984,0.11374971918924169,0.05203923652296761,0.1129237083869185
1.0038607260606907,0.18262972424027749,0.08213715612283178,0.12736778710133306,0.05519715100063861,0.1265251718047825
1.003907808085821,0.18292620727983336,0.08545788678425258,0.13485525602086357,0.057409107416009124,0.13400125918103772
1.0039548901109514,0.18798821740501145,0.08755093491325085,0.13913083302593265,0.06033984852374209,0.13825465667067766
1.0040019721360818,0.19658928748535154,0.08581621427532647,0.1397247738744464,0.062280651790824065,0.13883064148250382
1.0040490541612122,0.20361099360789395,0.07948320289246456,0.1356935801867525,0.06414621017374436,0.1347723534820507
1.0040961361863425,0.20356945018764083,0.07044928042876773,0.1287855413388881,0.06272267824810111,0.12786338610595963
1.004143218211473,0.19261735903368254,0.06205303845871272,0.11776025800915435,0.06134766542014777,0.11682988069906985
1.0041903002366033,0.1692114287165738,0.05168348583244776,0.09836742477706704,0.0569246140207225,0.09745443805111165
1.0042373822617336,0.13469585530973552,0.040403253623331845,0.07519967777083232,0.04823616911235458,0.07437548410811766
1.004284464286864,0.094068350002802,0.028519213164586374,0.051842634052145065,0.037974168602554564,0.051160937236361524
1.0043315463119944,0.0558705414627791,0.017563457978498148,0.03082107495389939,0.02608587209468587,0.030337396867364686
1.0043786283371248,0.029785725493520713,0.01094013057888763,0.019809015244991575,0.014419456252124657,0.01953727096546649
1.0044257103622551,0.022326134922130727,0.008012215689925816,0.01684685304795892,0.005495612507036063,0.016741112126749655
1.0044727923873855,0.03362727707623793,0.008594029568454606,0.01768087969631584,0.0013117832615567521,0.01765319365133481
1.004519874412516,0.057935866130881315,0.011925663877119793,0.0238553638180855,0.0019083797924364183,0.02381545054906865
1.0045669564376463,0.08691312585069338,0.017497089900221287,0.038233159934289905,0.008158533684003554,0.03807502376322547
1.0046140384627766,0.11302745450084833,0.023707838401982415,0.05542672474865837,0.020089820970026873,0.055053003950785676
1.004661120487907,0.13143773576861661,0.030133918730054495,0.07126698378066398,0.03405052258895484,0.07066145204866187
1.0047082025130374,0.140315951549541,0.036300093426958335,0.0817840112464661,0.047860787492383254,0.08097313096832465
1.0047552845381678,0.14016084842095028,0.03768119256350662,0.0846685751900148,0.059207888470606373,0.08370087118549317
1.0048023665632981,0.13271042804166153,0.03652084142553781,0.08028160564993014,0.06771928023259262,0.07919016107792969
1.0048494485884285,0.1199532079956697,0.03241478201969323,0.06958311394397716,0.07371023911770756,0.06838342401815901
1.0048965306135589,0.10352759540252561,0.030242413499789112,0.05738407400153901,0.07667285491542239,0.056107517196030264
1.0049436126386893,0.08458770500586026,0.02709523104405667,0.04469505929439128,0.07482073551508475,0.04340940929997488
1.0049906946638196,0.06411017510052013,0.024660437500753585,0.03435472552873721,0.06914773597894973,0.03313319702102668
1.00503777668895,0.043500849939608656,0.020567046186467836,0.022887706523455283,0.062062088489576256,0.021762458533900953
1.0050848587140804,0.02497562650004661,0.016040278531346264,0.013888116903115118,0.05394506632567297,0.01289293325523738
1.0051319407392107,0.011013597455985432,0.011935859760044533,0.011624969459267675,0.044286637773860923,0.010803047863358417
1.0051790227643411,0.003334338693202587,0.00999910468946554,0.009001101837417943,0.031660878219743026,0.00840997672622035
1.0052261047894715,0.0027948227754708652,0.0063297114130634585,0.005716764128480125,0.01731157539339037,0.005391889024171032
1.0052731868146019,0.010164673003053454,0.0050330086264211,0.005314070387151807,0.006097500589965631,0.0051988734881835644
1.0053202688397322,0.026566180290056158,0.005715895911295662,0.008193549268036414,-0.0005466977886105956,0.008202362023145707
1.0053673508648626,0.05291846997433676,0.007338494157473491,0.011498759854167706,-0.003454484796646101,0.011561585127718203
1.005414432889993,0.08828034555015178,0.008312612155409975,0.017065936640710815,-0.003114850733267795,0.01712141449028877
1.0054615149151234,0.12763762777320273,0.010309149662938026,0.025647230237824777,0.0006987380572343639,0.025629635488524795
1.0055085969402537,0.16155770115500132,0.012714662831244245,0.038076850744054896,0.008652969398930142,0.03790963752153197
1.0055556789653841,0.18078890709766565,0.016092883468791754,0.05135766337998839,0.019000735096315717,0.051002861460080935
1.0056027609905145,0.18307418566708303,0.017211892884758474,0.06056084021799014,0.02976841162170272,0.060021439832849396
1.0056498430156449,0.1741533504439713,0.019605752905065128,0.06655908741414072,0.03983589460313129,0.06585722822616427
1.0056969250407752,0.16242605985016223,0.020395286398648467,0.07063087442771013,0.04835267584325205,0.06979955397971886
1.0057440070659056,0.15418810481596457,0.018808327792604947,0.07107575192890922,0.05324414370296256,0.07017117301960303
1.005791089091036,0.1523552110015489,0.015065678835519085,0.0660360559428213,0.054653927585967196,0.06510289901882152
1.0058381711161664,0.15691036178882456,0.013007096944616414,0.06130313889977103,0.053744115347367456,0.06037690730697146
1.0058852531412967,0.16538784679386007,0.012464189781605567,0.06307528196508604,0.05042306370770003,0.06220287806890203
1.005932335166427,0.17322460684996496,0.011766350255345791,0.06323184659303546,0.04467893359360857,0.06244985174207049
1.0059794171915575,0.17475929729964576,0.00925084051202591,0.05880087400333982,0.03723852617609647,0.05813588976326692
1.0060264992166879,0.16548577922015562,0.0062639984770968245,0.05204155960234529,0.03074379453563623,0.051482391151920055
1.0060735812418182,0.1445721481217929,0.003521901954998679,0.04234591607178599,0.024087897092735833,0.04190003018457088
1.0061206632669486,0.11538472372115638,0.0005355994131318461,0.03266210113426135,0.01842246096213666,0.03231685918970859
1.006167745292079,0.08342022676517998,-1.9819482342572748e-05,0.0259645785337829,0.014019363459277191,0.025699856941885382
1.0062148273172093,0.053714935068683495,0.0019144235837500229,0.01794830890199036,0.012125113039253281,0.01771914706812977
1.0062619093423397,0.029620632829972474,0.005274057586481601,0.006428025048282717,0.01232315323292732,0.006196247999345554
1.00630899136747,0.012907514843990737,0.009010461744429576,-0.004503164505502606,0.013112084949973415,-0.004748700431075496
1.0063560733926005,0.004292560353454192,0.014394811555470479,-0.010519166817943732,0.014993533668629785,-0.010799698369349497
1.0064031554177308,0.0038095921685766332,0.020164587960703525,-0.007972360122875525,0.016618802176765157,-0.008283769890095258
1.0064502374428612,0.010924293923755681,0.027561247995522092,0.0013341291502741227,0.020121520324052018,0.0009566935919223618
1.0064973194679916,0.02453035587728399,0.03464854293181351,0.011333716656649779,0.025366868741542353,0.010859529126358842
1.006544401493122,0.042966387475684646,0.039860486343766856,0.020787738978896356,0.029506101167024405,0.020239831099017707
1.0065914835182523,0.06411092062196938,0.04352449214391189,0.03329944681240632,0.03301199830071119,0.03269323959076669
1.0066385655433827,0.08556714248621351,0.04830537614043245,0.049462130528264495,0.036011984855442186,0.04881204630640946
1.006685647568513,0.10493697207975199,0.050220915940243874,0.06485229624100503,0.037596332640329605,0.06418537320382725
1.0067327295936435,0.12014720761669652,0.049627006653477745,0.07640706666955516,0.03764091192150889,0.07574720607951062
1.0067798116187738,0.12974860817624662,0.04544183680818762,0.08294186479002422,0.03547994172006975,0.08232019759072035
1.0068268936439042,0.1331160769266914,0.0409421153891901,0.08436945777741765,0.03134926622875026,0.08381386935060464
1.0068739756690346,0.13051634907150206,0.03580364539994612,0.08386978816652868,0.026899588913977385,0.08338586016548936
1.006921057694165,0.12301693370584733,0.02974479869272072,0.08185258015702256,0.02028863105729822,0.08147820743584178
1.0069681397192953,0.11219272060745543,0.022442824322445536,0.07585112215539112,0.013584910153916977,0.07559218374912251
1.0070152217444257,0.09964098937742749,0.014763786595696736,0.06985230351433948,0.007868400812248147,0.06969572106759768
1.007062303769556,0.08648287672211809,0.00893008207802996,0.06302251331950957,0.004372744814297567,0.06293054357629699
1.0071093857946865,0.07315337862299943,0.004345040242921626,0.053521194673379444,0.0025864494090798986,0.05346368236436955
1.0071564678198168,0.05967551136841471,-0.000592961725406129,0.042771215350936226,0.0011057552742920404,0.042743049004296596
1.0072035498449472,0.046352747241279996,-0.003602296080654298,0.029687677967592516,0.0015786842184322368,0.029652926848987002
1.0072506318700776,0.03458526276589038,-0.0051144789368036715,0.01916866027493343,0.0033492449679989465,0.01910261344885837
1.007297713895208,0.02727830692374265,-0.004905470429546395,0.01473006896934623,0.004848532664720381,0.014636741704404037
1.0073447959203383,0.0280866607277734,-0.003347633946362697,0.01711698325886342,0.007379781230754803,0.016976081884587664
1.0073918779454687,0.03925806445151868,0.0013803696564085946,0.028584290137595406,0.012135742441680307,0.028354013418274475
1.007438959970599,0.059562255279517966,0.008469320457773702,0.043832242766228824,0.017456352933584406,0.04350469148132681
1.0074860419957294,0.08449757331606145,0.01485262256087458,0.058037587268334905,0.023872644126546553,0.057598264758798756
1.0075331240208598,0.10858230355013457,0.019834823335063943,0.06858033205585247,0.02880732415735148,0.068059912126243
1.0075802060459902,0.12742598805780986,0.02281416923986197,0.07621925524513734,0.03225066349416003,0.07564538366762528
1.0076272880711206,0.13840784538629322,0.02492247421749762,0.07904744927672683,0.03435715561967369,0.07844124040336972
1.007674370096251,0.14057521646913557,0.02457369659217367,0.0769603579802706,0.03507519707383769,0.07634152283268003
1.0077214521213813,0.1345761316442056,0.021558550295193202,0.07084930100861353,0.033734712422051644,0.07024868027727797
