freq,gls,usurper,pdc_unbiased,shape_periodogram,shift_periodogram
1.0,0.02176245538732735,0.01932255336815707,-0.007335655112181927,0.0011990769277320339,-0.007355798495296953
1.0000470820251304,0.05134779247241603,0.022627717969003938,0.016081221596065367,0.00029312586262570083,0.016073482078097535
1.0000941640502607,0.09689124580742478,0.026006110675055247,0.05094334186944231,0.004696219786011264,0.05085280021861417
1.0001412460753911,0.14848755125694818,0.02961672222849211,0.08456655871201842,0.011057840819896154,0.08436413437989362
1.0001883281005215,0.19664060203551523,0.0340134238518655,0.10917973127593883,0.020005575021956126,0.10883522973315653
1.0002354101256519,0.23592916525893703,0.03792088514379768,0.12678225514793529,0.026803362074310586,0.126342575659244
1.0002824921507822,0.26363730657080775,0.038734309700600614,0.13936052532630389,0.029655520876790364,0.13888737297487896
1.0003295741759126,0.2780607972143743,0.03984788704139042,0.14663287491158739,0.031364850930144066,0.14614133470965662
1.000376656201043,0.27778293516045677,0.040910452136569735,0.14742341655727248,0.032387024694845626,0.14691942513496095
1.0004237382261734,0.2619162710265795,0.039475024622301964,0.139633635428265,0.032978531386755446,0.13911748581273795
1.0004708202513037,0.23107843684954268,0.03612598084221982,0.12167319492364326,0.03193929218196023,0.121160408078105
1.0005179022764341,0.1884924826566669,0.0316165063189371,0.09811663264576473,0.02968362447630143,0.09762425319442469
1.0005649843015645,0.1401213853463462,0.028180919013302153,0.07552593926328457,0.02715373505056526,0.07506343010670763
1.0006120663266949,0.09311329616242185,0.02616904139743149,0.056936636782797936,0.023304201870855884,0.05653107682291545
1.0006591483518252,0.05338098213176131,0.026717697445362273,0.04656239048066332,0.017774077133555822,0.04624768412488689
1.0007062303769556,0.024158292773911582,0.02669676587953144,0.0379052596807291,0.011124802474206885,0.03770445401935429
1.000753312402086,0.006389706849983347,0.027451974438905645,0.024925530867037873,0.0035487908653251757,0.02485878624624481
1.0008003944272164,4.4957735270936574e-05,0.029214316509117225,0.013623927240606612,-0.002893277686568712,0.013673209156784607
1.0008474764523467,0.004476680458159687,0.02786385544229319,0.005279248516488982,-0.004634435659157305,0.005360782380342591
1.000894558477477,0.016631009383087918,0.030568377249460307,0.00604487589630294,-0.0022739334691985274,0.006084323395057789
1.0009416405026075,0.030279800796216314,0.03683171254897457,0.01614856324889533,0.0035309932399494623,0.01608342709803036
1.0009887225277379,0.04019506929021177,0.0448370341936446,0.031662352407458065,0.014375305317702347,0.03140566483714017
1.0010358045528682,0.045271217739530065,0.050726471002222454,0.049643587368788454,0.02771434258266731,0.0491641788300919
1.0010828865779986,0.04665854735345898,0.0532837441389723,0.06394396252727896,0.041312333228696145,0.06325839846269332
1.001129968603129,0.04557434040645729,0.05542971675721107,0.06951556918541625,0.05219209622738372,0.06867745272740161
1.0011770506282593,0.04281463251624272,0.0546187921695843,0.06676401531502141,0.05839285281380089,0.06583507976790234
1.0012241326533897,0.03911406922799136,0.050274627341158284,0.05756222886158259,0.06034272184476421,0.05658944336374236
1.00127121467852,0.035734840091298535,0.04423840459576438,0.04469056838221148,0.05977175982505029,0.04370301510977708
1.0013182967036505,0.034632288517627896,0.03823721071401339,0.03354469161607427,0.058737969479701266,0.03255401024427483
1.0013653787287808,0.03686446430802818,0.03609828757174243,0.03235087082016887,0.05722158896458647,0.03138237122109238
1.0014124607539112,0.040499198873267514,0.037712920572290455,0.04235422606047071,0.05660400531099264,0.04141112984609874
1.0014595427790416,0.04245011553894062,0.03995767488866218,0.05148956578485458,0.05581995687649429,0.05057255616191671
1.001506624804172,0.04142424671447975,0.0399092009978953,0.057489670337512934,0.050758160511591086,0.05665630535025293
1.0015537068293023,0.03772147907862947,0.03908005969823723,0.05838903434484734,0.04269317291622144,0.05767781678207205
1.0016007888544327,0.032149333674356434,0.03728143245371923,0.05286952532393206,0.032155962955413946,0.052319433649870455
1.001647870879563,0.025799799790141527,0.03497032037193352,0.040386054375886556,0.018968819613204166,0.04005079919328474
1.0016949529046935,0.020580986012262138,0.029279240348980475,0.02276083148008517,0.006292372391247213,0.02264601828257857
1.0017420349298238,0.01993155776046648,0.026565419707171894,0.008396000375120035,-0.0030266624423053983,0.00844846580776231
1.0017891169549542,0.027489951613850306,0.026474209638408044,0.00883020356959996,-0.0045869036285233955,0.008910363212207367
1.0018361989800846,0.042074300128446054,0.025679926129826575,0.022145335055818467,-0.00035540656444334304,0.022148152714282953
1.001883281005215,0.05845891480384451,0.029013936125004886,0.04104344236602053,0.008073842375044306,0.04089527055987303
1.0019303630303453,0.07582159493280267,0.0344995030877721,0.05832937685591873,0.01768281323846232,0.058016774644232556
1.0019774450554757,0.09824195100672209,0.03866347895745195,0.07041397317164165,0.02864432179616769,0.0699264711644584
1.002024527080606,0.1303669711588208,0.036700532541305994,0.07896421651578898,0.03793665275502084,0.07834032808476561
1.0020716091057364,0.17464242099810953,0.031466445583490495,0.08832693698111686,0.044980858583605156,0.08761144638002367
1.0021186911308668,0.22917237164395338,0.03174950798915845,0.11355266104308831,0.04987055788821938,0.11280474830037461
1.0021657731559972,0.2864808872447173,0.034936531639731996,0.14880372324738836,0.05409189908765897,0.14806359542448222
1.0022128551811276,0.335488571803669,0.038238938286690255,0.17945522269565434,0.05776299628254976,0.17873969843327647
1.002259937206258,0.3667004160945303,0.04023272317152572,0.20044309409803335,0.05997996172652163,0.19975598891948745
1.0023070192313883,0.37630521047742305,0.04073558772071223,0.20989430295355302,0.060499665054581896,0.20922450349982744
1.0023541012565187,0.3658732131217113,0.039574532865839354,0.20800353236518512,0.05924430607044768,0.2073356740041164
1.002401183281649,0.3393357840705059,0.0385789915812688,0.19716291122807472,0.05628549959834379,0.19649025489409788
1.0024482653067794,0.30043566038503033,0.03771261661169358,0.1783931936762516,0.04926006883310906,0.17774123997727195
1.0024953473319098,0.25183659939415354,0.03502600290704902,0.15384153094853617,0.037288808130771456,0.15328291923727846
1.0025424293570402,0.1956066522565673,0.029226241136217232,0.12081929242955049,0.022744441660714397,0.12043603208032173
1.0025895113821706,0.13475970805500284,0.022813915734569343,0.07564140824241966,0.006988638875869135,0.07550831431054512
1.002636593407301,0.07582916802294695,0.018636932886295927,0.025728531183742454,-0.004380420320350611,0.025802446318136968
1.0026836754324313,0.03145358980808763,0.020399196180533825,-0.0040036080406334615,-0.005117319634290931,-0.003912140829340602
1.0027307574575617,0.01779891286180085,0.027428724903770886,-0.006351274616742859,0.006067861376260336,-0.00645815674757128
1.002777839482692,0.04358985242398123,0.02572918073306058,0.006591376950054447,0.0229582798098615,0.006184228662646998
1.0028249215078224,0.1037077589167159,0.02817840360129183,0.04281328660270074,0.036231155041714154,0.04219243600504619
1.0028720035329528,0.18101238562213362,0.03532132335192981,0.0979436666785688,0.045231274834147434,0.09723502177366618
1.0029190855580832,0.25636899888384335,0.04614677811543868,0.15380629462607742,0.047951623832340216,0.15313283951775475
1.0029661675832136,0.31832235074100634,0.055426577939303244,0.19704252226634572,0.04529544703699851,0.19644821432124002
1.003013249608344,0.36361141655314383,0.05945465169482067,0.228525784613192,0.04405574972049272,0.22797928682033378
1.0030603316334743,0.39341420767750745,0.06036357197742051,0.24979870354304085,0.042278334464825165,0.24928888252251216
1.0031074136586047,0.4102870696014962,0.05904655188220119,0.26258314989231946,0.039604615010996644,0.2621039853831116
1.003154495683735,0.41662904201390033,0.05707712233629694,0.266777273312063,0.03652078421305956,0.26632244850422093
1.0032015777088654,0.41405085665469693,0.05419176271937927,0.26326150551395927,0.0326322521831867,0.2628326528320811
1.0032486597339958,0.4030953535584088,0.050374180403932635,0.251751202986526,0.027767270237475085,0.25135767172379103
1.0032957417591262,0.38301151602067063,0.045551144465671725,0.2324239377319079,0.022082451886468717,0.23208188350167586
1.0033428237842565,0.3514583105172215,0.03958820904141895,0.2047530276495091,0.015616521720746457,0.20448584253848381
1.003389905809387,0.3042863356687068,0.03247714161028369,0.16911475512504195,0.008750161181991668,0.16894632418855154
1.0034369878345173,0.2364892670841809,0.024499444254735585,0.12615890065588273,0.001659891406654508,0.12611070717920275
1.0034840698596477,0.14805992805189566,0.01632966361630516,0.07745804013496241,-0.004849529844532621,0.07753215961274618
1.003531151884778,0.05937981673678241,0.011472006157196428,0.035632586371168055,-0.00892204865784161,0.035786557520074556
1.0035782339099084,0.016571701488668728,0.012009824454731996,0.012038086514572617,-0.008974289078040182,0.012196036799562512
1.0036253159350388,0.04141534161646615,0.01937505814360138,0.014399178728297872,-0.002342524859757008,0.014438540242860516
1.0036723979601692,0.0978579156313711,0.03097785790537944,0.03595348541122598,0.008851320821371345,0.035792316166023484
1.0037194799852995,0.14599333246590304,0.044130566796884665,0.06503465797160808,0.02020965452881222,0.06468091436667847
1.00376656201043,0.17300879075255565,0.052098102069046234,0.0922030709843016,0.030998654152046536,0.09168873703342634
1.0038136440355603,0.18229222765708752,0.058646693820613244,0.11374971918924169,0.03767984180544055,0.11315497043176882
1.0038607260606907,0.18262972424027749,0.06205221229218082,0.12736778710133306,0.04319220580610487,0.12671571683509228
1.003907808085821,0.18292620727983336,0.06227669132243543,0.13485525602086357,0.04994253112584983,0.13413564713064735
1.0039548901109514,0.18798821740501145,0.06329518030483491,0.13913083302593265,0.054087135936624973,0.13837491114471237
1.0040019721360818,0.19658928748535154,0.06319883340021615,0.1397247738744464,0.05540825790114896,0.13895688413954485
1.0040490541612122,0.20361099360789395,0.060828505155060414,0.1356935801867525,0.05382043486836356,0.13493477131823012
1.0040961361863425,0.20356945018764083,0.05520068834771844,0.1287855413388881,0.05155439920356799,0.12803990788888026
1.004143218211473,0.19261735903368254,0.047382595132344815,0.11776025800915435,0.048799212725391734,0.11703056893091139
1.0041903002366033,0.1692114287165738,0.03842323262270299,0.09836742477706704,0.04307392935591667,0.09768780986409123
1.0042373822617336,0.13469585530973552,0.029087794784926062,0.07519967777083232,0.03504076511391818,0.0746163166654859
1.004284464286864,0.094068350002802,0.020145316191822263,0.051842634052145065,0.025577034640570477,0.05139878715433734
1.0043315463119944,0.0558705414627791,0.012571961605515748,0.03082107495389939,0.014456942429575235,0.030563000850918644
1.0043786283371248,0.029785725493520713,0.00817045860838501,0.019809015244991575,0.0036157384429057267,0.019741839085067957
1.0044257103622551,0.022326134922130727,0.006983223354682772,0.01684685304795892,-0.005287511394023619,0.01693830473777483
1.0044727923873855,0.03362727707623793,0.008524793011198049,0.01768087969631584,-0.00993846529141431,0.017855407306613235
1.004519874412516,0.057935866130881315,0.011923364379131204,0.0238553638180855,-0.010203064914191522,0.024033914825462233
1.0045669564376463,0.08691312585069338,0.01732448176841583,0.038233159934289905,-0.005161719308571333,0.03831912384503737
1.0046140384627766,0.11302745450084833,0.023378219347308677,0.05542672474865837,0.004838376598987959,0.05533311451288862
1.004661120487907,0.13143773576861661,0.02888879878915753,0.07126698378066398,0.016609408419824962,0.07097277419155193
1.0047082025130374,0.140315951549541,0.032350509311148044,0.0817840112464661,0.028592413591727456,0.08130143917045957
1.0047552845381678,0.14016084842095028,0.03197483970324249,0.0846685751900148,0.03898349403135385,0.08403372397151408
1.0048023665632981,0.13271042804166153,0.029182740688050834,0.08028160564993014,0.04612908955565535,0.07954168611741452
1.0048494485884285,0.1199532079956697,0.025528775124627683,0.06958311394397716,0.05266904577674231,0.06873838366914314
1.0048965306135589,0.10352759540252561,0.022479288596558337,0.05738407400153901,0.05685564707855771,0.056461171291523164
1.0049436126386893,0.08458770500586026,0.017882062344561928,0.04469505929439128,0.05728984506251266,0.043745182834216766
1.0049906946638196,0.06411017510052013,0.015060164153487732,0.03435472552873721,0.05425099452204198,0.03343660099085366
1.00503777668895,0.043500849939608656,0.011812707605446272,0.022887706523455283,0.049093518777531264,0.02203936648844576
1.0050848587140804,0.02497562650004661,0.009171710766526116,0.013888116903115118,0.04147535219926742,0.013160804661033145
1.0051319407392107,0.011013597455985432,0.007406221631387603,0.011624969459267675,0.03179692315665857,0.01106409158660271
1.0051790227643411,0.003334338693202587,0.007304346154452432,0.009001101837417943,0.020874181813890138,0.008630858048237357
1.0052261047894715,0.0027948227754708652,0.004606870959699154,0.005716764128480125,0.011224612345121017,0.005516858291006811
1.0052731868146019,0.010164673003053454,0.0029141141915575066,0.005314070387151807,0.003467188541445868,0.005251685348190872
1.0053202688397322,0.026566180290056158,0.00329797972698828,0.008193549268036414,-0.004682745712161905,0.0082755097265617
1.0053673508648626,0.05291846997433676,0.005289377493577076,0.011498759854167706,-0.009090582394034015,0.011658853926325171
1.005414432889993,0.08828034555015178,0.008875508458285325,0.017065936640710815,-0.00914581820032082,0.017226333562224444
1.0054615149151234,0.12763762777320273,0.012191176579550054,0.025647230237824777,-0.00599867555178222,0.025750087655274763
1.0055085969402537,0.16155770115500132,0.014725221095977029,0.038076850744054896,0.001150571591530773,0.03805048736153721
1.0055556789653841,0.18078890709766565,0.0174686551729436,0.05135766337998839,0.010927768046182123,0.05115930575524407
1.0056027609905145,0.18307418566708303,0.018068121171322435,0.06056084021799014,0.02147978230859386,0.06018573727843659
1.0056498430156449,0.1741533504439713,0.0185060934063782,0.06655908741414072,0.0304395353215356,0.06604202480169141
1.0056969250407752,0.16242605985016223,0.01749625001912896,0.07063087442771013,0.03823770560828037,0.06999661217145618
1.0057440070659056,0.15418810481596457,0.015197805148415053,0.07107575192890922,0.04230596396086425,0.07038152425290713
1.005791089091036,0.1523552110015489,0.011551027090707244,0.0660360559428213,0.0429807404143549,0.06532734210817763
1.0058381711161664,0.15691036178882456,0.009501144511652843,0.06130313889977103,0.04295728323601201,0.06059050622138639
1.0058852531412967,0.16538784679386007,0.009020435612394968,0.06307528196508604,0.041889573077253314,0.06238029275986128
1.005932335166427,0.17322460684996496,0.007131621029259905,0.06323184659303546,0.03906058066082876,0.06257983621974675
1.0059794171915575,0.17475929729964576,0.004390605329715915,0.05880087400333982,0.03406563126254322,0.05822336968374155
1.0060264992166879,0.16548577922015562,0.002296136928428444,0.05204155960234529,0.028977781233231442,0.0515423522454978
1.0060735812418182,0.1445721481217929,0.0008710228088541592,0.04234591607178599,0.022412096782023067,0.04195276481841928
1.0061206632669486,0.11538472372115638,-0.0005421891039627015,0.03266210113426135,0.014880688444223656,0.032396660210887364
1.006167745292079,0.08342022676517998,-0.001565769198165619,0.0259645785337829,0.007643738667755547,0.025825615158839556
1.0062148273172093,0.053714935068683495,-0.0004422099238105172,0.01794830890199036,0.002575187681482114,0.01789982193652572
1.0062619093423397,0.029620632829972474,0.0013989241309812631,0.006428025048282717,-0.0006513998686580477,0.006438581336089346
1.00630899136747,0.012907514843990737,0.00420839443497969,-0.004503164505502606,-0.0005209803083369905,-0.004493201915066477
1.0063560733926005,0.004292560353454192,0.0076799263168236065,-0.010519166817943732,0.0017479278004749138,-0.010548563712999197
1.0064031554177308,0.0038095921685766332,0.013135935038356888,-0.007972360122875525,0.0038183522772871183,-0.00803897272806172
1.0064502374428612,0.010924293923755681,0.021221532330237373,0.0013341291502741227,0.010282840662894076,0.0011513457917667366
1.0064973194679916,0.02453035587728399,0.027485442317276003,0.011333716656649779,0.0183359102094899,0.01100817517731731
1.006544401493122,0.042966387475684646,0.03205508370509582,0.020787738978896356,0.025876758503882713,0.020331959313563797
1.0065914835182523,0.06411092062196938,0.033544203152136944,0.03329944681240632,0.030636792608241013,0.03276631229235433
1.0066385655433827,0.08556714248621351,0.03537973900915031,0.049462130528264495,0.03288941334172955,0.04889870417729531
1.006685647568513,0.10493697207975199,0.03598582120573566,0.06485229624100503,0.033023704276537995,0.0642941586268534
1.0067327295936435,0.12014720761669652,0.035276923234437416,0.07640706666955516,0.03186265312464441,0.07587238274196233
1.0067798116187738,0.12974860817624662,0.03205303083191406,0.08294186479002422,0.02972418855840757,0.08244252152778386
1.0068268936439042,0.1331160769266914,0.030450413826849373,0.08436945777741765,0.026428482778138567,0.08392092668088423
1.0068739756690346,0.13051634907150206,0.026286729227596218,0.08386978816652868,0.023222610380088476,0.08347086885645123
1.006921057694165,0.12301693370584733,0.02042692040275143,0.08185258015702256,0.019663572642453157,0.08150965225430672
1.0069681397192953,0.11219272060745543,0.013520335065627597,0.07585112215539112,0.014998180196138848,0.0755835824682214
1.0070152217444257,0.09964098937742749,0.0074494412855491045,0.06985230351433948,0.01031746670194246,0.0696631151421748
1.007062303769556,0.08648287672211809,0.0028389752255626945,0.06302251331950957,0.006338602223859096,0.06290195859102791
1.0071093857946865,0.07315337862299943,0.0008662422758168886,0.053521194673379444,0.00321991791246819,0.05345610877235935
1.0071564678198168,0.05967551136841471,-0.0008266501045700024,0.042771215350936226,1.6223627798483857e-05,0.04276419359844738
1.0072035498449472,0.046352747241279996,-0.002921098696967833,0.029687677967592516,-0.0020119896048221243,0.029718747058750293
1.0072506318700776,0.03458526276589038,-0.0037917944338584668,0.01916866027493343,-0.0020519154503535887,0.01920210221557962
1.007297713895208,0.02727830692374265,-0.0033287525895385767,0.01473006896934623,-0.0020582675440675544,0.01476432231923873
1.0073447959203383,0.0280866607277734,-0.001768060702106649,0.01711698325886342,-0.0012944588059061362,0.017137279221542335
1.0073918779454687,0.03925806445151868,0.0027386490116649304,0.028584290137595406,0.001922850377585656,0.028545727571735725
1.007438959970599,0.059562255279517966,0.008625079891979956,0.043832242766228824,0.006220987212950122,0.043716012263445216
1.0074860419957294,0.08449757331606145,0.013384942797363767,0.058037587268334905,0.011251123409462988,0.057833284707567066
1.0075331240208598,0.10858230355013457,0.01652888606361234,0.06858033205585247,0.016162796428436255,0.06829338972543313
1.0075802060459902,0.12742598805780986,0.01905272367851688,0.07621925524513734,0.01944671219180232,0.07587916546512583
1.0076272880711206,0.13840784538629322,0.01971171419006285,0.07904744927672683,0.021152658357149003,0.07868035783234419
1.007674370096251,0.14057521646913557,0.018591517298591584,0.0769603579802706,0.021548574604258925,0.07658662091042766
1.0077214521213813,0.1345761316442056,0.016784945063323654,0.07084930100861353,0.02024764913261382,0.07049563152511501
