freq,gls,usurper,pdc_unbiased,shape_periodogram,shift_periodogram
1.0,0.02176245538732735,0.03873268044827216,-0.007335655112181927,0.014818890866233057,-0.008649884458019596
1.0000470820251304,0.05134779247241603,0.07041536588319079,0.016081221596065367,0.040553570247938625,0.01234929965145951
1.0000941640502607,0.09689124580742478,0.10243978033621431,0.05094334186944231,0.07378760000741397,0.044186553842040815
1.0001412460753911,0.14848755125694818,0.1346445825763909,0.08456655871201842,0.10489017064604111,0.07521307873258999
1.0001883281005215,0.19664060203551523,0.16036608119214607,0.10917973127593883,0.13106334549833343,0.09787660755601113
1.0002354101256519,0.23592916525893703,0.17688480671565285,0.12678225514793529,0.15014401340539774,0.11422452604555483
1.0002824921507822,0.26363730657080775,0.18729292134352418,0.13936052532630389,0.16191497063185564,0.12613565543430352
1.0003295741759126,0.2780607972143743,0.1931256621539105,0.14663287491158739,0.16900461614605897,0.13303868985600645
1.000376656201043,0.27778293516045677,0.19512057376346117,0.14742341655727248,0.17221020028600137,0.1336290263083273
1.0004237382261734,0.2619162710265795,0.1914553162131009,0.139633635428265,0.17096365608739283,0.12579270070812426
1.0004708202513037,0.23107843684954268,0.18037035747229938,0.12167319492364326,0.16465902930050164,0.10799689751443711
1.0005179022764341,0.1884924826566669,0.16520108664749053,0.09811663264576473,0.155390745789553,0.08482430581354741
1.0005649843015645,0.1401213853463462,0.15444042113657924,0.07552593926328457,0.14914508441223692,0.06248528079814314
1.0006120663266949,0.09311329616242185,0.14985022005694054,0.056936636782797936,0.14627338199340761,0.043962474296657096
1.0006591483518252,0.05338098213176131,0.15268316312273825,0.04656239048066332,0.14558956659296454,0.03355927258416788
1.0007062303769556,0.024158292773911582,0.1559618495722249,0.0379052596807291,0.14393407149999726,0.024978219871976532
1.000753312402086,0.006389706849983347,0.1531060455720661,0.024925530867037873,0.13824182998012347,0.012414506750453266
1.0008003944272164,4.4957735270936574e-05,0.15133703571954057,0.013623927240606612,0.13134373335592875,0.001674701498042215
1.0008474764523467,0.004476680458159687,0.14933419234184908,0.005279248516488982,0.1304820655808963,-0.0066297057445573815
1.000894558477477,0.016631009383087918,0.15534469080981692,0.00604487589630294,0.13781500474635702,-0.006537779468431154
1.0009416405026075,0.030279800796216314,0.17377652840288357,0.01614856324889533,0.15405194922140156,0.002141890993934192
1.0009887225277379,0.04019506929021177,0.20079957606203191,0.031662352407458065,0.17779302107252667,0.01567518732140126
1.0010358045528682,0.045271217739530065,0.22855114344638178,0.049643587368788454,0.20371005818245883,0.0316785312549557
1.0010828865779986,0.04665854735345898,0.24510182962446428,0.06394396252727896,0.2265698616808233,0.04437965322888716
1.001129968603129,0.04557434040645729,0.250839465362337,0.06951556918541625,0.2408315356021344,0.048944624239912804
1.0011770506282593,0.04281463251624272,0.24396709325880903,0.06676401531502141,0.24455305925865697,0.045808443480238464
1.0012241326533897,0.03911406922799136,0.2291393956646178,0.05756222886158259,0.23998174170909176,0.036710033535177614
1.00127121467852,0.035734840091298535,0.2103439747806144,0.04469056838221148,0.22987648491612997,0.0243533650062426
1.0013182967036505,0.034632288517627896,0.19610416759288937,0.03354469161607427,0.22247987624015683,0.013592631739195766
1.0013653787287808,0.03686446430802818,0.19877270928347132,0.03235087082016887,0.2235252648616309,0.012277297197113648
1.0014124607539112,0.040499198873267514,0.2140958017075955,0.04235422606047071,0.23261243677133145,0.021717533918669357
1.0014595427790416,0.04245011553894062,0.2313494568676209,0.05148956578485458,0.2439224582149441,0.030125951383594744
1.001506624804172,0.04142424671447975,0.2430524340276068,0.057489670337512934,0.24932582883998552,0.03585132747339437
1.0015537068293023,0.03772147907862947,0.2438497561032612,0.05838903434484734,0.24547837475004788,0.037100933124325323
1.0016007888544327,0.032149333674356434,0.2343474603949017,0.05286952532393206,0.2300008340300654,0.03273188061584488
1.001647870879563,0.025799799790141527,0.21390380584214488,0.040386054375886556,0.20434710858260455,0.022187327778745866
1.0016949529046935,0.020580986012262138,0.185955819659729,0.02276083148008517,0.17291101651341342,0.007101991399537514
1.0017420349298238,0.01993155776046648,0.1614463031299769,0.008396000375120035,0.1467493825043018,-0.004998033523987664
1.0017891169549542,0.027489951613850306,0.15100255013762762,0.00883020356959996,0.13608482813152567,-0.0035778333324623366
1.0018361989800846,0.042074300128446054,0.15155262856227278,0.022145335055818467,0.1395999669722458,0.009494613434548004
1.001883281005215,0.05845891480384451,0.16115951063219813,0.04104344236602053,0.15208377481711202,0.02742834721874177
1.0019303630303453,0.07582159493280267,0.1743165709318293,0.05832937685591873,0.16450583631629245,0.04382805275186512
1.0019774450554757,0.09824195100672209,0.181993493884742,0.07041397317164165,0.16978098107607345,0.05562706026916959
1.002024527080606,0.1303669711588208,0.17525640092639966,0.07896421651578898,0.16514343276274576,0.06466593385003284
1.0020716091057364,0.17464242099810953,0.16136156628480958,0.08832693698111686,0.1560980547720932,0.07486455612253957
1.0021186911308668,0.22917237164395338,0.16286652480642136,0.11355266104308831,0.15369420176683574,0.1005742700573553
1.0021657731559972,0.2864808872447173,0.17659013103806265,0.14880372324738836,0.158801150931107,0.13592839487345373
1.0022128551811276,0.335488571803669,0.19090059958680586,0.17945522269565434,0.1650331690857809,0.1666555835710453
1.002259937206258,0.3667004160945303,0.19939117031004058,0.20044309409803335,0.16721071246881608,0.18787836948019385
1.0023070192313883,0.37630521047742305,0.20034510291686491,0.20989430295355302,0.16379714395766828,0.19768471822580813
1.0023541012565187,0.3658732131217113,0.19394548791030294,0.20800353236518512,0.1551912349025549,0.19624094812357126
1.002401183281649,0.3393357840705059,0.18084333157550272,0.19716291122807472,0.1421684151453186,0.1860108403045263
1.0024482653067794,0.30043566038503033,0.1630525920510581,0.1783931936762516,0.12518389367245866,0.16811843643562777
1.0024953473319098,0.25183659939415354,0.1417274812428215,0.15384153094853617,0.10425993314030278,0.14485429079522005
1.0025424293570402,0.1956066522565673,0.11461137914245569,0.12081929242955049,0.08073375429381642,0.11352378080330436
1.0025895113821706,0.13475970805500284,0.07856597350975192,0.07564140824241966,0.05302379017284015,0.07066121800738379
1.002636593407301,0.07582916802294695,0.04170588073514618,0.025728531183742454,0.028364756870223853,0.023062368152616176
1.0026836754324313,0.03145358980808763,0.02583735985729622,-0.0040036080406334615,0.016348121778590876,-0.005470074963803624
1.0027307574575617,0.01779891286180085,0.034225155316499736,-0.006351274616742859,0.02286669482925295,-0.008400454151246297
1.002777839482692,0.04358985242398123,0.04667612410955303,0.006591376950054447,0.04247961945638858,0.002715203745699501
1.0028249215078224,0.1037077589167159,0.0697185565296315,0.04281328660270074,0.06845746610603032,0.03653042153918883
1.0028720035329528,0.18101238562213362,0.10698785458448075,0.0979436666785688,0.1000927221107383,0.08903005144558818
1.0029190855580832,0.25636899888384335,0.14767707634915517,0.15380629462607742,0.12779255620782118,0.14312722401747327
1.0029661675832136,0.31832235074100634,0.1830895943944326,0.19704252226634572,0.14197927633211654,0.1859004210598915
1.003013249608344,0.36361141655314383,0.20290429458991457,0.228525784613192,0.1499745322659954,0.21736657671836762
1.0030603316334743,0.39341420767750745,0.21559497567054886,0.24979870354304085,0.15504088261204382,0.2387221763940847
1.0031074136586047,0.4102870696014962,0.22168615901335267,0.26258314989231946,0.1565412330025417,0.25165538017633643
1.003154495683735,0.41662904201390033,0.2230285372234089,0.266777273312063,0.15545143473887804,0.2559716349484466
1.0032015777088654,0.41405085665469693,0.22013448574301736,0.26326150551395927,0.1514363601233257,0.2525796385781608
1.0032486597339958,0.4030953535584088,0.21289576516210165,0.251751202986526,0.14432585231761114,0.24123343388033197
1.0032957417591262,0.38301151602067063,0.2011412949920792,0.2324239377319079,0.134153773901432,0.22218420738958453
1.0033428237842565,0.3514583105172215,0.18430298072220147,0.2047530276495091,0.12064168088611968,0.195019233919293
1.003389905809387,0.3042863356687068,0.16213046460034047,0.16911475512504195,0.10415948430480476,0.16022131294132716
1.0034369878345173,0.2364892670841809,0.13518334102717836,0.12615890065588273,0.085191203115991,0.11851958010947168
1.0034840698596477,0.14805992805189566,0.10518187573840343,0.07745804013496241,0.06592209434101517,0.07136751306545447
1.003531151884778,0.05937981673678241,0.08343957762363187,0.035632586371168055,0.05421183303384574,0.03062368982256663
1.0035782339099084,0.016571701488668728,0.08097017605014259,0.012038086514572617,0.05834543926952733,0.006710498136590031
1.0036253159350388,0.04141534161646615,0.10456963327857365,0.014399178728297872,0.08352905920703979,0.006791392919454581
1.0036723979601692,0.0978579156313711,0.1427646901963605,0.03595348541122598,0.12093217251049876,0.025039671650953867
1.0037194799852995,0.14599333246590304,0.18565017421530622,0.06503465797160808,0.1642981273701657,0.050631253707757166
1.00376656201043,0.17300879075255565,0.2228433341504796,0.0922030709843016,0.20316270586475987,0.0751540835183973
1.0038136440355603,0.18229222765708752,0.25029430449362766,0.11374971918924169,0.23195281915842997,0.09516356769290549
1.0038607260606907,0.18262972424027749,0.26767973866656625,0.12736778710133306,0.253536347135683,0.10780785692535211
1.003907808085821,0.18292620727983336,0.27646604911729467,0.13485525602086357,0.2676866445418078,0.11471882927854644
1.0039548901109514,0.18798821740501145,0.2802918580084,0.13913083302593265,0.27272924341267074,0.11888016196088151
1.0040019721360818,0.19658928748535154,0.2782020640291632,0.1397247738744464,0.27120349060047105,0.11958777758218458
1.0040490541612122,0.20361099360789395,0.27360087610810624,0.1356935801867525,0.26327405202422727,0.1158547814827851
1.0040961361863425,0.20356945018764083,0.26345848865917626,0.1287855413388881,0.24979600867113208,0.1095132819984679
1.004143218211473,0.19261735903368254,0.24352648067985952,0.11776025800915435,0.22997497508473397,0.09942834364643731
1.0041903002366033,0.1692114287165738,0.2150731125150612,0.09836742477706704,0.20427724372799513,0.0813687618636864
1.0042373822617336,0.13469585530973552,0.18197325910526457,0.07519967777083232,0.17501018420032918,0.060054425819489964
1.004284464286864,0.094068350002802,0.1508779295727336,0.051842634052145065,0.144935532191398,0.038939293853419515
1.0043315463119944,0.0558705414627791,0.12390080169670646,0.03082107495389939,0.11652719795204565,0.020277244232836354
1.0043786283371248,0.029785725493520713,0.10656175961651937,0.019809015244991575,0.095117394134921,0.011156938490451048
1.0044257103622551,0.022326134922130727,0.0988829968674332,0.01684685304795892,0.0820119686694721,0.009375026872814878
1.0044727923873855,0.03362727707623793,0.09920366325263077,0.01768087969631584,0.07835084679465601,0.010538585075673
1.004519874412516,0.057935866130881315,0.10640628525895988,0.0238553638180855,0.08290288777951327,0.01630105684991265
1.0045669564376463,0.08691312585069338,0.12115787409751201,0.038233159934289905,0.09596980145828087,0.029525465646921652
1.0046140384627766,0.11302745450084833,0.14023281156856957,0.05542672474865837,0.11546617827409672,0.0450700602541177
1.004661120487907,0.13143773576861661,0.1573894893441935,0.07126698378066398,0.1357409215384342,0.05929205313097264
1.0047082025130374,0.140315951549541,0.17044034711772585,0.0817840112464661,0.15304553411646588,0.06849191107310384
1.0047552845381678,0.14016084842095028,0.17584819593490825,0.0846685751900148,0.16493228534566684,0.07046117685059475
1.0048023665632981,0.13271042804166153,0.17281619880240331,0.08028160564993014,0.16900287264025124,0.06569119371836582
1.0048494485884285,0.1199532079956697,0.16349475069218247,0.06958311394397716,0.1681711831929828,0.054917196841793164
1.0048965306135589,0.10352759540252561,0.148535124599366,0.05738407400153901,0.1603366850947928,0.04322368494363244
1.0049436126386893,0.08458770500586026,0.12981044069584663,0.04469505929439128,0.1475088150376745,0.03151014671971281
1.0049906946638196,0.06411017510052013,0.11098588280402487,0.03435472552873721,0.13286464509987694,0.022379508508041924
1.00503777668895,0.043500849939608656,0.09369962515395945,0.022887706523455283,0.11696118069533859,0.012277940827399417
1.0050848587140804,0.02497562650004661,0.07735188244882571,0.013888116903115118,0.09960449660656306,0.004825092289029236
1.0051319407392107,0.011013597455985432,0.06625338056565463,0.011624969459267675,0.08429624524346693,0.00394879223953042
1.0051790227643411,0.003334338693202587,0.05570435931832777,0.009001101837417943,0.0695888199064154,0.002661246360903495
1.0052261047894715,0.0027948227754708652,0.04409746641113674,0.005716764128480125,0.05469761286869874,0.0007350033550932065
1.0052731868146019,0.010164673003053454,0.0338584880555015,0.005314070387151807,0.039187078440281346,0.0017405169791853796
1.0053202688397322,0.026566180290056158,0.02714626945233526,0.008193549268036414,0.026760176874946057,0.005735701355397888
1.0053673508648626,0.05291846997433676,0.023689726706643717,0.011498759854167706,0.018790335227992717,0.00974970117291282
1.005414432889993,0.08828034555015178,0.024613588514727266,0.017065936640710815,0.013893523001191626,0.015737968796236377
1.0054615149151234,0.12763762777320273,0.027898465470810974,0.025647230237824777,0.01217493646032137,0.02444060800021281
1.0055085969402537,0.16155770115500132,0.034211172713588006,0.038076850744054896,0.01637729434658527,0.03644327739785114
1.0055556789653841,0.18078890709766565,0.0411390796465278,0.05135766337998839,0.0250564819323945,0.0488986544961235
1.0056027609905145,0.18307418566708303,0.04588307995707621,0.06056084021799014,0.03515857661411759,0.05717620500817035
1.0056498430156449,0.1741533504439713,0.04844399936688753,0.06655908741414072,0.041470588975148694,0.06260305338912832
1.0056969250407752,0.16242605985016223,0.05006891286414618,0.07063087442771013,0.04636806422043939,0.06623750520070307
1.0057440070659056,0.15418810481596457,0.05087630802882174,0.07107575192890922,0.049690051244577135,0.06639247323504235
1.005791089091036,0.1523552110015489,0.049913570442127485,0.0660360559428213,0.0505768174963927,0.0612853075193292
1.0058381711161664,0.15691036178882456,0.0490957536183583,0.06130313889977103,0.050751800248754565,0.056546399893693956
1.0058852531412967,0.16538784679386007,0.05235051294991173,0.06307528196508604,0.05194155946838488,0.05821112446279355
1.005932335166427,0.17322460684996496,0.053194590477072444,0.06323184659303546,0.05247059582516953,0.05832121626708469
1.0059794171915575,0.17475929729964576,0.05094306627394235,0.05880087400333982,0.05045202025099723,0.054075442699485096
1.0060264992166879,0.16548577922015562,0.04688079705766462,0.05204155960234529,0.0460601025851708,0.047717563010946665
1.0060735812418182,0.1445721481217929,0.04100986891844021,0.04234591607178599,0.03939414150385691,0.03863864854450514
1.0061206632669486,0.11538472372115638,0.03670759759404644,0.03266210113426135,0.03176122841893256,0.029667065727791046
1.006167745292079,0.08342022676517998,0.032080245590790236,0.0259645785337829,0.024845887325605637,0.023614292040931704
1.0062148273172093,0.053714935068683495,0.02965569201845859,0.01794830890199036,0.020405001253979566,0.016028426616113308
1.0062619093423397,0.029620632829972474,0.027108039602726817,0.006428025048282717,0.018237077594347686,0.004748869508359973
1.00630899136747,0.012907514843990737,0.025176994848256844,-0.004503164505502606,0.019746003613190215,-0.006276122521607012
1.0063560733926005,0.004292560353454192,0.026606726595476873,-0.010519166817943732,0.025586860910295987,-0.012799509286587215
1.0064031554177308,0.0038095921685766332,0.03213863305354752,-0.007972360122875525,0.034589941256109945,-0.01108197968547213
1.0064502374428612,0.010924293923755681,0.04541288790142715,0.0013341291502741227,0.05128414173293898,-0.0033256316872269345
1.0064973194679916,0.02453035587728399,0.06040472482948099,0.011333716656649779,0.06956174265733235,0.00499265995061475
1.006544401493122,0.042966387475684646,0.07414020792732799,0.020787738978896356,0.08720081991832312,0.012848016971593589
1.0065914835182523,0.06411092062196938,0.08684942376461077,0.03329944681240632,0.09964628991137708,0.024259441691004857
1.0066385655433827,0.08556714248621351,0.09908951120212432,0.049462130528264495,0.10765502067860754,0.03975751625783705
1.006685647568513,0.10493697207975199,0.10931555657594297,0.06485229624100503,0.11224010295710318,0.0548090047481947
1.0067327295936435,0.12014720761669652,0.11516722048274866,0.07640706666955516,0.11261300325057666,0.06638132402984115
1.0067798116187738,0.12974860817624662,0.11713410837230882,0.08294186479002422,0.10792748774779921,0.0733316213308336
1.0068268936439042,0.1331160769266914,0.11559348872965557,0.08436945777741765,0.09928450730972892,0.0754785877675353
1.0068739756690346,0.13051634907150206,0.10934126629839591,0.08386978816652868,0.08783483828949021,0.07593018911871578
1.006921057694165,0.12301693370584733,0.09790651475230291,0.08185258015702256,0.07574451056521626,0.07492680529011306
1.0069681397192953,0.11219272060745543,0.08348353130936959,0.07585112215539112,0.06264644616952399,0.0700422856472381
1.0070152217444257,0.09964098937742749,0.06912276394445917,0.06985230351433948,0.04903987667381852,0.06522794205292745
1.007062303769556,0.08648287672211809,0.05644084122524105,0.06302251331950957,0.03719233578309949,0.059451589844225085
1.0071093857946865,0.07315337862299943,0.046578415294859954,0.053521194673379444,0.027248432928512704,0.050859646799583096
1.0071564678198168,0.05967551136841471,0.03964543522021465,0.042771215350936226,0.02001191285972743,0.04079377680621534
1.0072035498449472,0.046352747241279996,0.03195382707797634,0.029687677967592516,0.014426571780058014,0.02826203102908271
1.0072506318700776,0.03458526276589038,0.02719297577803553,0.01916866027493343,0.012425181753511937,0.017965115239868667
1.007297713895208,0.02727830692374265,0.026007986312695765,0.01473006896934623,0.013178824779189089,0.01347601682226285
1.0073447959203383,0.0280866607277734,0.030430716584088982,0.01711698325886342,0.017317594519342925,0.01547926540951108
1.0073918779454687,0.03925806445151868,0.0431111945354688,0.028584290137595406,0.026940851886803143,0.026036099105681016
1.007438959970599,0.059562255279517966,0.059609676867598146,0.043832242766228824,0.038785379909086676,0.040174833635537296
1.0074860419957294,0.08449757331606145,0.0754603657350308,0.058037587268334905,0.05089949031173243,0.05327448075366977
1.0075331240208598,0.10858230355013457,0.0876918958794858,0.06858033205585247,0.06278463028960254,0.06276645128211526
1.0075802060459902,0.12742598805780986,0.09534019361451909,0.07621925524513734,0.07059495012976152,0.06973019804124217
1.0076272880711206,0.13840784538629322,0.09647013355595242,0.07904744927672683,0.07364815265497177,0.07229847616335584
1.007674370096251,0.14057521646913557,0.09223310970198915,0.0769603579802706,0.07432181415184368,0.07015385564365381
1.0077214521213813,0.1345761316442056,0.08484093112588284,0.07084930100861353,0.07097871989191781,0.06432869185990725
1.0077685341465117,0.12269802495893224,0.07378498661310139,0.062425783036096825,0.06361270998116136,0.056546497268967946
1.007815616171642,0.10844877640211482,0.062249689030168386,0.054884533548136764,0.05428627465914001,0.04983045471300161
