freq,gls,usurper,pdc_unbiased,shape_periodogram,shift_periodogram
1.0,0.02176245538732735,0.04897273281274851,-0.007335655112181927,0.032462397498618956,-0.013075748612760717
1.0000470820251304,0.05134779247241603,0.09538967825415808,0.016081221596065367,0.07423241675816877,0.002438931660447535
1.0000941640502607,0.09689124580742478,0.14568650613679987,0.05094334186944231,0.12463178442000583,0.02790336257387241
1.0001412460753911,0.14848755125694818,0.19592992321707917,0.08456655871201842,0.17304554220938329,0.05299731969453785
1.0001883281005215,0.19664060203551523,0.23666691709554677,0.10917973127593883,0.21359745423121643,0.07097705978790278
1.0002354101256519,0.23592916525893703,0.26379708488452847,0.12678225514793529,0.24209069791585333,0.08427322303639534
1.0002824921507822,0.26363730657080775,0.2807139597919998,0.13936052532630389,0.25951925336738463,0.09444999142726115
1.0003295741759126,0.2780607972143743,0.28947965444473645,0.14663287491158739,0.2684762274983621,0.10058546465628133
1.000376656201043,0.27778293516045677,0.29123964337428004,0.14742341655727248,0.27010061264224583,0.10115461084339354
1.0004237382261734,0.2619162710265795,0.2836135114680102,0.139633635428265,0.2635158958249136,0.09410082562443742
1.0004708202513037,0.23107843684954268,0.26450536979819333,0.12167319492364326,0.24741632413287296,0.07815141890105068
1.0005179022764341,0.1884924826566669,0.23927308098342795,0.09811663264576473,0.22651650155315872,0.05752719716031384
1.0005649843015645,0.1401213853463462,0.22142457198095883,0.07552593926328457,0.21255119336129513,0.03698844069575676
1.0006120663266949,0.09311329616242185,0.21377879215488035,0.056936636782797936,0.20746023282325257,0.01909180101273919
1.0006591483518252,0.05338098213176131,0.21708049361002646,0.04656239048066332,0.20991838998530496,0.008172941207954972
1.0007062303769556,0.024158292773911582,0.2227332903403952,0.0379052596807291,0.21423916867673265,-0.0013577443187622
1.000753312402086,0.006389706849983347,0.22136097808940533,0.024925530867037873,0.2129974605745113,-0.014213136888250679
1.0008003944272164,4.4957735270936574e-05,0.21940036728963444,0.013623927240606612,0.2084666252171349,-0.024729880118236704
1.0008474764523467,0.004476680458159687,0.21891412720190512,0.005279248516488982,0.21016082751008458,-0.03343698197464319
1.000894558477477,0.016631009383087918,0.23068541477923515,0.00604487589630294,0.22330974539795756,-0.035194213181673775
1.0009416405026075,0.030279800796216314,0.2593224730339339,0.01614856324889533,0.2502994651257379,-0.030202228565032654
1.0009887225277379,0.04019506929021177,0.2996926099716209,0.031662352407458065,0.28804855774336063,-0.021704062016854295
1.0010358045528682,0.045271217739530065,0.3419924108426356,0.049643587368788454,0.3286988705936109,-0.010999596981553821
1.0010828865779986,0.04665854735345898,0.3719512347456566,0.06394396252727896,0.36314731313036525,-0.002647756056923427
1.001129968603129,0.04557434040645729,0.38535017835459323,0.06951556918541625,0.38232995115633167,-0.00044306172156003695
1.0011770506282593,0.04281463251624272,0.37958215405836276,0.06676401531502141,0.3838751440677033,-0.0036966635446221523
1.0012241326533897,0.03911406922799136,0.35958214702715324,0.05756222886158259,0.37096763336682387,-0.010971659247570863
1.00127121467852,0.035734840091298535,0.3317441697719317,0.04469056838221148,0.34898480802532256,-0.020201865833117495
1.0013182967036505,0.034632288517627896,0.3106311663302921,0.03354469161607427,0.3327214070099383,-0.028610112372414804
1.0013653787287808,0.03686446430802818,0.31206000509618154,0.03235087082016887,0.3329032159027015,-0.02989248999516493
1.0014124607539112,0.040499198873267514,0.332159226704888,0.04235422606047071,0.3486374358008147,-0.02258945165816358
1.0014595427790416,0.04245011553894062,0.35769029371193856,0.05148956578485458,0.3707042433448562,-0.01737744461971881
1.001506624804172,0.04142424671447975,0.37518694507938083,0.057489670337512934,0.3845169087509862,-0.01376146218369691
1.0015537068293023,0.03772147907862947,0.3763241802280417,0.05838903434484734,0.3830453384769016,-0.012502872735221068
1.0016007888544327,0.032149333674356434,0.3603469026940112,0.05286952532393206,0.36310256428199766,-0.01438858657914033
1.001647870879563,0.025799799790141527,0.3270425061353021,0.040386054375886556,0.3260099760499652,-0.020133818109461684
1.0016949529046935,0.020580986012262138,0.2825878388626784,0.02276083148008517,0.2792787191353147,-0.029119655985437063
1.0017420349298238,0.01993155776046648,0.24461745367037618,0.008396000375120035,0.2399782307223564,-0.03605074611505296
1.0017891169549542,0.027489951613850306,0.22806813835137155,0.00883020356959996,0.22270824974227876,-0.032272496161624
1.0018361989800846,0.042074300128446054,0.2301149332018457,0.022145335055818467,0.22639877934037245,-0.019546003921935368
1.001883281005215,0.05845891480384451,0.2457787730662499,0.04104344236602053,0.2433973672835049,-0.0035989816826998695
1.0019303630303453,0.07582159493280267,0.26413443391078917,0.05832937685591873,0.259661046122602,0.011019815896194265
1.0019774450554757,0.09824195100672209,0.2718847975056377,0.07041397317164165,0.26363998319695736,0.02268270087034193
1.002024527080606,0.1303669711588208,0.2590796946653691,0.07896421651578898,0.2500810854342188,0.03386948957397485
1.0020716091057364,0.17464242099810953,0.23923721275644388,0.08832693698111686,0.2319156209610563,0.04661656476892316
1.0021186911308668,0.22917237164395338,0.24213809405104011,0.11355266104308831,0.23072042078304475,0.07258030098412444
1.0021657731559972,0.2864808872447173,0.26434764116822423,0.14880372324738836,0.2462187126885507,0.10629297007593015
1.0022128551811276,0.335488571803669,0.2888244684930904,0.17945522269565434,0.2651605853923278,0.13523729491025738
1.002259937206258,0.3667004160945303,0.30435028462236136,0.20044309409803335,0.27681750053120946,0.15555496959732817
1.0023070192313883,0.37630521047742305,0.30791199146124726,0.20989430295355302,0.2779725110891016,0.16532554408197234
1.0023541012565187,0.3658732131217113,0.3000022590854819,0.20800353236518512,0.2691542615704279,0.16450993877393705
1.002401183281649,0.3393357840705059,0.2825684831596502,0.19716291122807472,0.2521536385251799,0.15551029224448934
1.0024482653067794,0.30043566038503033,0.2578918976801024,0.1783931936762516,0.22837612347445865,0.13948791744140482
1.0024953473319098,0.25183659939415354,0.22663791602613734,0.15384153094853617,0.19764544996467978,0.11901054604399494
1.0025424293570402,0.1956066522565673,0.18493927772159413,0.12081929242955049,0.15915147348574807,0.0917989763132684
1.0025895113821706,0.13475970805500284,0.1283888752551469,0.07564140824241966,0.10999494410963907,0.05502888446235748
1.002636593407301,0.07582916802294695,0.06942143149200787,0.025728531183742454,0.06138702716993114,0.014269725273366996
1.0026836754324313,0.03145358980808763,0.03754461923997409,-0.0040036080406334615,0.032193964414906046,-0.009748578440273733
1.0027307574575617,0.01779891286180085,0.03978353140573057,-0.006351274616742859,0.03153772762262741,-0.011939996018777014
1.002777839482692,0.04358985242398123,0.0564032180253619,0.006591376950054447,0.05264715623763428,-0.003015332454359552
1.0028249215078224,0.1037077589167159,0.09394916115235241,0.04281328660270074,0.09161430989817734,0.025727556003182512
1.0028720035329528,0.18101238562213362,0.1553588745753983,0.0979436666785688,0.1485561677337364,0.07062074315728391
1.0029190855580832,0.25636899888384335,0.21971574019056675,0.15380629462607742,0.2025303206030997,0.11821348258441744
1.0029661675832136,0.31832235074100634,0.2724753127942965,0.19704252226634572,0.23842805513059334,0.1572990607993904
1.003013249608344,0.36361141655314383,0.3047190516923328,0.228525784613192,0.261511030917827,0.18699315352778345
1.0030603316334743,0.39341420767750745,0.3248166013292636,0.24979870354304085,0.2755576042431211,0.20764364715973585
1.0031074136586047,0.4102870696014962,0.33507116951816646,0.26258314989231946,0.28197751971903984,0.22042918026590336
1.003154495683735,0.41662904201390033,0.3376671792019385,0.266777273312063,0.2822120600866905,0.2248464144699999
1.0032015777088654,0.41405085665469693,0.33331734391476653,0.26326150551395927,0.27630417244636585,0.22177398872965903
1.0032486597339958,0.4030953535584088,0.32184806042095326,0.251751202986526,0.2640337155495693,0.21104608076889694
1.0032957417591262,0.38301151602067063,0.3029680673465876,0.2324239377319079,0.24534434398300045,0.19311424975708918
1.0033428237842565,0.3514583105172215,0.2759851172458433,0.2047530276495091,0.21995201964179426,0.16784213596946085
1.003389905809387,0.3042863356687068,0.24070294693611877,0.16911475512504195,0.1883856779423311,0.13598120056848723
1.0034369878345173,0.2364892670841809,0.19784224861656605,0.12615890065588273,0.15145135616112254,0.09843706629296743
1.0034840698596477,0.14805992805189566,0.15054943923638656,0.07745804013496241,0.11284580407485942,0.05633731982031232
1.003531151884778,0.05937981673678241,0.11630800103037828,0.035632586371168055,0.0873274462943496,0.019392066532712065
1.0035782339099084,0.016571701488668728,0.11344691643345489,0.012038086514572617,0.09120612136253231,-0.004626160775094444
1.0036253159350388,0.04141534161646615,0.15262898306366918,0.014399178728297872,0.13359569419606768,-0.01001795465755734
1.0036723979601692,0.0978579156313711,0.2181750342294017,0.03595348541122598,0.200409507351496,-0.0007714801231511969
1.0037194799852995,0.14599333246590304,0.2930828162609308,0.06503465797160808,0.277551611893192,0.014622211450679762
1.00376656201043,0.17300879075255565,0.3578406474654623,0.0922030709843016,0.346100648804931,0.030535845405771558
1.0038136440355603,0.18229222765708752,0.405303705270997,0.11374971918924169,0.39617725156454925,0.044791070239188234
1.0038607260606907,0.18262972424027749,0.43449131644596767,0.12736778710133306,0.4297635158678232,0.05396988977298402
1.003907808085821,0.18292620727983336,0.4485603421014541,0.13485525602086357,0.448988147638685,0.059093330209481924
1.0039548901109514,0.18798821740501145,0.45328406846897046,0.13913083302593265,0.4546437925273975,0.06297454555827374
1.0040019721360818,0.19658928748535154,0.4487879130596633,0.1397247738744464,0.4495025401498616,0.06449269565678194
1.0040490541612122,0.20361099360789395,0.4369856938875373,0.1356935801867525,0.43355584991139684,0.06260444991036408
1.0040961361863425,0.20356945018764083,0.41534502250456573,0.1287855413388881,0.40759846044735304,0.059282277968333956
1.004143218211473,0.19261735903368254,0.3809233521046144,0.11776025800915435,0.37138994135941045,0.053412302195480044
1.0041903002366033,0.1692114287165738,0.33319144033620685,0.09836742477706704,0.3238593948614689,0.040996807307233964
1.0042373822617336,0.13469585530973552,0.27826914807939745,0.07519967777083232,0.2703852509406964,0.026388360354258535
1.004284464286864,0.094068350002802,0.22638431076426868,0.051842634052145065,0.2183956287042505,0.011962831183010801
1.0043315463119944,0.0558705414627791,0.18135135401513397,0.03082107495389939,0.172041819077617,-0.0007071523461244679
1.0043786283371248,0.029785725493520713,0.15220090529251804,0.019809015244991575,0.13985107724119925,-0.005790088701939598
1.0044257103622551,0.022326134922130727,0.13898069935904586,0.01684685304795892,0.12277329236087654,-0.005610829146501923
1.0044727923873855,0.03362727707623793,0.1398404527299293,0.01768087969631584,0.1212974525711192,-0.004514883100918482
1.004519874412516,0.057935866130881315,0.15232594478847894,0.0238553638180855,0.1327019562081207,-0.0004652369331688238
1.0045669564376463,0.08691312585069338,0.17739935639792526,0.038233159934289905,0.1573873690369572,0.009366221923927137
1.0046140384627766,0.11302745450084833,0.2095576838366337,0.05542672474865837,0.19097764636860026,0.020533844921774007
1.004661120487907,0.13143773576861661,0.24052385671265863,0.07126698378066398,0.2255565220323352,0.0303682900926297
1.0047082025130374,0.140315951549541,0.26462436206486656,0.0817840112464661,0.2543222706262962,0.036009295239032214
1.0047552845381678,0.14016084842095028,0.2767556148957596,0.0846685751900148,0.2727418234488432,0.03572553896182769
1.0048023665632981,0.13271042804166153,0.2754916805169664,0.08028160564993014,0.277875408137476,0.03028721889667033
1.0048494485884285,0.1199532079956697,0.2632513286290483,0.06958311394397716,0.2728085277175814,0.02017021166661343
1.0048965306135589,0.10352759540252561,0.2410453504760059,0.05738407400153901,0.25588013527798475,0.010747038842813863
1.0049436126386893,0.08458770500586026,0.21183512430542414,0.04469505929439128,0.230497723351045,0.002504715250205751
1.0049906946638196,0.06411017510052013,0.1822561606540601,0.03435472552873721,0.20297304118686632,-0.00285298859374701
1.00503777668895,0.043500849939608656,0.15405937503788186,0.022887706523455283,0.17494784191038412,-0.009173590610655176
1.0050848587140804,0.02497562650004661,0.1265728720489407,0.013888116903115118,0.1457041770490169,-0.012750220727372294
1.0051319407392107,0.011013597455985432,0.10657457885963054,0.011624969459267675,0.12160977752066474,-0.010574375261319558
1.0051790227643411,0.003334338693202587,0.0892135362232995,0.009001101837417943,0.10055407972228296,-0.009327337461532066
1.0052261047894715,0.0027948227754708652,0.0694169674080734,0.005716764128480125,0.07804555462342526,-0.008477492860915621
1.0052731868146019,0.010164673003053454,0.051581862514865434,0.005314070387151807,0.05614605673151833,-0.004906281390296642
1.0053202688397322,0.026566180290056158,0.03957200635948597,0.008193549268036414,0.03954431688901342,0.000928614196329116
1.0053673508648626,0.05291846997433676,0.033307353798538365,0.011498759854167706,0.029606177399482937,0.005974180131398832
1.005414432889993,0.08828034555015178,0.032870809749917226,0.017065936640710815,0.024229944677405666,0.012421520879493542
1.0054615149151234,0.12763762777320273,0.0367767400768862,0.025647230237824777,0.023774277688923342,0.020948780233751515
1.0055085969402537,0.16155770115500132,0.04623763391325382,0.038076850744054896,0.03124708351979752,0.03184387699204887
1.0055556789653841,0.18078890709766565,0.05739823624828317,0.05135766337998839,0.04359058475398102,0.04272262922610611
1.0056027609905145,0.18307418566708303,0.06606619804932948,0.06056084021799014,0.056461213240109304,0.04951322270536745
1.0056498430156449,0.1741533504439713,0.07128192982862798,0.06655908741414072,0.06464951176272869,0.05398834590211731
1.0056969250407752,0.16242605985016223,0.07450455778640268,0.07063087442771013,0.07078903377389972,0.05693090166976441
1.0057440070659056,0.15418810481596457,0.07690967963390087,0.07107575192890922,0.07568443519983947,0.056510268780914634
1.005791089091036,0.1523552110015489,0.0766857602449921,0.0660360559428213,0.07774424893314495,0.05116262834970357
1.0058381711161664,0.15691036178882456,0.07655303988481851,0.06130313889977103,0.07918563707666355,0.04622678363784311
1.0058852531412967,0.16538784679386007,0.08148917764273296,0.06307528196508604,0.08302136229506304,0.047302912123544726
1.005932335166427,0.17322460684996496,0.08495128680168108,0.06323184659303546,0.08674903856280428,0.04680038249582831
1.0059794171915575,0.17475929729964576,0.08367233666109335,0.05880087400333982,0.08593798934632026,0.042557575282412476
1.0060264992166879,0.16548577922015562,0.07850957345710213,0.05204155960234529,0.08050657915986249,0.036833459033497946
1.0060735812418182,0.1445721481217929,0.07010626234064064,0.04234591607178599,0.07133131100194452,0.02888635786676356
1.0061206632669486,0.11538472372115638,0.0631242530962675,0.03266210113426135,0.061454555592104596,0.021095926183759932
1.006167745292079,0.08342022676517998,0.05601973473695794,0.0259645785337829,0.051879583344907595,0.016210988191199854
1.0062148273172093,0.053714935068683495,0.05192955498966071,0.01794830890199036,0.045610251271793883,0.009440727072888505
1.0062619093423397,0.029620632829972474,0.047110377644894,0.006428025048282717,0.04066186589598019,-0.0010112068098942755
1.00630899136747,0.012907514843990737,0.04272576365404736,-0.004503164505502606,0.03839210870507516,-0.011360809237186876
1.0063560733926005,0.004292560353454192,0.04328681348686253,-0.010519166817943732,0.04183315914739057,-0.017904433850980096
1.0064031554177308,0.0038095921685766332,0.05027299622149793,-0.007972360122875525,0.05079828398799597,-0.017022578564282423
1.0064502374428612,0.010924293923755681,0.06995530255338128,0.0013341291502741227,0.07274276439645991,-0.011837009566008904
1.0064973194679916,0.02453035587728399,0.09323493420169193,0.011333716656649779,0.09885926132432996,-0.0067128229425636775
1.006544401493122,0.042966387475684646,0.11528119709018159,0.020787738978896356,0.1245969501081848,-0.0020348713829053274
1.0065914835182523,0.06411092062196938,0.1356280056604242,0.03329944681240632,0.14542654387938697,0.006614981755122364
1.0066385655433827,0.08556714248621351,0.1560691556469503,0.049462130528264495,0.16315308263337452,0.019545251624438823
1.006685647568513,0.10493697207975199,0.17384938092897512,0.06485229624100503,0.17701314488058612,0.03249649823586133
1.0067327295936435,0.12014720761669652,0.1849423497129073,0.07640706666955516,0.18421613024769284,0.04284688371133549
1.0067798116187738,0.12974860817624662,0.18832009729478885,0.08294186479002422,0.1828561554080785,0.04966396946025099
1.0068268936439042,0.1331160769266914,0.1842514911958132,0.08436945777741765,0.1731094253566001,0.052788141393510256
1.0068739756690346,0.13051634907150206,0.17333865506972065,0.08386978816652868,0.15787225645641179,0.054921726692814324
1.006921057694165,0.12301693370584733,0.15500941599825538,0.08185258015702256,0.1384121729430394,0.05627292226584511
1.0069681397192953,0.11219272060745543,0.1320113478891234,0.07585112215539112,0.11557447083311863,0.05426390728492971
1.0070152217444257,0.09964098937742749,0.10767552386635981,0.06985230351433948,0.09063510335432648,0.05267357494787109
1.007062303769556,0.08648287672211809,0.08588565005065733,0.06302251331950957,0.06834040735889357,0.04984249606140163
1.0071093857946865,0.07315337862299943,0.06806357500325445,0.053521194673379444,0.0496743544640826,0.043772814976171255
1.0071564678198168,0.05967551136841471,0.05498531969215811,0.042771215350936226,0.03590442763364707,0.0356336456242972
1.0072035498449472,0.046352747241279996,0.043018641497416556,0.029687677967592516,0.025489923119110473,0.024617362513134896
1.0072506318700776,0.03458526276589038,0.036338097420237254,0.01916866027493343,0.020974060695090096,0.015076881305267957
1.007297713895208,0.02727830692374265,0.03568117274685046,0.01473006896934623,0.021897544040529772,0.010542968470514466
1.0073447959203383,0.0280866607277734,0.04383042336686499,0.01711698325886342,0.029877111661021385,0.011454992702695939
1.0073918779454687,0.03925806445151868,0.06471363502972881,0.028584290137595406,0.04857351131918515,0.0193863976516053
1.007438959970599,0.059562255279517966,0.09144371738812529,0.043832242766228824,0.07198048950408725,0.030238404845912743
1.0074860419957294,0.08449757331606145,0.11687535653408086,0.058037587268334905,0.09499834974015058,0.040199398480381295
1.0075331240208598,0.10858230355013457,0.13679301259552842,0.06858033205585247,0.11527378140851806,0.04708805744120122
1.0075802060459902,0.12742598805780986,0.14897550547745816,0.07621925524513734,0.12775906452103486,0.05250598926581154
1.0076272880711206,0.13840784538629322,0.15087585955236832,0.07904744927672683,0.1312885878384808,0.05471049109968999
1.007674370096251,0.14057521646913557,0.14469128501789813,0.0769603579802706,0.12911297862337662,0.05300856948138668
1.0077214521213813,0.1345761316442056,0.13256180441492274,0.07084930100861353,0.12025276075014396,0.04847142073193899
1.0077685341465117,0.12269802495893224,0.11439371272081446,0.062425783036096825,0.10509037918024841,0.04276764829954749
1.007815616171642,0.10844877640211482,0.09502528284901893,0.054884533548136764,0.08741802183017258,0.03841959030259349
