freq,gls,usurper,pdc_unbiased,shape_periodogram,shift_periodogram
1.0,0.02176245538732735,0.028248210255779005,-0.007335655112181927,0.0057503454258150104,-0.0075639890096853915
1.0000470820251304,0.05134779247241603,0.042502828397735115,0.016081221596065367,0.0121078610441058,0.015575811542879044
1.0000941640502607,0.09689124580742478,0.056398284278149934,0.05094334186944231,0.026278079512089273,0.04985157768322768
1.0001412460753911,0.14848755125694818,0.07113109265491527,0.08456655871201842,0.042334135490701114,0.0828635958594276
1.0001883281005215,0.19664060203551523,0.08469711253918928,0.10917973127593883,0.059621601614483356,0.10689089655789423
1.0002354101256519,0.23592916525893703,0.09389174265862958,0.12678225514793529,0.07278435334162743,0.12410636720389225
1.0002824921507822,0.26363730657080775,0.09763520912349766,0.13936052532630389,0.08056657880120353,0.1364923607580049
1.0003295741759126,0.2780607972143743,0.0999784075622362,0.14663287491158739,0.08552060345825953,0.14365337385598922
1.000376656201043,0.27778293516045677,0.10100188673103606,0.14742341655727248,0.08768236073235515,0.14438822000228868
1.0004237382261734,0.2619162710265795,0.09779501730616329,0.139633635428265,0.08795946562979691,0.13655670705218528
1.0004708202513037,0.23107843684954268,0.09046065839776987,0.12167319492364326,0.08512644959595911,0.11860380851389539
1.0005179022764341,0.1884924826566669,0.08069895608818752,0.09811663264576473,0.08023902648776338,0.09511568364665128
1.0005649843015645,0.1401213853463462,0.07302711206565805,0.07552593926328457,0.07511931301395204,0.07263174273697888
1.0006120663266949,0.09311329616242185,0.067754165120717,0.056936636782797936,0.06891060805418452,0.05422294211147579
1.0006591483518252,0.05338098213176131,0.0660238088496623,0.04656239048066332,0.06037294433266343,0.0441516128429688
1.0007062303769556,0.024158292773911582,0.06355788663749025,0.0379052596807291,0.04950127397333303,0.035904765778570755
1.000753312402086,0.006389706849983347,0.0595446322024689,0.024925530867037873,0.036421521103505196,0.023437541793443043
1.0008003944272164,4.4957735270936574e-05,0.057751792345137345,0.013623927240606612,0.02474640915538858,0.012608342321083467
1.0008474764523467,0.004476680458159687,0.05515003943570319,0.005279248516488982,0.021113599687260495,0.004415520054134323
1.000894558477477,0.016631009383087918,0.0578596510465894,0.00604487589630294,0.02403152220253685,0.005062101724821052
1.0009416405026075,0.030279800796216314,0.0674965845843004,0.01614856324889533,0.03282259127412025,0.014806121837927228
1.0009887225277379,0.04019506929021177,0.08165885894928543,0.031662352407458065,0.047970412105710514,0.0297182728476468
1.0010358045528682,0.045271217739530065,0.09343567021525843,0.049643587368788454,0.06598402157382838,0.0470253205665675
1.0010828865779986,0.04665854735345898,0.09895444622788926,0.06394396252727896,0.08328983268108624,0.060727004468509226
1.001129968603129,0.04557434040645729,0.10122135513405889,0.06951556918541625,0.09616121123054612,0.06587034459010148
1.0011770506282593,0.04281463251624272,0.09729895789443474,0.06676401531502141,0.10239584492471047,0.06289168713426649
1.0012241326533897,0.03911406922799136,0.08831958415112005,0.05756222886158259,0.10318547650570647,0.053614609051646986
1.00127121467852,0.035734840091298535,0.07710142862746287,0.04469056838221148,0.1004114057058119,0.04077876148148597
1.0013182967036505,0.034632288517627896,0.06785870036092377,0.03354469161607427,0.09802355893623141,0.029671226945748783
1.0013653787287808,0.03686446430802818,0.06733801571521689,0.03235087082016887,0.09689727479939544,0.028515095907981205
1.0014124607539112,0.040499198873267514,0.07379055856953211,0.04235422606047071,0.09817352681881542,0.03851417312198288
1.0014595427790416,0.04245011553894062,0.08102211300621473,0.05148956578485458,0.09978854585003501,0.047632740125049054
1.001506624804172,0.04142424671447975,0.08469788434210049,0.057489670337512934,0.09685179828321813,0.053765713681844615
1.0015537068293023,0.03772147907862947,0.08428375656667748,0.05838903434484734,0.08888161886092627,0.05495306299348558
1.0016007888544327,0.032149333674356434,0.08040027130944047,0.05286952532393206,0.07538265245935002,0.04990773743551985
1.001647870879563,0.025799799790141527,0.07290811429772329,0.040386054375886556,0.056944189435269,0.03809922369693147
1.0016949529046935,0.020580986012262138,0.060903767948348814,0.02276083148008517,0.03736193824195018,0.021235397936620493
1.0017420349298238,0.01993155776046648,0.052218465960238776,0.008396000375120035,0.022390894493994007,0.007478581455739504
1.0017891169549542,0.027489951613850306,0.050796699407770284,0.00883020356959996,0.019689078562423495,0.00802219978178167
1.0018361989800846,0.042074300128446054,0.052743251891240996,0.022145335055818467,0.026238037904287408,0.021065773347855712
1.001883281005215,0.05845891480384451,0.060413570648781556,0.04104344236602053,0.039578412159549776,0.03943138553546712
1.0019303630303453,0.07582159493280267,0.07144444456899482,0.05832937685591873,0.05453751551092052,0.05615294204960077
1.0019774450554757,0.09824195100672209,0.07963807942794814,0.07041397317164165,0.06982453349886956,0.06769523212537773
1.002024527080606,0.1303669711588208,0.07897693268540877,0.07896421651578898,0.08084447183563796,0.07588112406515954
1.0020716091057364,0.17464242099810953,0.0740102762501499,0.08832693698111686,0.08787393522666509,0.08504007665594422
1.0021186911308668,0.22917237164395338,0.07728893073875635,0.11355266104308831,0.09340931996695923,0.11020011147616329
1.0021657731559972,0.2864808872447173,0.08578780680358358,0.14880372324738836,0.09909748066063222,0.14547547337392902
1.0022128551811276,0.335488571803669,0.0940994237274176,0.17945522269565434,0.1040292099490317,0.1761967266807314
1.002259937206258,0.3667004160945303,0.0993424759169439,0.20044309409803335,0.10643678840768243,0.19727663198600504
1.0023070192313883,0.37630521047742305,0.10080643310570708,0.20989430295355302,0.10551643054314708,0.20680872008535717
1.0023541012565187,0.3658732131217113,0.09840871776665282,0.20800353236518512,0.10140799078628847,0.20497855883947338
1.002401183281649,0.3393357840705059,0.09374171512611387,0.19716291122807472,0.09409512888940566,0.19421767834511763
1.0024482653067794,0.30043566038503033,0.08713250037605094,0.1783931936762516,0.08246822856477687,0.17562517052177032
1.0024953473319098,0.25183659939415354,0.07737636583822366,0.15384153094853617,0.06558706378276496,0.15145541601831863
1.0025424293570402,0.1956066522565673,0.06242991193298003,0.12081929242955049,0.04491474059719312,0.1190478901384942
1.0025895113821706,0.13475970805500284,0.043186754372349714,0.07564140824241966,0.021590620587942044,0.07472390647377375
1.002636593407301,0.07582916802294695,0.02571425204770887,0.025728531183742454,0.0029395066228358304,0.025587622201915232
1.0026836754324313,0.03145358980808763,0.021581750161620124,-0.0040036080406334615,-0.002068087394474021,-0.003916020586690909
1.0027307574575617,0.01779891286180085,0.03142095926148878,-0.006351274616742859,0.01144458643502447,-0.0068127710224286705
1.002777839482692,0.04358985242398123,0.03818446459317154,0.006591376950054447,0.03633214879471405,0.005108852484514992
1.0028249215078224,0.1037077589167159,0.0499928449170991,0.04281328660270074,0.05938681744162346,0.04043535966405441
1.0028720035329528,0.18101238562213362,0.06982619693823804,0.0979436666785688,0.07674786624089264,0.09505696642654358
1.0029190855580832,0.25636899888384335,0.09195205511985231,0.15380629462607742,0.08749622233110632,0.15080424405073709
1.0029661675832136,0.31832235074100634,0.11075131358126614,0.19704252226634572,0.0896874427751982,0.19419059272457104
1.003013249608344,0.36361141655314383,0.12018019383869269,0.228525784613192,0.09049672476142505,0.2258182965089345
1.0030603316334743,0.39341420767750745,0.12519857699057146,0.24979870354304085,0.09016851082904767,0.24720923002454845
1.0031074136586047,0.4102870696014962,0.1263381515063643,0.26258314989231946,0.08809280545479457,0.2600933672177627
1.003154495683735,0.41662904201390033,0.12522525020675504,0.266777273312063,0.08477295376539258,0.26435995672769
1.0032015777088654,0.41405085665469693,0.12186603922653039,0.26326150551395927,0.07991642725494211,0.26090790014890414
1.0032486597339958,0.4030953535584088,0.11626149478794455,0.251751202986526,0.07330511453203248,0.24947386339543018
1.0032957417591262,0.38301151602067063,0.10822396799369939,0.2324239377319079,0.06490465619153052,0.23026524845088375
1.0033428237842565,0.3514583105172215,0.09738789843888387,0.2047530276495091,0.05449269750750232,0.20279507644830602
1.003389905809387,0.3042863356687068,0.08343062889407883,0.16911475512504195,0.042414985877908276,0.16746920550512281
1.0034369878345173,0.2364892670841809,0.06697405588274301,0.12615890065588273,0.02900085362061525,0.1249535614946218
1.0034840698596477,0.14805992805189566,0.04911210563783259,0.07745804013496241,0.015439424633091874,0.07677964551095641
1.003531151884778,0.05937981673678241,0.03598605235857189,0.035632586371168055,0.0052569732284974595,0.03538970463811376
1.0035782339099084,0.016571701488668728,0.03292731291716238,0.012038086514572617,0.002259907342417446,0.011936050607534866
1.0036253159350388,0.04141534161646615,0.04321174443242135,0.014399178728297872,0.010272794518630888,0.013969478405466864
1.0036723979601692,0.0978579156313711,0.061101639607101924,0.03595348541122598,0.026191945369423077,0.03487031865920382
1.0037194799852995,0.14599333246590304,0.08244368589170367,0.06503465797160808,0.04592470370353095,0.06318739100074473
1.00376656201043,0.17300879075255565,0.09849874676392895,0.0922030709843016,0.0652545095549543,0.08969053958180498
1.0038136440355603,0.18229222765708752,0.10996663253563446,0.11374971918924169,0.07786922084747536,0.11087553866989393
1.0038607260606907,0.18262972424027749,0.1158285888866127,0.12736778710133306,0.08805985465483304,0.12423504598173814
1.003907808085821,0.18292620727983336,0.1170900039645383,0.13485525602086357,0.09770350461449119,0.1314871262051879
1.0039548901109514,0.18798821740501145,0.11739772144829447,0.13913083302593265,0.10302650689694678,0.13564553281802982
1.0040019721360818,0.19658928748535154,0.1158038617566795,0.1397247738744464,0.10432749802610301,0.13620943592646784
1.0040490541612122,0.20361099360789395,0.11303514616814073,0.1356935801867525,0.1025557678873884,0.132200182615819
1.0040961361863425,0.20356945018764083,0.10665067692007511,0.1287855413388881,0.09940311851597393,0.12533801123134686
1.004143218211473,0.19261735903368254,0.0957445201167578,0.11776025800915435,0.0937285319801812,0.11441816194777654
1.0041903002366033,0.1692114287165738,0.08181284578377786,0.09836742477706704,0.08430486178673897,0.09523512062556605
1.0042373822617336,0.13469585530973552,0.06602226304093124,0.07519967777083232,0.07152857721034647,0.07243112433317994
1.004284464286864,0.094068350002802,0.05098990130661816,0.051842634052145065,0.05601531331958523,0.049603595975031244
1.0043315463119944,0.0558705414627791,0.0380791678701974,0.03082107495389939,0.038675845841968044,0.029243486958906353
1.0043786283371248,0.029785725493520713,0.03016805586475226,0.019809015244991575,0.022496291571257883,0.018881157605749856
1.0044257103622551,0.022326134922130727,0.0274345634362696,0.01684685304795892,0.01018141934166314,0.01641900427232468
1.0044727923873855,0.03362727707623793,0.02916693337336545,0.01768087969631584,0.00433460359079818,0.0174898140852888
1.004519874412516,0.057935866130881315,0.03462404923364509,0.0238553638180855,0.004722017510104606,0.023643569679625085
1.0045669564376463,0.08691312585069338,0.043874284898003935,0.038233159934289905,0.012269046006515868,0.03770541259717647
1.0046140384627766,0.11302745450084833,0.05565776412398384,0.05542672474865837,0.026547080438496132,0.0543230278306098
1.004661120487907,0.13143773576861661,0.06656825210730527,0.07126698378066398,0.042982770776564094,0.06953351992194755
1.0047082025130374,0.140315951549541,0.07540645765357598,0.0817840112464661,0.059551973026386366,0.07945353859353424
1.0047552845381678,0.14016084842095028,0.07891012711113685,0.0846685751900148,0.07339911156486131,0.08185808450146514
1.0048023665632981,0.13271042804166153,0.07731797478470986,0.08028160564993014,0.08273872275615021,0.07713790860381012
1.0048494485884285,0.1199532079956697,0.07293306550965457,0.06958311394397716,0.09016785411732768,0.06614484980893663
1.0048965306135589,0.10352759540252561,0.06785093644239604,0.05738407400153901,0.0935883455445828,0.05377585573778303
1.0049436126386893,0.08458770500586026,0.06013925540672154,0.04469505929439128,0.09299699936552533,0.041056498662988467
1.0049906946638196,0.06411017510052013,0.053680737568217396,0.03435472552873721,0.08879922755981075,0.03083518600007493
1.00503777668895,0.043500849939608656,0.046541487495334335,0.022887706523455283,0.08127592399593203,0.019623930669631806
1.0050848587140804,0.02497562650004661,0.03902832226686285,0.013888116903115118,0.07014932188027141,0.011045943797948031
1.0051319407392107,0.011013597455985432,0.033908206265658325,0.011624969459267675,0.05735853458821087,0.009293695151155796
1.0051790227643411,0.003334338693202587,0.029086091910571127,0.009001101837417943,0.042972661516305875,0.007249402759273725
1.0052261047894715,0.0027948227754708652,0.02106273354217133,0.005716764128480125,0.02835442503191449,0.004558479828899099
1.0052731868146019,0.010164673003053454,0.013468036620569442,0.005314070387151807,0.01532599710232239,0.00468571120622442
1.0053202688397322,0.026566180290056158,0.008760566062882754,0.008193549268036414,0.003668643574937616,0.00803731951032701
1.0053673508648626,0.05291846997433676,0.007582607390714545,0.011498759854167706,-0.0023921809128581283,0.011586703102506776
1.005414432889993,0.08828034555015178,0.010072128120690985,0.017065936640710815,-0.004083996130455088,0.017218255111911992
1.0054615149151234,0.12763762777320273,0.013468436982064508,0.025647230237824777,-0.0021476523675386223,0.025713429494077185
1.0055085969402537,0.16155770115500132,0.018095962416291845,0.038076850744054896,0.005903921800157573,0.037805868263081535
1.0055556789653841,0.18078890709766565,0.023823640530834772,0.05135766337998839,0.018383066832333053,0.05057746592649765
1.0056027609905145,0.18307418566708303,0.028059276456344977,0.06056084021799014,0.03239622702661295,0.059228677035446334
1.0056498430156449,0.1741533504439713,0.03154046758054637,0.06655908741414072,0.04377793780732181,0.06479350896087321
1.0056969250407752,0.16242605985016223,0.033811336443142374,0.07063087442771013,0.053380200183276924,0.06851027055750979
1.0057440070659056,0.15418810481596457,0.033671188114145725,0.07107575192890922,0.058776160051985826,0.06875775132817363
1.005791089091036,0.1523552110015489,0.031499715983939795,0.0660360559428213,0.06003581690769084,0.06366479703905463
1.0058381711161664,0.15691036178882456,0.030585644925066855,0.06130313889977103,0.05957959842641161,0.05894206682286877
1.0058852531412967,0.16538784679386007,0.03200697387685739,0.06307528196508604,0.05816868639731195,0.06076888842552435
1.005932335166427,0.17322460684996496,0.031242391311680214,0.06323184659303546,0.05434136544410119,0.06106786638015742
1.0059794171915575,0.17475929729964576,0.028581837958855803,0.05880087400333982,0.048008028830405884,0.05687107618830803
1.0060264992166879,0.16548577922015562,0.025425759689156044,0.05204155960234529,0.04073915453788047,0.050386612048298224
1.0060735812418182,0.1445721481217929,0.021967957297271704,0.04234591607178599,0.031833464375204436,0.04103776478526383
1.0061206632669486,0.11538472372115638,0.019078437769566983,0.03266210113426135,0.02207340097924036,0.031744656164582934
1.006167745292079,0.08342022676517998,0.01687801125745162,0.0259645785337829,0.014065430601988449,0.025372949033981015
1.0062148273172093,0.053714935068683495,0.017019760326431693,0.01794830890199036,0.009021946626380428,0.017566659105411383
1.0062619093423397,0.029620632829972474,0.017424194196858755,0.006428025048282717,0.006478119935282802,0.00615885414371638
1.00630899136747,0.012907514843990737,0.01809303885024959,-0.004503164505502606,0.006859926525914097,-0.004779062974484719
1.0063560733926005,0.004292560353454192,0.019489432123704895,-0.010519166817943732,0.00958156793207357,-0.010901303381111747
1.0064031554177308,0.0038095921685766332,0.02259028038578311,-0.007972360122875525,0.01247110858250366,-0.008474531659980893
1.0064502374428612,0.010924293923755681,0.030381780819921118,0.0013341291502741227,0.020766510376842053,0.0004869123590421409
1.0064973194679916,0.02453035587728399,0.037290087134477526,0.011333716656649779,0.031082943424341425,0.010062784121256425
1.006544401493122,0.042966387475684646,0.04290345713185857,0.020787738978896356,0.041473515807158016,0.019097908370815327
1.0065914835182523,0.06411092062196938,0.04625062177490124,0.03329944681240632,0.04799090504330311,0.03135539008349359
1.0066385655433827,0.08556714248621351,0.05066385686892302,0.049462130528264495,0.05177595581017966,0.047382140496570434
1.006685647568513,0.10493697207975199,0.05368715696365101,0.06485229624100503,0.052950489839214465,0.06274178070979987
1.0067327295936435,0.12014720761669652,0.05469544028562421,0.07640706666955516,0.052054978376802875,0.07434103216262056
1.0067798116187738,0.12974860817624662,0.0532728910941588,0.08294186479002422,0.049068965406245675,0.08099093648120864
1.0068268936439042,0.1331160769266914,0.052606830994925365,0.08436945777741765,0.044199209769473065,0.08259773863260962
1.0068739756690346,0.13051634907150206,0.04855033382250291,0.08386978816652868,0.03889973403115777,0.08229371446155943
1.006921057694165,0.12301693370584733,0.04174157319254105,0.08185258015702256,0.03323062404934358,0.08048844210976751
1.0069681397192953,0.11219272060745543,0.03335675258633145,0.07585112215539112,0.026306198625177926,0.07475135016744112
1.0070152217444257,0.09964098937742749,0.025682437587744602,0.06985230351433948,0.01949943947396287,0.0690187788479384
1.007062303769556,0.08648287672211809,0.019740129479876255,0.06302251331950957,0.013968343373429084,0.0624105962284703
1.0071093857946865,0.07315337862299943,0.016528444142805312,0.053521194673379444,0.00945424171480002,0.05309562276055483
1.0071564678198168,0.05967551136841471,0.014443289596211424,0.042771215350936226,0.005463724687018835,0.04251435361968642
1.0072035498449472,0.046352747241279996,0.011831182879180096,0.029687677967592516,0.0028037102394947474,0.02954905929365692
1.0072506318700776,0.03458526276589038,0.010914148051401604,0.01916866027493343,0.002283910241769183,0.019059778456416543
1.007297713895208,0.02727830692374265,0.011633709031414934,0.01473006896934623,0.0023468731824467463,0.014622275394666267
1.0073447959203383,0.0280866607277734,0.015315645456790993,0.01711698325886342,0.0044353021790335964,0.01692228096221408
1.0073918779454687,0.03925806445151868,0.024504338021283496,0.028584290137595406,0.01076619605045912,0.028124013121899872
1.007438959970599,0.059562255279517966,0.03598450887763977,0.043832242766228824,0.019154071513415652,0.04302548024825387
1.0074860419957294,0.08449757331606145,0.04658467118024143,0.058037587268334905,0.028599797354462622,0.05685306880986648
1.0075331240208598,0.10858230355013457,0.05494083469579982,0.06858033205585247,0.03828092137008626,0.06702336250098509
1.0075802060459902,0.12742598805780986,0.06081858622893081,0.07621925524513734,0.0450152828367058,0.07441256056011682
1.0076272880711206,0.13840784538629322,0.062618088599884,0.07904744927672683,0.048885269910871436,0.07709996083674811
1.007674370096251,0.14057521646913557,0.05982155647671693,0.0769603579802706,0.05043938675001847,0.0749540568875542
1.0077214521213813,0.1345761316442056,0.05524939332592796,0.07084930100861353,0.048891769771139224,0.0688950043911617
1.0077685341465117,0.12269802495893224,0.047975344578361126,0.062425783036096825,0.04462598935248343,0.06062614388668655
