freq,gls,usurper,pdc_unbiased,shape_periodogram,shift_periodogram
1.0,0.02176245538732735,0.015363745254210838,-0.007335655112181927,0.009631303662840665,-0.007523825079582697
1.0000470820251304,0.05134779247241603,0.01814925188916866,0.016081221596065367,0.008700256655564424,0.015907826941032554
1.0000941640502607,0.09689124580742478,0.02326266317137608,0.05094334186944231,0.01106721244936685,0.05072000363615131
1.0001412460753911,0.14848755125694818,0.027531801478134985,0.08456655871201842,0.018474204701264534,0.08420547186180201
1.0001883281005215,0.19664060203551523,0.03179920863856096,0.10917973127593883,0.030163140255665122,0.10862555259691245
1.0002354101256519,0.23592916525893703,0.036638786706708705,0.12678225514793529,0.04093706367404626,0.12607696528638931
1.0002824921507822,0.26363730657080775,0.040728143923443844,0.13936052532630389,0.04811529531605633,0.1385733257296165
1.0003295741759126,0.2780607972143743,0.04327370890253616,0.14663287491158739,0.05186479118188892,0.14581058187164975
1.000376656201043,0.27778293516045677,0.04351196331015607,0.14742341655727248,0.05492619766003549,0.146567531474774
1.0004237382261734,0.2619162710265795,0.04165323680356307,0.139633635428265,0.055905513881140144,0.13875321980264418
1.0004708202513037,0.23107843684954268,0.037893393590986216,0.12167319492364326,0.054513137642559176,0.12077934511210374
1.0005179022764341,0.1884924826566669,0.03297725873046103,0.09811663264576473,0.051936939052469384,0.09722184411599552
1.0005649843015645,0.1401213853463462,0.029424156832834288,0.07552593926328457,0.048966334755888054,0.07464642286827768
1.0006120663266949,0.09311329616242185,0.02752824438448833,0.056936636782797936,0.045161071371571666,0.05609957552845845
1.0006591483518252,0.05338098213176131,0.028181545706205603,0.04656239048066332,0.03988770668202872,0.04580851901712788
1.0007062303769556,0.024158292773911582,0.028706096050566766,0.0379052596807291,0.03277034938079409,0.03727537756941604
1.000753312402086,0.006389706849983347,0.029917424917240844,0.024925530867037873,0.02439172977246677,0.024449137086654225
1.0008003944272164,4.4957735270936574e-05,0.03131639449748943,0.013623927240606612,0.018177137273459015,0.013266408918628647
1.0008474764523467,0.004476680458159687,0.030998987265996154,0.005279248516488982,0.016797329577340914,0.004948876661861474
1.000894558477477,0.016631009383087918,0.03570244790220021,0.00604487589630294,0.01960518153507486,0.005659578957334856
1.0009416405026075,0.030279800796216314,0.0427948389707284,0.01614856324889533,0.02623992094608598,0.01563541524251164
1.0009887225277379,0.04019506929021177,0.05064296798963895,0.031662352407458065,0.03683718829483271,0.030954455310666127
1.0010358045528682,0.045271217739530065,0.055695038881461136,0.049643587368788454,0.05011548522548051,0.048713900879286905
1.0010828865779986,0.04665854735345898,0.06140827325417318,0.06394396252727896,0.06294591625686227,0.062826322804109
1.001129968603129,0.04557434040645729,0.06528082705026456,0.06951556918541625,0.07328120944564571,0.06825512633139341
1.0011770506282593,0.04281463251624272,0.06652918356420026,0.06676401531502141,0.07845734675789559,0.06542037247931859
1.0012241326533897,0.03911406922799136,0.06411463649284567,0.05756222886158259,0.0782139099502414,0.056193296059126804
1.00127121467852,0.035734840091298535,0.058502855674914124,0.04469056838221148,0.074600924270836,0.043340856220599334
1.0013182967036505,0.034632288517627896,0.05342416299299429,0.03354469161607427,0.07094078659301734,0.03222761943740322
1.0013653787287808,0.03686446430802818,0.04953906070294153,0.03235087082016887,0.06841694170923664,0.031075021000702908
1.0014124607539112,0.040499198873267514,0.04834269986659682,0.04235422606047071,0.0681397159085259,0.04110599882766568
1.0014595427790416,0.04245011553894062,0.04955201783646384,0.05148956578485458,0.07012370213318889,0.050230406384994875
1.001506624804172,0.04142424671447975,0.05021246959059981,0.057489670337512934,0.0691813934367174,0.05626015126990789
1.0015537068293023,0.03772147907862947,0.05096679461836615,0.05838903434484734,0.06383367446216948,0.05724612174698478
1.0016007888544327,0.032149333674356434,0.04844525429729351,0.05286952532393206,0.054937419980864696,0.05186238050811337
1.001647870879563,0.025799799790141527,0.042557235528775376,0.040386054375886556,0.0426263994527996,0.03957859337049478
1.0016949529046935,0.020580986012262138,0.03447145326075316,0.02276083148008517,0.029441232172427875,0.02218797710671552
1.0017420349298238,0.01993155776046648,0.030946374709761974,0.008396000375120035,0.020401900845689016,0.007995191080231593
1.0017891169549542,0.027489951613850306,0.030280225937139763,0.00883020356959996,0.019762451838441403,0.00844186306979837
1.0018361989800846,0.042074300128446054,0.030775250655112954,0.022145335055818467,0.02413398967133333,0.021673485060190928
1.001883281005215,0.05845891480384451,0.03605104558018831,0.04104344236602053,0.033250475343207415,0.04040609656726733
1.0019303630303453,0.07582159493280267,0.03990255407887403,0.05832937685591873,0.04442298451671626,0.05750621701781867
1.0019774450554757,0.09824195100672209,0.04000655547616607,0.07041397317164165,0.056644818351977405,0.06940642704831093
1.002024527080606,0.1303669711588208,0.035441167981234485,0.07896421651578898,0.06429471616654125,0.07785741363135175
1.0020716091057364,0.17464242099810953,0.030811836364642298,0.08832693698111686,0.06908092079930227,0.087174879335653
1.0021186911308668,0.22917237164395338,0.030704443350620166,0.11355266104308831,0.0729162939023356,0.11242099361309561
1.0021657731559972,0.2864808872447173,0.03396022075423892,0.14880372324738836,0.07715491242578619,0.14773994432687063
1.0022128551811276,0.335488571803669,0.03724358369893285,0.17945522269565434,0.08132714081539492,0.17847198560588096
1.002259937206258,0.3667004160945303,0.038960447429847576,0.20044309409803335,0.08403275891566225,0.19953022594875774
1.0023070192313883,0.37630521047742305,0.038806950201047324,0.20989430295355302,0.08455967799504618,0.20901781279776985
1.0023541012565187,0.3658732131217113,0.03739139975949508,0.20800353236518512,0.08304340143246505,0.2071221490990187
1.002401183281649,0.3393357840705059,0.03653971132568141,0.19716291122807472,0.08035690453971091,0.19624809329251583
1.0024482653067794,0.30043566038503033,0.03537856361346384,0.1783931936762516,0.0734295916265791,0.17744876651545974
1.0024953473319098,0.25183659939415354,0.032589606112687255,0.15384153094853617,0.06058226290449727,0.15293814896924265
1.0025424293570402,0.1956066522565673,0.027311822659870408,0.12081929242955049,0.04383964062864601,0.12006729542908684
1.0025895113821706,0.13475970805500284,0.023397204301339933,0.07564140824241966,0.02276764669185384,0.07520270196984274
1.002636593407301,0.07582916802294695,0.02176648846943164,0.025728531183742454,0.005127830898306236,0.025623242465018705
1.0026836754324313,0.03145358980808763,0.018808920106376727,-0.0040036080406334615,0.0031211988250223538,-0.004064184206245027
1.0027307574575617,0.01779891286180085,0.018043555531104177,-0.006351274616742859,0.017754506849515534,-0.006699954184636117
1.002777839482692,0.04358985242398123,0.019517768160483135,0.006591376950054447,0.037087876951533254,0.005865413600447085
1.0028249215078224,0.1037077589167159,0.030772041825117752,0.04281328660270074,0.05330188637506932,0.041819818654308276
1.0028720035329528,0.18101238562213362,0.04553433106569331,0.0979436666785688,0.060097723658445575,0.09693434305523645
1.0029190855580832,0.25636899888384335,0.0568106220527057,0.15380629462607742,0.0625492606480027,0.15288361626764083
1.0029661675832136,0.31832235074100634,0.06171731776416478,0.19704252226634572,0.06383076361729591,0.19620833399616772
1.003013249608344,0.36361141655314383,0.0656433820021837,0.228525784613192,0.06339586888434166,0.22776850284771727
1.0030603316334743,0.39341420767750745,0.06667767028122637,0.24979870354304085,0.06106658697079672,0.2490996922472374
1.0031074136586047,0.4102870696014962,0.06555024630443848,0.26258314989231946,0.05901847406362381,0.2619189054207864
1.003154495683735,0.41662904201390033,0.06358055410728274,0.266777273312063,0.05620513380661913,0.2661312884956431
1.0032015777088654,0.41405085665469693,0.06052258098257299,0.26326150551395927,0.05245373343062518,0.26262502021118045
1.0032486597339958,0.4030953535584088,0.05635334997582411,0.251751202986526,0.04764005097734788,0.2511239891150587
1.0032957417591262,0.38301151602067063,0.05109288108734537,0.2324239377319079,0.04184341592170452,0.23181688750435744
1.0033428237842565,0.3514583105172215,0.04445500141352145,0.2047530276495091,0.035056260558318925,0.20418929500636318
1.003389905809387,0.3042863356687068,0.03623231251304064,0.16911475512504195,0.027685010459314433,0.16862492083216632
1.0034369878345173,0.2364892670841809,0.026962995205849258,0.12615890065588273,0.01973816814924484,0.1257803876599181
1.0034840698596477,0.14805992805189566,0.017914104408721102,0.07745804013496241,0.011593604757269121,0.07722256231493943
1.003531151884778,0.05937981673678241,0.012689744699130331,0.035632586371168055,0.005540516002713397,0.03551759646956947
1.0035782339099084,0.016571701488668728,0.013794886922387959,0.012038086514572617,0.0037602249919929985,0.011961975531322508
1.0036253159350388,0.04141534161646615,0.02279137274027731,0.014399178728297872,0.010105916577792574,0.01419860600299395
1.0036723979601692,0.0978579156313711,0.03722907719626985,0.03595348541122598,0.024491448525183365,0.03547684955352268
1.0037194799852995,0.14599333246590304,0.055887246684795416,0.06503465797160808,0.03845792872354039,0.06431858217617474
1.00376656201043,0.17300879075255565,0.07017466340604847,0.0922030709843016,0.05002445575127744,0.09132821504954933
1.0038136440355603,0.18229222765708752,0.07954251697159924,0.11374971918924169,0.057013299135266246,0.11281036479632593
1.0038607260606907,0.18262972424027749,0.08319998074946794,0.12736778710133306,0.06026172578901346,0.12641397473568697
1.003907808085821,0.18292620727983336,0.08659389990641064,0.13485525602086357,0.06182209233212963,0.1338991348154748
1.0039548901109514,0.18798821740501145,0.08874397234320072,0.13913083302593265,0.06384157536910419,0.1381624181447807
1.0040019721360818,0.19658928748535154,0.08705582379804779,0.1397247738744464,0.06498112454378702,0.13874593926306455
1.0040490541612122,0.20361099360789395,0.0810560044497553,0.1356935801867525,0.06652213255799176,0.1346892551514867
1.0040961361863425,0.20356945018764083,0.07243487502981837,0.1287855413388881,0.06499552261274427,0.12778105482377228
1.004143218211473,0.19261735903368254,0.06461601831545058,0.11776025800915435,0.06369511616291965,0.11674575020903184
1.0041903002366033,0.1692114287165738,0.054503237895366784,0.09836742477706704,0.0592761729131882,0.0973701098982502
1.0042373822617336,0.13469585530973552,0.04331507921403529,0.07519967777083232,0.05047829482662687,0.07429583645972371
1.004284464286864,0.094068350002802,0.03146808962549409,0.051842634052145065,0.04011191178535863,0.051088597067557355
1.0043315463119944,0.0558705414627791,0.020509369436590427,0.03082107495389939,0.027993534385102974,0.030277687437221486
1.0043786283371248,0.029785725493520713,0.013701849537556075,0.019809015244991575,0.016507930660616673,0.019483656664464135
1.0044257103622551,0.022326134922130727,0.010707542862045899,0.01684685304795892,0.007969110925952774,0.016687605792042103
1.0044727923873855,0.03362727707623793,0.011010550649050523,0.01768087969631584,0.004011493597473443,0.017598820414379993
1.004519874412516,0.057935866130881315,0.013995509878239701,0.0238553638180855,0.004451770916148529,0.023763593963347384
1.0045669564376463,0.08691312585069338,0.01936752517815423,0.038233159934289905,0.010672814619532974,0.03801868969269688
1.0046140384627766,0.11302745450084833,0.025364737867751622,0.05542672474865837,0.022512830991341683,0.05498959884678814
1.004661120487907,0.13143773576861661,0.03159999822657189,0.07126698378066398,0.03667387381842294,0.0705853340015445
1.0047082025130374,0.140315951549541,0.037578757193945087,0.0817840112464661,0.0508797839493912,0.0808825158878099
1.0047552845381678,0.14016084842095028,0.03886649308489565,0.0846685751900148,0.06278436869549057,0.08359546899254544
1.0048023665632981,0.13271042804166153,0.03741343899964622,0.08028160564993014,0.07174063768411082,0.07907235926939832
1.0048494485884285,0.1199532079956697,0.03303830184100374,0.06958311394397716,0.07792431164890323,0.06825599634561175
1.0048965306135589,0.10352759540252561,0.030904295527879686,0.05738407400153901,0.08079688898087715,0.05597544561691172
1.0049436126386893,0.08458770500586026,0.028026951131489782,0.04469505929439128,0.0784525363644339,0.04328248508114593
1.0049906946638196,0.06411017510052013,0.02535241477325755,0.03435472552873721,0.07221068377545473,0.03301768724928757
1.00503777668895,0.043500849939608656,0.021198939686850448,0.022887706523455283,0.06438743183132034,0.021663963249518824
1.0050848587140804,0.02497562650004661,0.016754619923426486,0.013888116903115118,0.05557015546822599,0.012813583061388169
1.0051319407392107,0.011013597455985432,0.012301445714117648,0.011624969459267675,0.046153011245887825,0.010727428840005325
1.0051790227643411,0.003334338693202587,0.01066971802136796,0.009001101837417943,0.034295907065469776,0.008330433413142765
1.0052261047894715,0.0027948227754708652,0.007845891101429359,0.005716764128480125,0.020381692726895526,0.00531628733150728
1.0052731868146019,0.010164673003053454,0.007264577299943865,0.005314070387151807,0.008870969622674548,0.005138941191359558
1.0053202688397322,0.026566180290056158,0.008449773966892143,0.008193549268036414,0.0017185831687137403,0.008158213061966454
1.0053673508648626,0.05291846997433676,0.009951835573671923,0.011498759854167706,-0.0018126173140702623,0.011532169399766161
1.005414432889993,0.08828034555015178,0.010492932738839902,0.017065936640710815,-0.002035020856085407,0.01710264818808035
1.0054615149151234,0.12763762777320273,0.0123695362260328,0.025647230237824777,0.0016515902186273843,0.025609895137141302
1.0055085969402537,0.16155770115500132,0.015105421670276887,0.038076850744054896,0.009804407978068665,0.037879089869421165
1.0055556789653841,0.18078890709766565,0.018474371160246684,0.05135766337998839,0.02014337830551131,0.05096382680900785
1.0056027609905145,0.18307418566708303,0.01956483217401326,0.06056084021799014,0.031099839567743266,0.0599703138723118
1.0056498430156449,0.1741533504439713,0.02175189144394283,0.06655908741414072,0.041512502092649756,0.06579239787636501
1.0056969250407752,0.16242605985016223,0.022517456171299632,0.07063087442771013,0.05037446116492762,0.06972284184805455
1.0057440070659056,0.15418810481596457,0.020553158278665686,0.07107575192890922,0.05571579039650244,0.07008378191220338
1.005791089091036,0.1523552110015489,0.01643356124100033,0.0660360559428213,0.0574252847416515,0.06500903871673962
1.0058381711161664,0.15691036178882456,0.014218992180965341,0.06130313889977103,0.05702910422458952,0.060274673476732314
1.0058852531412967,0.16538784679386007,0.013637565294718594,0.06307528196508604,0.05424706239387145,0.06209453574448502
1.005932335166427,0.17322460684996496,0.013356753457948739,0.06323184659303546,0.049680907846606295,0.062325890976935625
1.0059794171915575,0.17475929729964576,0.011211472698412996,0.05880087400333982,0.04319845497525531,0.057999013968908004
1.0060264992166879,0.16548577922015562,0.008487625770113092,0.05204155960234529,0.037302903860680726,0.05133711465380464
1.0060735812418182,0.1445721481217929,0.006240663625293911,0.04234591607178599,0.03082146790255886,0.04175352674690699
1.0061206632669486,0.11538472372115638,0.003703636490264646,0.03266210113426135,0.024745084415401516,0.032180175943044925
1.006167745292079,0.08342022676517998,0.003181281316135488,0.0259645785337829,0.0196425170314797,0.02557891387747026
1.0062148273172093,0.053714935068683495,0.004846618412090708,0.01794830890199036,0.016587145695445015,0.017621489097691748
1.0062619093423397,0.029620632829972474,0.007543376921803222,0.006428025048282717,0.015462525915606526,0.006123698883502444
1.00630899136747,0.012907514843990737,0.010536659865837454,-0.004503164505502606,0.014627499951229027,-0.004790225318002097
1.0063560733926005,0.004292560353454192,0.015117961619767518,-0.010519166817943732,0.015063154565547373,-0.01081429993502327
1.0064031554177308,0.0038095921685766332,0.020602764406334968,-0.007972360122875525,0.015683952988338967,-0.008279994944771156
1.0064502374428612,0.010924293923755681,0.027782885157370128,0.0013341291502741227,0.018327279649605743,0.0009739089569618827
1.0064973194679916,0.02453035587728399,0.03489335823389709,0.011333716656649779,0.022611421858644083,0.010890085551030979
1.006544401493122,0.042966387475684646,0.04054168627619158,0.020787738978896356,0.026260803690169816,0.020275023800220948
1.0065914835182523,0.06411092062196938,0.044926912392083775,0.03329944681240632,0.029980962969721227,0.03271956019991556
1.0066385655433827,0.08556714248621351,0.050127796985361114,0.049462130528264495,0.033971358567218994,0.04881559786268416
1.006685647568513,0.10493697207975199,0.05228891825340514,0.06485229624100503,0.03707870525514347,0.06415971627543905
1.0067327295936435,0.12014720761669652,0.05198712741790985,0.07640706666955516,0.038657318082596585,0.07569562403000882
1.0067798116187738,0.12974860817624662,0.04843340982208501,0.08294186479002422,0.03802261299551859,0.0822455219341093
1.0068268936439042,0.1331160769266914,0.044366225830222136,0.08436945777741765,0.03540562742171037,0.08371704452521442
1.0068739756690346,0.13051634907150206,0.04002393205826204,0.08386978816652868,0.031857825140148455,0.08327622939054974
1.006921057694165,0.12301693370584733,0.03463013612751978,0.08185258015702256,0.025710627014987688,0.0813634287551469
1.0069681397192953,0.11219272060745543,0.02768602660364054,0.07585112215539112,0.019168444766663042,0.07547692301852502
1.0070152217444257,0.09964098937742749,0.019871750691358867,0.06985230351433948,0.01318476119822405,0.06958771062017044
1.007062303769556,0.08648287672211809,0.013571357105669153,0.06302251331950957,0.00885417205845619,0.06283989686608328
1.0071093857946865,0.07315337862299943,0.008408480160793042,0.053521194673379444,0.005812679667290897,0.053398061503752425
1.0071564678198168,0.05967551136841471,0.0029230047437155977,0.042771215350936226,0.0030613321582440576,0.04270318233120045
1.0072035498449472,0.046352747241279996,-0.0008564143184763387,0.029687677967592516,0.002334606548770291,0.029636217775729633
1.0072506318700776,0.03458526276589038,-0.0031837095694938985,0.01916866027493343,0.0031990703424540513,0.019102231854158495
1.007297713895208,0.02727830692374265,-0.003285406245437757,0.01473006896934623,0.004292665248502571,0.014643037837474473
1.0073447959203383,0.0280866607277734,-0.0017239132492690593,0.01711698325886342,0.006714353863840629,0.016982184025845767
1.0073918779454687,0.03925806445151868,0.0027606972503474224,0.028584290137595406,0.011865202250517239,0.028347904350384815
1.007438959970599,0.059562255279517966,0.009475523682197716,0.043832242766228824,0.017836721774441528,0.0434812139273927
1.0074860419957294,0.08449757331606145,0.01568057577626311,0.058037587268334905,0.02512049270011927,0.05755337924022638
1.0075331240208598,0.10858230355013457,0.020712347585032816,0.06858033205585247,0.030996509438109453,0.06799485236139961
1.0075802060459902,0.12742598805780986,0.02393903194444831,0.07621925524513734,0.03510273617759658,0.07556711542031078
1.0076272880711206,0.13840784538629322,0.02634360701457741,0.07904744927672683,0.03796777519370121,0.07834928455898718
1.007674370096251,0.14057521646913557,0.026510581645382947,0.0769603579802706,0.03948287972082317,0.07623566849020504
1.0077214521213813,0.1345761316442056,0.023939480927584248,0.07084930100861353,0.03871227227197051,0.07013297393765175
1.0077685341465117,0.12269802495893224,0.020630686544934516,0.062425783036096825,0.03400987661718468,0.061784956974347376
