freq,gls,usurper,pdc_unbiased,shape_periodogram,shift_periodogram
1.0,0.02176245538732735,-0.0004998058262588341,-0.007335655112181927,0.005059724699395469,-0.0074703638651901095
1.0000470820251304,0.05134779247241603,0.002777460640887565,0.016081221596065367,0.006814317143635538,0.01589079044823969
1.0000941640502607,0.09689124580742478,0.007716862390411323,0.05094334186944231,0.010022694959514104,0.05065618608724626
1.0001412460753911,0.14848755125694818,0.015334275111506371,0.08456655871201842,0.013870096129327174,0.084171227836906
1.0001883281005215,0.19664060203551523,0.02217809666088844,0.10917973127593883,0.018136944901255957,0.1086741276544582
1.0002354101256519,0.23592916525893703,0.027025345218900126,0.12678225514793529,0.020091462484062256,0.1262290998862746
1.0002824921507822,0.26363730657080775,0.026832773608584253,0.13936052532630389,0.020149769806343944,0.13880671719277593
1.0003295741759126,0.2780607972143743,0.026806069623686545,0.14663287491158739,0.020217650959382907,0.1460780351830091
1.000376656201043,0.27778293516045677,0.02789888828952881,0.14742341655727248,0.01997186419698871,0.14687439200747288
1.0004237382261734,0.2619162710265795,0.026857789818242023,0.139633635428265,0.01990523022421278,0.13908562501424102
1.0004708202513037,0.23107843684954268,0.024196829004355058,0.12167319492364326,0.018852654821959577,0.12114983452537795
1.0005179022764341,0.1884924826566669,0.020451002104323285,0.09811663264576473,0.017940750263540514,0.0976164399237648
1.0005649843015645,0.1401213853463462,0.017078013173657435,0.07552593926328457,0.016126856364330217,0.0750739975754824
1.0006120663266949,0.09311329616242185,0.014518791118351443,0.056936636782797936,0.013417755284234844,0.0565583890313997
1.0006591483518252,0.05338098213176131,0.014457166364241499,0.04656239048066332,0.009473524431128514,0.04629105583573553
1.0007062303769556,0.024158292773911582,0.014772598124804746,0.0379052596807291,0.004320193515771486,0.037774664614306855
1.000753312402086,0.006389706849983347,0.015933718867301792,0.024925530867037873,-0.0018371103872017753,0.024966211131052254
1.0008003944272164,4.4957735270936574e-05,0.019803890754387685,0.013623927240606612,-0.007941635584332703,0.013834829519703794
1.0008474764523467,0.004476680458159687,0.02022362437718229,0.005279248516488982,-0.008584504815836034,0.005510489786861698
1.000894558477477,0.016631009383087918,0.02105278780452027,0.00604487589630294,-0.005441297379142788,0.006190415424244871
1.0009416405026075,0.030279800796216314,0.024942441999055303,0.01614856324889533,0.0008369135132540567,0.016119915588916116
1.0009887225277379,0.04019506929021177,0.030288200651231174,0.031662352407458065,0.00966147178194891,0.03139033111969716
1.0010358045528682,0.045271217739530065,0.03478041128483611,0.049643587368788454,0.02075845356413172,0.04907454206910285
1.0010828865779986,0.04665854735345898,0.03594169889244213,0.06394396252727896,0.030615838159403403,0.06312404936283383
1.001129968603129,0.04557434040645729,0.03578005969947432,0.06951556918541625,0.039128304507432786,0.06848786756031303
1.0011770506282593,0.04281463251624272,0.033058114359959485,0.06676401531502141,0.04466911609465599,0.0656003041204972
1.0012241326533897,0.03911406922799136,0.027894907520839094,0.05756222886158259,0.04768977602190087,0.0563168946425047
1.00127121467852,0.035734840091298535,0.021062806299552626,0.04469056838221148,0.04874594074007824,0.04340646501128128
1.0013182967036505,0.034632288517627896,0.014701146856561794,0.03354469161607427,0.04846099112334236,0.03225705431054058
1.0013653787287808,0.03686446430802818,0.013949043639796111,0.03235087082016887,0.04692942258435704,0.031101402328045112
1.0014124607539112,0.040499198873267514,0.01824551106566812,0.04235422606047071,0.04575706286343064,0.04114301446393135
1.0014595427790416,0.04245011553894062,0.02343851894619386,0.05148956578485458,0.04256924698854675,0.05036529647093396
1.001506624804172,0.04142424671447975,0.02507852162774093,0.057489670337512934,0.03586487360440795,0.056536142628079204
1.0015537068293023,0.03772147907862947,0.023034829389750662,0.05838903434484734,0.027372198292958887,0.05764995984220861
1.0016007888544327,0.032149333674356434,0.02078708148893064,0.05286952532393206,0.01743749132319988,0.052386737157549136
1.001647870879563,0.025799799790141527,0.01954528208050997,0.040386054375886556,0.006586948950652161,0.0401937291664679
1.0016949529046935,0.020580986012262138,0.015958619115643117,0.02276083148008517,-0.003801360357070879,0.022855708793508612
1.0017420349298238,0.01993155776046648,0.0143065394018891,0.008396000375120035,-0.011562329487762943,0.008707269875945308
1.0017891169549542,0.027489951613850306,0.01564808894954459,0.00883020356959996,-0.011703586282999903,0.009145187250165436
1.0018361989800846,0.042074300128446054,0.016471442171159055,0.022145335055818467,-0.00825787011588796,0.0223619045778899
1.001883281005215,0.05845891480384451,0.02039354340335004,0.04104344236602053,-0.0003561117746539813,0.041037991371438626
1.0019303630303453,0.07582159493280267,0.0231264587867156,0.05832937685591873,0.007924312859001598,0.05809579706612423
1.0019774450554757,0.09824195100672209,0.025648165072655753,0.07041397317164165,0.018018078391775133,0.0699140302235678
1.002024527080606,0.1303669711588208,0.024203430968496562,0.07896421651578898,0.024520546493249643,0.07829934994375759
1.0020716091057364,0.17464242099810953,0.02050324865324294,0.08832693698111686,0.029682662097367196,0.08753662487645154
1.0021186911308668,0.22917237164395338,0.021087156614245622,0.11355266104308831,0.03297438170617311,0.11269402110180603
1.0021657731559972,0.2864808872447173,0.024975934484826313,0.14880372324738836,0.036339475758852414,0.14789171812193017
1.0022128551811276,0.335488571803669,0.028634491791101512,0.17945522269565434,0.03874062930237133,0.17851959260152067
1.002259937206258,0.3667004160945303,0.031236153244550254,0.20044309409803335,0.04066813731200442,0.19949238204690628
1.0023070192313883,0.37630521047742305,0.03246087701903838,0.20989430295355302,0.04103352426615419,0.20894736990577806
1.0023541012565187,0.3658732131217113,0.03177617759249075,0.20800353236518512,0.03982706563504159,0.20707553343562093
1.002401183281649,0.3393357840705059,0.029984681139015548,0.19716291122807472,0.036535557386820114,0.19628443585992408
1.0024482653067794,0.30043566038503033,0.026458688435174467,0.1783931936762516,0.030298134088956524,0.1776249596366654
1.0024953473319098,0.25183659939415354,0.019310838509994998,0.15384153094853617,0.021421361123979053,0.1532595685696814
1.0025424293570402,0.1956066522565673,0.010774650566993232,0.12081929242955049,0.010857209616295663,0.12049416411592385
1.0025895113821706,0.13475970805500284,0.0018466935039827713,0.07564140824241966,-7.340780960611306e-05,0.07561567769017066
1.002636593407301,0.07582916802294695,-0.004602034715760502,0.025728531183742454,-0.008410841676987784,0.025948027840348706
1.0026836754324313,0.03145358980808763,-0.001005719572721602,-0.0040036080406334615,-0.010575178541067423,-0.003715325058081131
1.0027307574575617,0.01779891286180085,0.009417327427569577,-0.006351274616742859,-0.005566269990339932,-0.006197965053769974
1.002777839482692,0.04358985242398123,0.009510486077694922,0.006591376950054447,0.006075737171999139,0.006424175540921227
1.0028249215078224,0.1037077589167159,0.008553756711343492,0.04281328660270074,0.016426580704798632,0.042358624307143274
1.0028720035329528,0.18101238562213362,0.016079104175682528,0.0979436666785688,0.018495140838954715,0.09742962381865596
1.0029190855580832,0.25636899888384335,0.030218482755806943,0.15380629462607742,0.022672000318771424,0.15319569107923497
1.0029661675832136,0.31832235074100634,0.037491463791250325,0.19704252226634572,0.026303969407469603,0.19636516066163423
1.003013249608344,0.36361141655314383,0.0418414986658294,0.228525784613192,0.028108276740114825,0.2278272055632327
1.0030603316334743,0.39341420767750745,0.04438791530538788,0.24979870354304085,0.028132955436646716,0.24911144710097402
1.0031074136586047,0.4102870696014962,0.04494159606514376,0.26258314989231946,0.027619719534897575,0.2619124567023277
1.003154495683735,0.41662904201390033,0.04483672542585478,0.266777273312063,0.026407057013172648,0.2661304138411106
1.0032015777088654,0.41405085665469693,0.043429538323783,0.26326150551395927,0.024490779992019842,0.2626475757461254
1.0032486597339958,0.4030953535584088,0.041018091826618946,0.251751202986526,0.02168034506537074,0.2511861158936223
1.0032957417591262,0.38301151602067063,0.03766358780259902,0.2324239377319079,0.018078233906692703,0.23192725429927863
1.0033428237842565,0.3514583105172215,0.032901612746250815,0.2047530276495091,0.013386059098165736,0.20435754522117927
1.003389905809387,0.3042863356687068,0.026734114147461296,0.16911475512504195,0.008203906236881907,0.16884655785935596
1.0034369878345173,0.2364892670841809,0.019947796308609732,0.12615890065588273,0.0019299686147470133,0.12606225818490752
1.0034840698596477,0.14805992805189566,0.013045963096924542,0.07745804013496241,-0.0042364213524207425,0.07754431554208506
1.003531151884778,0.05937981673678241,0.008868140280543519,0.035632586371168055,-0.008565148198533898,0.03585281248317801
1.0035782339099084,0.016571701488668728,0.009476085128909933,0.012038086514572617,-0.01080769237482917,0.012327640050349715
1.0036253159350388,0.04141534161646615,0.01534498910851443,0.014399178728297872,-0.009471683820708425,0.014651523301561968
1.0036723979601692,0.0978579156313711,0.021748593858484173,0.03595348541122598,-0.0029946445026348546,0.03602153923766752
1.0037194799852995,0.14599333246590304,0.02880406366338844,0.06503465797160808,0.004371692037832828,0.06489351613816732
1.00376656201043,0.17300879075255565,0.033002186282222956,0.0922030709843016,0.013788896643333909,0.09180854141807446
1.0038136440355603,0.18229222765708752,0.03778224718233802,0.11374971918924169,0.019931679021720862,0.11319999768079164
1.0038607260606907,0.18262972424027749,0.042960274787081275,0.12736778710133306,0.02626289613137668,0.12666898206846125
1.003907808085821,0.18292620727983336,0.04544834430430584,0.13485525602086357,0.033917700858874654,0.1339864388837474
1.0039548901109514,0.18798821740501145,0.04633194413240088,0.13913083302593265,0.04050109257102176,0.13812399518450147
1.0040019721360818,0.19658928748535154,0.04339433436143161,0.1397247738744464,0.044318629458111145,0.13863979080049377
1.0040490541612122,0.20361099360789395,0.04101672158281446,0.1356935801867525,0.04544395132645518,0.1345812210872826
1.0040961361863425,0.20356945018764083,0.03591376918176803,0.1287855413388881,0.04572256339628573,0.12765969576737712
1.004143218211473,0.19261735903368254,0.028331322859739133,0.11776025800915435,0.04408147296184572,0.11665745145299906
1.0041903002366033,0.1692114287165738,0.02042632902757747,0.09836742477706704,0.03942229758409441,0.09735184903689692
1.0042373822617336,0.13469585530973552,0.012031424173822757,0.07519967777083232,0.03296195423308093,0.07432515529448179
1.004284464286864,0.094068350002802,0.0054083480922245165,0.051842634052145065,0.02450564477082835,0.051176448296419624
1.0043315463119944,0.0558705414627791,0.0008186644011353368,0.03082107495389939,0.013719744997439698,0.03044074837222097
1.0043786283371248,0.029785725493520713,-0.001039040166536592,0.019809015244991575,0.0027895630787785064,0.019726129882335488
1.0044257103622551,0.022326134922130727,-0.0009139945296747726,0.01684685304795892,-0.006362288529020162,0.017013598359721535
1.0044727923873855,0.03362727707623793,0.00044437336794029344,0.01768087969631584,-0.011515819387317005,0.017987963983623522
1.004519874412516,0.057935866130881315,0.0023236013539657293,0.0238553638180855,-0.01240968468241996,0.024184963537378312
1.0045669564376463,0.08691312585069338,0.00575774354549048,0.038233159934289905,-0.008486112755088166,0.0384502935053482
1.0046140384627766,0.11302745450084833,0.010341310401298768,0.05542672474865837,-0.00023030790158686708,0.055412592401692204
1.004661120487907,0.13143773576861661,0.014978880195679459,0.07126698378066398,0.008937543322407782,0.07100294784747054
1.0047082025130374,0.140315951549541,0.01809132280471526,0.0817840112464661,0.017683117340775878,0.08129154706731553
1.0047552845381678,0.14016084842095028,0.01859071308345278,0.0846685751900148,0.024332396174584464,0.08400892576320718
1.0048023665632981,0.13271042804166153,0.018047861005711135,0.08028160564993014,0.0288114213037928,0.07951051565782315
1.0048494485884285,0.1199532079956697,0.016955719063389343,0.06958311394397716,0.03349486764168074,0.06869338328033738
1.0048965306135589,0.10352759540252561,0.01473054243706419,0.05738407400153901,0.03605725955816472,0.05642568960700589
1.0049436126386893,0.08458770500586026,0.009020203873780185,0.04469505929439128,0.03530217279869481,0.043750511082251635
1.0049906946638196,0.06411017510052013,0.005167172161691649,0.03435472552873721,0.031059857790371567,0.03351669238700268
1.00503777668895,0.043500849939608656,0.0008589083758511421,0.022887706523455283,0.02581867715259727,0.022186457185971856
1.0050848587140804,0.02497562650004661,-0.0021101465439578794,0.013888116903115118,0.02012205220099239,0.013339718599647603
1.0051319407392107,0.011013597455985432,-0.0014690286928469984,0.011624969459267675,0.01298318967787642,0.0112693280523316
1.0051790227643411,0.003334338693202587,-0.0010685884726612876,0.009001101837417943,0.0056957544969024766,0.008843358883446863
1.0052261047894715,0.0027948227754708652,-0.0032349898591089053,0.005716764128480125,0.0005582096834496688,0.0056995093950101845
1.0052731868146019,0.010164673003053454,-0.006515574222548188,0.005314070387151807,-0.003956534109694675,0.005419535385927747
1.0053202688397322,0.026566180290056158,-0.009294139898351277,0.008193549268036414,-0.007554370002141915,0.008395783598987362
1.0053673508648626,0.05291846997433676,-0.011456193211862704,0.011498759854167706,-0.0079571558027002,0.01171081769037243
1.005414432889993,0.08828034555015178,-0.010053217398619953,0.017065936640710815,-0.005486073996329768,0.017208743150038817
1.0054615149151234,0.12763762777320273,-0.008701924648751372,0.025647230237824777,-0.0013534536645565982,0.025674509807010276
1.0055085969402537,0.16155770115500132,-0.0074127644134894125,0.038076850744054896,0.005794064878705762,0.037906562130639886
1.0055556789653841,0.18078890709766565,-0.00553191710320345,0.05135766337998839,0.014860259863500225,0.050942661000683426
1.0056027609905145,0.18307418566708303,-0.004603145164804166,0.06056084021799014,0.024009824639058756,0.059907707377042235
1.0056498430156449,0.1741533504439713,-0.0036783159783912254,0.06655908741414072,0.030122472338051057,0.06575218384551837
1.0056969250407752,0.16242605985016223,-0.0030857713280114784,0.07063087442771013,0.03447030808370608,0.0697175475101104
1.0057440070659056,0.15418810481596457,-0.00223689976759237,0.07107575192890922,0.0346773123700011,0.07015753184419303
1.005791089091036,0.1523552110015489,-0.0016322874212051789,0.0660360559428213,0.03210720894291892,0.06517948654246782
1.0058381711161664,0.15691036178882456,3.9550753138417326e-05,0.06130313889977103,0.028492451339884622,0.060536107885335644
1.0058852531412967,0.16538784679386007,0.003947859444758586,0.06307528196508604,0.025663410863747047,0.06238017399561626
1.005932335166427,0.17322460684996496,0.004892388493770993,0.06323184659303546,0.020480479308417055,0.06266917450621727
1.0059794171915575,0.17475929729964576,0.00392349184407277,0.05880087400333982,0.01430328768193604,0.05839903059031069
1.0060264992166879,0.16548577922015562,0.002363827519484273,0.05204155960234529,0.008553939595349037,0.05179310386455215
1.0060735812418182,0.1445721481217929,6.948250021466627e-05,0.04234591607178599,0.0045730607370032495,0.0422069992860136
1.0061206632669486,0.11538472372115638,-0.0021205353208802605,0.03266210113426135,0.0011391309523362278,0.032619234845795195
1.006167745292079,0.08342022676517998,-0.005208348908734056,0.0259645785337829,-0.0016792697705669598,0.02600058771643325
1.0062148273172093,0.053714935068683495,-0.006004591471115806,0.01794830890199036,-0.003622690406276691,0.018040093600003172
1.0062619093423397,0.029620632829972474,-0.006697288473811164,0.006428025048282717,-0.005033253318029054,0.006562339796214847
1.00630899136747,0.012907514843990737,-0.006361762599875743,-0.004503164505502606,-0.0034492899591150104,-0.004407917008588085
1.0063560733926005,0.004292560353454192,-0.006579813074765024,-0.010519166817943732,-0.0011586458169421392,-0.010483857388513292
1.0064031554177308,0.0038095921685766332,-0.005250388804318991,-0.007972360122875525,0.0016854998207277037,-0.008015176755430113
1.0064502374428612,0.010924293923755681,-0.00025042659305762253,0.0013341291502741227,0.0077012377379590885,0.0011246512089535207
1.0064973194679916,0.02453035587728399,0.0038417999766812315,0.011333716656649779,0.015044886344818476,0.010922518664617253
1.006544401493122,0.042966387475684646,0.006272841947409617,0.020787738978896356,0.021633963331833796,0.020198009014754277
1.0065914835182523,0.06411092062196938,0.0065577013748642525,0.03329944681240632,0.0247309689456815,0.03262702845254193
1.0066385655433827,0.08556714248621351,0.00706384716868,0.049462130528264495,0.025764717052376505,0.048763346383264676
1.006685647568513,0.10493697207975199,0.007825931049385195,0.06485229624100503,0.02428300644381342,0.0641923971461333
1.0067327295936435,0.12014720761669652,0.007941016755690408,0.07640706666955516,0.021413946850366607,0.07582021104348682
1.0067798116187738,0.12974860817624662,0.006775940283408997,0.08294186479002422,0.018606745415785653,0.08242585185010846
1.0068268936439042,0.1331160769266914,0.007801219016212508,0.08436945777741765,0.014400835509854775,0.0839605321327852
1.0068739756690346,0.13051634907150206,0.006940204300560954,0.08386978816652868,0.011899382528656955,0.08352540465364759
1.006921057694165,0.12301693370584733,0.004277372673173269,0.08185258015702256,0.0089284368138937,0.08158595336436757
1.0069681397192953,0.11219272060745543,0.0005628200824514783,0.07585112215539112,0.004947717145597254,0.07569112905180253
1.0070152217444257,0.09964098937742749,-0.0030947600477669065,0.06985230351433948,0.001054703841624302,0.0697983180305389
1.007062303769556,0.08648287672211809,-0.00659132746795372,0.06302251331950957,-0.002997028264493685,0.06308052922633307
1.0071093857946865,0.07315337862299943,-0.008708044811108843,0.053521194673379444,-0.006512378789018475,0.05367866200763062
1.0071564678198168,0.05967551136841471,-0.009808459370957904,0.042771215350936226,-0.008335294976729083,0.04298258416117146
1.0072035498449472,0.046352747241279996,-0.010417137887657649,0.029687677967592516,-0.00893589142643399,0.029920151764903802
1.0072506318700776,0.03458526276589038,-0.01059025393624166,0.01916866027493343,-0.009151950611029032,0.019410669676335066
1.007297713895208,0.02727830692374265,-0.010496867435692302,0.01473006896934623,-0.008978673007891817,0.014968857765841163
1.0073447959203383,0.0280866607277734,-0.009123713104525808,0.01711698325886342,-0.008359130762354608,0.017338060282504356
1.0073918779454687,0.03925806445151868,-0.005240109593156108,0.028584290137595406,-0.006523957005781919,0.028751229383121593
1.007438959970599,0.059562255279517966,-0.0010477388181220158,0.043832242766228824,-0.0046774882300963435,0.043943192113640624
1.0074860419957294,0.08449757331606145,0.002842798563190224,0.058037587268334905,-0.0035408818822290395,0.058112259881713375
1.0075331240208598,0.10858230355013457,0.00535355061023691,0.06858033205585247,-0.0020377660271532496,0.06861024592087515
1.0075802060459902,0.12742598805780986,0.00776646247332919,0.07621925524513734,-5.736418387882941e-05,0.07619288350568693
1.0076272880711206,0.13840784538629322,0.00886918955313645,0.07904744927672683,0.0015310094550888052,0.07897743800931536
1.007674370096251,0.14057521646913557,0.007743055769791708,0.0769603579802706,0.0038180882446023673,0.07683002138792869
