freq,gls,usurper,pdc_unbiased,shape_periodogram,shift_periodogram
1.0,0.02176245538732735,0.021907705533632214,-0.007335655112181927,0.001055991819896858,-0.007352080453231234
1.0000470820251304,0.05134779247241603,0.04068378265371255,0.016081221596065367,0.018543157818152897,0.01577595204427457
1.0000941640502607,0.09689124580742478,0.06047146756709497,0.05094334186944231,0.03693910995594712,0.05036366297628473
1.0001412460753911,0.14848755125694818,0.081096585407268,0.08456655871201842,0.04883799781655308,0.08385735071744471
1.0001883281005215,0.19664060203551523,0.09700951466419394,0.10917973127593883,0.058500426905958344,0.10840048208753264
1.0002354101256519,0.23592916525893703,0.10631002635287497,0.12678225514793529,0.06507295403423391,0.1259801080833322
1.0002824921507822,0.26363730657080775,0.1116285723289829,0.13936052532630389,0.06897879288927558,0.1385604129079221
1.0003295741759126,0.2780607972143743,0.11539005806828367,0.14663287491158739,0.07217288599598079,0.14583283998727456
1.000376656201043,0.27778293516045677,0.11871628136404996,0.14742341655727248,0.07513299292743707,0.1466096785803895
1.0004237382261734,0.2619162710265795,0.11972693319162706,0.139633635428265,0.07734269848669846,0.1387836091293451
1.0004708202513037,0.23107843684954268,0.11678769033894766,0.12167319492364326,0.07796524561837238,0.12076108226017113
1.0005179022764341,0.1884924826566669,0.111461819867455,0.09811663264576473,0.0769004378245489,0.09713775153619635
1.0005649843015645,0.1401213853463462,0.10767257768735905,0.07552593926328457,0.07594548654186929,0.07448729310586918
1.0006120663266949,0.09311329616242185,0.10735771049735758,0.056936636782797936,0.0759821421671551,0.05584230748648606
1.0006591483518252,0.05338098213176131,0.11181391081886273,0.04656239048066332,0.07790636996114203,0.04541263464339009
1.0007062303769556,0.024158292773911582,0.11722703203381693,0.0379052596807291,0.07974219800188832,0.03670405004516196
1.000753312402086,0.006389706849983347,0.11681248108773876,0.024925530867037873,0.07988222633957737,0.02368110835519997
1.0008003944272164,4.4957735270936574e-05,0.11674883817372883,0.013623927240606612,0.07733328837918113,0.01238369481045978
1.0008474764523467,0.004476680458159687,0.11765229931453014,0.005279248516488982,0.07818642719136384,0.004000963822423853
1.000894558477477,0.016631009383087918,0.12351266528143182,0.00604487589630294,0.08164547074823587,0.004712925641475141
1.0009416405026075,0.030279800796216314,0.13769407845027634,0.01614856324889533,0.08747162262090982,0.014760410405576392
1.0009887225277379,0.04019506929021177,0.15606063335793055,0.031662352407458065,0.09762031088199861,0.030193971336037545
1.0010358045528682,0.045271217739530065,0.17725280877202879,0.049643587368788454,0.10777640778480008,0.04814496893215877
1.0010828865779986,0.04665854735345898,0.1885945227353258,0.06394396252727896,0.11570880665724977,0.06245565948427436
1.001129968603129,0.04557434040645729,0.1924014639755309,0.06951556918541625,0.11972867900116951,0.06803200309307869
1.0011770506282593,0.04281463251624272,0.18902283455772192,0.06676401531502141,0.11945153692412529,0.06526243998550751
1.0012241326533897,0.03911406922799136,0.18003377455283837,0.05756222886158259,0.11565642777541256,0.05603041567850682
1.00127121467852,0.035734840091298535,0.16680145352584594,0.04469056838221148,0.10884872037182572,0.04314987386624585
1.0013182967036505,0.034632288517627896,0.15597753842522646,0.03354469161607427,0.10355266069352086,0.032006434957447295
1.0013653787287808,0.03686446430802818,0.15732273095560054,0.03235087082016887,0.10380794307109728,0.03080274119330528
1.0014124607539112,0.040499198873267514,0.1677398421124245,0.04235422606047071,0.10789922248673636,0.04081089509397716
1.0014595427790416,0.04245011553894062,0.18087395727810393,0.05148956578485458,0.11238131577333023,0.04995135917655746
1.001506624804172,0.04142424671447975,0.18960321427166288,0.057489670337512934,0.11557789531326373,0.055958142606458115
1.0015537068293023,0.03772147907862947,0.18929723879306426,0.05838903434484734,0.11595346295514365,0.05685997956011015
1.0016007888544327,0.032149333674356434,0.18262094664867082,0.05286952532393206,0.11154896820488616,0.05134918735306818
1.001647870879563,0.025799799790141527,0.17017159726676795,0.040386054375886556,0.10375269402017982,0.038882479573793004
1.0016949529046935,0.020580986012262138,0.15236064827860935,0.02276083148008517,0.09325789690299253,0.02131320046117896
1.0017420349298238,0.01993155776046648,0.13533254726724983,0.008396000375120035,0.08376775583476956,0.007037783647939633
1.0017891169549542,0.027489951613850306,0.12755505406269813,0.00883020356959996,0.08110381690838396,0.007515909966939766
1.0018361989800846,0.042074300128446054,0.12607262734818483,0.022145335055818467,0.0854073454793019,0.0208103195083637
1.001883281005215,0.05845891480384451,0.12786274349578197,0.04104344236602053,0.09250673539482163,0.03968538041835235
1.0019303630303453,0.07582159493280267,0.13461193453038767,0.05832937685591873,0.09914235550770047,0.05697379437810378
1.0019774450554757,0.09824195100672209,0.14030286634082895,0.07041397317164165,0.09915869225140705,0.06911949986452542
1.002024527080606,0.1303669711588208,0.1355038317585563,0.07896421651578898,0.09514001180875306,0.07774892136354006
1.0020716091057364,0.17464242099810953,0.12261695834128222,0.08832693698111686,0.08954019213209037,0.08720244079680145
1.0021186911308668,0.22917237164395338,0.1179297830289186,0.11355266104308831,0.08632327398040143,0.11255528384270175
1.0021657731559972,0.2864808872447173,0.12206656902059845,0.14880372324738836,0.08525305541298825,0.14795041716945287
1.0022128551811276,0.335488571803669,0.12775417458812588,0.17945522269565434,0.0846259792045047,0.17872262746781645
1.002259937206258,0.3667004160945303,0.13024704678493743,0.20044309409803335,0.08205373212124926,0.1997904340323057
1.0023070192313883,0.37630521047742305,0.12868159421736433,0.20989430295355302,0.07740689953280384,0.2092734894488134
1.0023541012565187,0.3658732131217113,0.1231620979745817,0.20800353236518512,0.07128898326659219,0.20738049019896157
1.002401183281649,0.3393357840705059,0.11448964205179213,0.19716291122807472,0.06389184905137552,0.19652970798653382
1.0024482653067794,0.30043566038503033,0.10338799908343906,0.1783931936762516,0.055225306981425526,0.17776427983003207
1.0024953473319098,0.25183659939415354,0.08841558728396914,0.15384153094853617,0.04517014811234281,0.1532548361388788
1.0025424293570402,0.1956066522565673,0.07041543233491301,0.12081929242955049,0.0341014560166822,0.12032169630352617
1.0025895113821706,0.13475970805500284,0.04918590863230643,0.07564140824241966,0.02074571274129921,0.07530796216884551
1.002636593407301,0.07582916802294695,0.027341830360426984,0.025728531183742454,0.008792966105834828,0.025581104440974334
1.0026836754324313,0.03145358980808763,0.021087741762647445,-0.0040036080406334615,0.0016689356149799145,-0.004030600890682012
1.0027307574575617,0.01779891286180085,0.02735998587691504,-0.006351274616742859,0.0034773823652162797,-0.0064078125738128685
1.002777839482692,0.04358985242398123,0.032475822741163264,0.006591376950054447,0.01504468476150918,0.00634301849028696
1.0028249215078224,0.1037077589167159,0.038683709751908116,0.04281328660270074,0.03151001454635421,0.0423100274613656
1.0028720035329528,0.18101238562213362,0.05125739173289476,0.0979436666785688,0.05315409570395357,0.09720216353960952
1.0029190855580832,0.25636899888384335,0.07169551550436938,0.15380629462607742,0.06500258687871935,0.15306722423412025
1.0029661675832136,0.31832235074100634,0.09504185579904283,0.19704252226634572,0.06306464202805691,0.19641197691668302
1.003013249608344,0.36361141655314383,0.10590663929101599,0.228525784613192,0.06113337850505668,0.2279697035490861
1.0030603316334743,0.39341420767750745,0.11296928202546719,0.24979870354304085,0.06166920731543455,0.24928789714040797
1.0031074136586047,0.4102870696014962,0.11695051613855915,0.26258314989231946,0.06133238668646478,0.2621001365187719
1.003154495683735,0.41662904201390033,0.11834313249644653,0.266777273312063,0.060582987471187066,0.2663030614038262
1.0032015777088654,0.41405085665469693,0.11765074106195238,0.26326150551395927,0.05909496331793503,0.26278009364960386
1.0032486597339958,0.4030953535584088,0.11497959474141364,0.251751202986526,0.056525990979864014,0.2512499317440338
1.0032957417591262,0.38301151602067063,0.1103530973428197,0.2324239377319079,0.05313894492696172,0.23189724024294595
1.0033428237842565,0.3514583105172215,0.10359862174525969,0.2047530276495091,0.04894364543726169,0.20420348433438837
1.003389905809387,0.3042863356687068,0.09437159946547763,0.16911475512504195,0.04405112556049689,0.16855547542287205
1.0034369878345173,0.2364892670841809,0.08348759836731164,0.12615890065588273,0.03879843353735935,0.12561016798496144
1.0034840698596477,0.14805992805189566,0.07205062737006791,0.07745804013496241,0.03418782870742896,0.07693329710006967
1.003531151884778,0.05937981673678241,0.06598804640423926,0.035632586371168055,0.03452301766221529,0.03508016313917045
1.0035782339099084,0.016571701488668728,0.07136600966812837,0.012038086514572617,0.04199842150776841,0.011353751310221531
1.0036253159350388,0.04141534161646615,0.09041114388312078,0.014399178728297872,0.05694103306738608,0.013479993087371732
1.0036723979601692,0.0978579156313711,0.11408236624653753,0.03595348541122598,0.07444286918976686,0.0348192980453917
1.0037194799852995,0.14599333246590304,0.13739814628204952,0.06503465797160808,0.09151857383217649,0.06379202226665237
1.00376656201043,0.17300879075255565,0.1558432339101607,0.0922030709843016,0.10535667662007209,0.09097641780294602
1.0038136440355603,0.18229222765708752,0.16774776788319773,0.11374971918924169,0.11486513348391365,0.11261154898028207
1.0038607260606907,0.18262972424027749,0.17594780040485566,0.12736778710133306,0.12065660393003082,0.12631599858686435
1.003907808085821,0.18292620727983336,0.17935942593447338,0.13485525602086357,0.12187010619398059,0.13386062566900142
1.0039548901109514,0.18798821740501145,0.18079561250280532,0.13913083302593265,0.11656855832820327,0.13816816464045145
1.0040019721360818,0.19658928748535154,0.18045876894335003,0.1397247738744464,0.11056395789693708,0.13876916389376565
1.0040490541612122,0.20361099360789395,0.1766466677447501,0.1356935801867525,0.10313155770680546,0.13472572677795602
1.0040961361863425,0.20356945018764083,0.16940754497963512,0.1287855413388881,0.09483314088109061,0.1278087846828457
1.004143218211473,0.19261735903368254,0.15827668200552467,0.11776025800915435,0.08526422671671255,0.11678616833151169
1.0041903002366033,0.1692114287165738,0.14274557465244128,0.09836742477706704,0.07585514850672578,0.09739862945555113
1.0042373822617336,0.13469585530973552,0.12425281812270775,0.07519967777083232,0.06689658592628692,0.07426054268791132
1.004284464286864,0.094068350002802,0.10739175469495887,0.051842634052145065,0.05885279491405315,0.0509566263661294
1.0043315463119944,0.0558705414627791,0.09265263740310299,0.03082107495389939,0.05287782268858855,0.029987672447793746
1.0043786283371248,0.029785725493520713,0.08360935621366142,0.019809015244991575,0.049417346409196615,0.01901475726423206
1.0044257103622551,0.022326134922130727,0.080740952562387,0.01684685304795892,0.048703274626936244,0.01606047429407579
1.0044727923873855,0.03362727707623793,0.08301334626978894,0.01768087969631584,0.05096271100497335,0.01686001119469049
1.004519874412516,0.057935866130881315,0.08848014286217387,0.0238553638180855,0.0549762223709783,0.02298064742395666
1.0045669564376463,0.08691312585069338,0.09695165928794112,0.038233159934289905,0.061444312770477204,0.037286824639946536
1.0046140384627766,0.11302745450084833,0.10654199738904963,0.05542672474865837,0.07058939290055084,0.05439521956978985
1.004661120487907,0.13143773576861661,0.11302672786991319,0.07126698378066398,0.08039148687063179,0.07016699682281782
1.0047082025130374,0.140315951549541,0.1171939134234321,0.0817840112464661,0.08835321286778706,0.08064305563510228
1.0047552845381678,0.14016084842095028,0.11768466563167258,0.0846685751900148,0.09383848156488625,0.08349123817467988
1.0048023665632981,0.13271042804166153,0.11362520943908604,0.08028160564993014,0.09424541194924528,0.07908048518611929
1.0048494485884285,0.1199532079956697,0.1062383162373732,0.06958311394397716,0.09219512931659903,0.06835329089369523
1.0048965306135589,0.10352759540252561,0.09260571178443162,0.05738407400153901,0.08596466891700921,0.05617222889382163
1.0049436126386893,0.08458770500586026,0.07706067047315604,0.04469505929439128,0.0770255917373576,0.043551122611379736
1.0049906946638196,0.06411017510052013,0.061680284986408304,0.03435472552873721,0.0679540770892879,0.033307832170636806
1.00503777668895,0.043500849939608656,0.049300818354217534,0.022887706523455283,0.05711341473320937,0.021978952015079132
1.0050848587140804,0.02497562650004661,0.038121147294429045,0.013888116903115118,0.04580394192783228,0.01314459166345474
1.0051319407392107,0.011013597455985432,0.02875711460431096,0.011624969459267675,0.03529979496849456,0.011048037321040009
1.0051790227643411,0.003334338693202587,0.019809846292087843,0.009001101837417943,0.02582497049662968,0.00857674738478359
1.0052261047894715,0.0027948227754708652,0.012759910017944352,0.005716764128480125,0.017822413900050255,0.005422841520220704
1.0052731868146019,0.010164673003053454,0.008066491940579276,0.005314070387151807,0.009041478016614705,0.005164405538381146
1.0053202688397322,0.026566180290056158,0.005871339681194719,0.008193549268036414,0.0028197081986851983,0.008145954095746682
1.0053673508648626,0.05291846997433676,0.005699628112884674,0.011498759854167706,-0.00039341967491042767,0.011503685139281196
1.005414432889993,0.08828034555015178,0.008235729346078392,0.017065936640710815,-0.0036461118917913266,0.01712385285616947
1.0054615149151234,0.12763762777320273,0.010893144285217971,0.025647230237824777,-0.005424773139087181,0.025733525561915802
1.0055085969402537,0.16155770115500132,0.014591917279169404,0.038076850744054896,-0.00463606338590263,0.038148401258473325
1.0055556789653841,0.18078890709766565,0.0170854924203876,0.05135766337998839,-0.00033846787245407373,0.05135625728705892
1.0056027609905145,0.18307418566708303,0.01693990202850486,0.06056084021799014,0.006622687778098886,0.060445293163079755
1.0056498430156449,0.1741533504439713,0.014913970682978383,0.06655908741414072,0.012315745537026202,0.06635324892257112
1.0056969250407752,0.16242605985016223,0.013545373852917668,0.07063087442771013,0.017097944757308917,0.0703515747848463
1.0057440070659056,0.15418810481596457,0.01369733503510056,0.07107575192890922,0.02173005978149112,0.07072695916303098
1.005791089091036,0.1523552110015489,0.014077528431160457,0.0660360559428213,0.02551667415753788,0.06563016497986657
1.0058381711161664,0.15691036178882456,0.013462170114550722,0.06130313889977103,0.028678080478502704,0.060849298197626744
1.0058852531412967,0.16538784679386007,0.013444862293988199,0.06307528196508604,0.030851129316343366,0.06259046184066944
1.005932335166427,0.17322460684996496,0.012269918448445806,0.06323184659303546,0.03227207751289157,0.06272658440338506
1.0059794171915575,0.17475929729964576,0.010687966794897072,0.05880087400333982,0.032533317031185456,0.05828969752292996
1.0060264992166879,0.16548577922015562,0.008825272639956012,0.05204155960234529,0.031211889238982164,0.051546704985747864
1.0060735812418182,0.1445721481217929,0.006403401158301205,0.04234591607178599,0.026924019315552297,0.0419123418398265
1.0061206632669486,0.11538472372115638,0.0052170643364094025,0.03266210113426135,0.020500351742457592,0.032326784746665144
1.006167745292079,0.08342022676517998,0.003387885230431457,0.0259645785337829,0.014628331399628035,0.02572271336684644
1.0062148273172093,0.053714935068683495,0.0028025369701057783,0.01794830890199036,0.009491379639210734,0.017790162181087206
1.0062619093423397,0.029620632829972474,0.0032137210112388906,0.006428025048282717,0.00439046011365873,0.006354785767046886
1.00630899136747,0.012907514843990737,0.004112466286366187,-0.004503164505502606,0.0008485656782652751,-0.004516551834744702
1.0063560733926005,0.004292560353454192,0.006198798505269799,-0.010519166817943732,0.001016962714480392,-0.010534515125021793
1.0064031554177308,0.0038095921685766332,0.010801283315801779,-0.007972360122875525,0.005060690782217622,-0.008054857491982061
1.0064502374428612,0.010924293923755681,0.01951534028747028,0.0013341291502741227,0.012936915699358596,0.0011206191861263337
1.0064973194679916,0.02453035587728399,0.02863864648496659,0.011333716656649779,0.0223979360426495,0.010965491028706743
1.006544401493122,0.042966387475684646,0.036526621043596094,0.020787738978896356,0.03173395318026703,0.02027192689022333
1.0065914835182523,0.06411092062196938,0.04259093849381353,0.03329944681240632,0.039173711947241854,0.03267477182154785
1.0066385655433827,0.08556714248621351,0.04706136862920592,0.049462130528264495,0.043062747844917294,0.048792723428179904
1.006685647568513,0.10493697207975199,0.05200041268716916,0.06485229624100503,0.04352451467489889,0.06419052945492335
1.0067327295936435,0.12014720761669652,0.05476571569667476,0.07640706666955516,0.04167999175753383,0.07578055914166779
1.0067798116187738,0.12974860817624662,0.055732811741778514,0.08294186479002422,0.037126234735293605,0.08238084808611333
1.0068268936439042,0.1331160769266914,0.05387797862500497,0.08436945777741765,0.03177182166502003,0.08388151304803347
1.0068739756690346,0.13051634907150206,0.04874959697165813,0.08386978816652868,0.02409577981232672,0.08348918025249613
1.006921057694165,0.12301693370584733,0.041223918472443714,0.08185258015702256,0.017908660118961146,0.08156201932210728
1.0069681397192953,0.11219272060745543,0.033011704850142695,0.07585112215539112,0.01367882354691473,0.075624170395778
1.0070152217444257,0.09964098937742749,0.026065413141440386,0.06985230351433948,0.010236623593583618,0.06967883273132988
1.007062303769556,0.08648287672211809,0.020974005460739853,0.06302251331950957,0.00737496088474463,0.06289473093657857
1.0071093857946865,0.07315337862299943,0.01858436739036551,0.053521194673379444,0.005557413720689116,0.053423465795694326
1.0071564678198168,0.05967551136841471,0.01935572331880895,0.042771215350936226,0.004397393768655515,0.04269347136506078
1.0072035498449472,0.046352747241279996,0.01973208537430377,0.029687677967592516,0.0036986174333826266,0.0296229075294111
1.0072506318700776,0.03458526276589038,0.020188423463087357,0.01916866027493343,0.004685512486573558,0.019089006736061565
1.007297713895208,0.02727830692374265,0.020586209048295754,0.01473006896934623,0.006962325395788107,0.014613597261740953
1.0073447959203383,0.0280866607277734,0.02253431798400873,0.01711698325886342,0.008535596601983674,0.016974520769153446
1.0073918779454687,0.03925806445151868,0.02683206839674534,0.028584290137595406,0.011375028059931395,0.028394811395464337
1.007438959970599,0.059562255279517966,0.032907694383529924,0.043832242766228824,0.01562522773224689,0.04357456446034368
1.0074860419957294,0.08449757331606145,0.03920632984558069,0.058037587268334905,0.02002191437753015,0.057712598544038124
1.0075331240208598,0.10858230355013457,0.042919557720874475,0.06858033205585247,0.024220016364668442,0.06819419111587671
1.0075802060459902,0.12742598805780986,0.043644568789367864,0.07621925524513734,0.025875289028234494,0.07581100373119667
1.0076272880711206,0.13840784538629322,0.041520129761894585,0.07904744927672683,0.02567099673792753,0.07864295798033806
1.007674370096251,0.14057521646913557,0.03737647417636104,0.0769603579802706,0.024304732481793632,0.07657501268217255
1.0077214521213813,0.1345761316442056,0.0324679417352686,0.07084930100861353,0.020522568573360565,0.07051845443341703
1.0077685341465117,0.12269802495893224,0.025481856374802252,0.062425783036096825,0.01584040174589578,0.062165287608726964
