freq,gls,usurper,pdc_unbiased,shape_periodogram,shift_periodogram
1.0,0.02176245538732735,0.04705162182486738,-0.007335655112181927,0.041331591530662376,-0.014405674862764627
1.0000470820251304,0.05134779247241603,0.0942032554192542,0.016081221596065367,0.08519349246270783,0.0010638654926129198
1.0000941640502607,0.09689124580742478,0.1446658163482555,0.05094334186944231,0.1339197457166542,0.027238968357837318
1.0001412460753911,0.14848755125694818,0.19435186014003708,0.08456655871201842,0.1805580982493648,0.053058785889822366
1.0001883281005215,0.19664060203551523,0.23383419156766422,0.10917973127593883,0.21837422476875196,0.07183940173040632
1.0002354101256519,0.23592916525893703,0.26161227149950567,0.12678225514793529,0.2454758620399584,0.08560378829942528
1.0002824921507822,0.26363730657080775,0.2819021949525114,0.13936052532630389,0.2631661351193876,0.09589763397909166
1.0003295741759126,0.2780607972143743,0.2941121988128759,0.14663287491158739,0.27413207898176256,0.10181979245146375
1.000376656201043,0.27778293516045677,0.2990227773873294,0.14742341655727248,0.2792418228352153,0.10189016829454657
1.0004237382261734,0.2619162710265795,0.2956540947253517,0.139633635428265,0.27654871503234524,0.09416973465091144
1.0004708202513037,0.23107843684954268,0.2811132036206786,0.12167319492364326,0.2644469563069661,0.07737904602015512
1.0005179022764341,0.1884924826566669,0.26056558117408246,0.09811663264576473,0.24764901999151168,0.05578857997190603
1.0005649843015645,0.1401213853463462,0.24784064051668545,0.07552593926328457,0.23875346152481872,0.03414272521883913
1.0006120663266949,0.09311329616242185,0.24590719169634304,0.056936636782797936,0.24004786862621116,0.014956418525894133
1.0006591483518252,0.05338098213176131,0.25509439294237723,0.04656239048066332,0.25030869762080254,0.0025640268381424735
1.0007062303769556,0.024158292773911582,0.2660359744191635,0.0379052596807291,0.26237375045584305,-0.008455382701721595
1.000753312402086,0.006389706849983347,0.2691350956308363,0.024925530867037873,0.2681099633380303,-0.022785217709868334
1.0008003944272164,4.4957735270936574e-05,0.2706131018688861,0.013623927240606612,0.2694163843022167,-0.034578636793946446
1.0008474764523467,0.004476680458159687,0.27250507187494244,0.005279248516488982,0.2747845331251012,-0.044127864473928996
1.000894558477477,0.016631009383087918,0.2854987909677422,0.00604487589630294,0.2906807703997654,-0.04643113362010171
1.0009416405026075,0.030279800796216314,0.31519175006879,0.01614856324889533,0.3197097773604587,-0.04171256320036038
1.0009887225277379,0.04019506929021177,0.35660288566549114,0.031662352407458065,0.3579581555355593,-0.0330757331686443
1.0010358045528682,0.045271217739530065,0.4018798461456361,0.049643587368788454,0.39895512655500104,-0.022088938178400686
1.0010828865779986,0.04665854735345898,0.4348493444512917,0.06394396252727896,0.43282248055900885,-0.013291263394058467
1.001129968603129,0.04557434040645729,0.449482576371704,0.06951556918541625,0.45044400140061286,-0.010657771011525465
1.0011770506282593,0.04281463251624272,0.44365031800055404,0.06676401531502141,0.449733174094658,-0.013570015969798819
1.0012241326533897,0.03911406922799136,0.422685722454306,0.05756222886158259,0.433613338277802,-0.020459630916728207
1.00127121467852,0.035734840091298535,0.39363930550794335,0.04469056838221148,0.4078170867993008,-0.029220400734502928
1.0013182967036505,0.034632288517627896,0.37135842063529567,0.03354469161607427,0.38797893845436404,-0.03713766561166299
1.0013653787287808,0.03686446430802818,0.3715756690533266,0.03235087082016887,0.3864460164094327,-0.038098180807221056
1.0014124607539112,0.040499198873267514,0.39113161266575414,0.04235422606047071,0.40257471538500617,-0.030671491246975095
1.0014595427790416,0.04245011553894062,0.4174925729219503,0.05148956578485458,0.4270616795579071,-0.025771386762589284
1.001506624804172,0.04142424671447975,0.4371151008205225,0.057489670337512934,0.4440602715718854,-0.022677470678359266
1.0015537068293023,0.03772147907862947,0.4406496108223012,0.05838903434484734,0.4459594226810195,-0.022075352614342212
1.0016007888544327,0.032149333674356434,0.425351278743582,0.05286952532393206,0.4288826546137026,-0.024636188187229287
1.001647870879563,0.025799799790141527,0.3900982273729975,0.040386054375886556,0.3936618884724698,-0.030973928345769414
1.0016949529046935,0.020580986012262138,0.34306643851402896,0.02276083148008517,0.34692927926625605,-0.040232245949835266
1.0017420349298238,0.01993155776046648,0.30208159558480474,0.008396000375120035,0.30699234379916024,-0.04721818718339624
1.0017891169549542,0.027489951613850306,0.2828265522552546,0.00883020356959996,0.28816562408908303,-0.04308379902744571
1.0018361989800846,0.042074300128446054,0.2831722715372292,0.022145335055818467,0.2893595633597752,-0.029638898503019356
1.001883281005215,0.05845891480384451,0.29704844006257597,0.04104344236602053,0.3033215408014546,-0.012765688602030043
1.0019303630303453,0.07582159493280267,0.311783016815748,0.05832937685591873,0.3155982066370217,0.002943084456803438
1.0019774450554757,0.09824195100672209,0.31606756740116365,0.07041397317164165,0.31361538198335026,0.015913531979402006
1.002024527080606,0.1303669711588208,0.2993015100939024,0.07896421651578898,0.2919027063555939,0.028605605953686393
1.0020716091057364,0.17464242099810953,0.2741679067696561,0.08832693698111686,0.2645260571573058,0.04292980510448765
1.0021186911308668,0.22917237164395338,0.27184870080454315,0.11355266104308831,0.2562546090706106,0.07028202240896182
1.0021657731559972,0.2864808872447173,0.29028340354349313,0.14880372324738836,0.26757053730602626,0.10504606850462467
1.0022128551811276,0.335488571803669,0.3116370580291926,0.17945522269565434,0.2834319681458032,0.1348179333297798
1.002259937206258,0.3667004160945303,0.32434083268210656,0.20044309409803335,0.29232250296870266,0.15574372849432316
1.0023070192313883,0.37630521047742305,0.32542946714827303,0.20989430295355302,0.29105811966190304,0.16588054602092253
1.0023541012565187,0.3658732131217113,0.31566848171917294,0.20800353236518512,0.2802541165124757,0.16522256927035528
1.002401183281649,0.3393357840705059,0.2965263883423359,0.19716291122807472,0.2621742177980578,0.1561695985597109
1.0024482653067794,0.30043566038503033,0.27038785092591566,0.1783931936762516,0.23824383877855895,0.13990052296569852
1.0024953473319098,0.25183659939415354,0.23886311567382792,0.15384153094853617,0.20824346338174868,0.11898384518333834
1.0025424293570402,0.1956066522565673,0.19728808796095026,0.12081929242955049,0.17095582674276957,0.09117434136951592
1.0025895113821706,0.13475970805500284,0.14068486883329168,0.07564140824241966,0.12297034839449875,0.05370609301649932
1.002636593407301,0.07582916802294695,0.08021722842195383,0.025728531183742454,0.07372235841781452,0.012590658482565083
1.0026836754324313,0.03145358980808763,0.04366707226644368,-0.0040036080406334615,0.0413751624479915,-0.011129572252921653
1.0027307574575617,0.01779891286180085,0.04004988443584307,-0.006351274616742859,0.03458918585962292,-0.012262073948908606
1.002777839482692,0.04358985242398123,0.054193540649171444,0.006591376950054447,0.04885283348949196,-0.0019858216614752153
1.0028249215078224,0.1037077589167159,0.08944376573738938,0.04281328660270074,0.08085821453387948,0.028256740147233818
1.0028720035329528,0.18101238562213362,0.14881712168674346,0.0979436666785688,0.13423547109241674,0.07410553264346055
1.0029190855580832,0.25636899888384335,0.21224386992750935,0.15380629462607742,0.18887972678049,0.12182631447767893
1.0029661675832136,0.31832235074100634,0.2636749566157016,0.19704252226634572,0.22861571112197365,0.16047355228202562
1.003013249608344,0.36361141655314383,0.2964947557280448,0.228525784613192,0.2544438446399738,0.1898837464023803
1.0030603316334743,0.39341420767750745,0.31794727838074033,0.24979870354304085,0.27067515164313355,0.21032711970463155
1.0031074136586047,0.4102870696014962,0.32985907222367034,0.26258314989231946,0.27964772562960966,0.2228639967212561
1.003154495683735,0.41662904201390033,0.3345166732085001,0.266777273312063,0.28268367073537665,0.22699422829871707
1.0032015777088654,0.41405085665469693,0.3327756332212095,0.26326150551395927,0.2799254006321753,0.22355302156484558
1.0032486597339958,0.4030953535584088,0.3244499149815158,0.251751202986526,0.2712755828091666,0.21231773506793397
1.0032957417591262,0.38301151602067063,0.3092982052106642,0.2324239377319079,0.2566456708204108,0.19369555280614087
1.0033428237842565,0.3514583105172215,0.28667156392797144,0.2047530276495091,0.2358965496279382,0.16748432644478814
1.003389905809387,0.3042863356687068,0.25641387306143704,0.16911475512504195,0.20953288999917394,0.13441472091719
1.0034369878345173,0.2364892670841809,0.21881926338418736,0.12615890065588273,0.17802724170757211,0.09545635735332372
1.0034840698596477,0.14805992805189566,0.17645933747297574,0.07745804013496241,0.14464685295899485,0.05189647365235876
1.003531151884778,0.05937981673678241,0.14634070731360105,0.035632586371168055,0.12390284929649151,0.013724303048131183
1.0035782339099084,0.016571701488668728,0.14664707630732368,0.012038086514572617,0.1320296266713077,-0.011145071553854588
1.0036253159350388,0.04141534161646615,0.1890730635876296,0.014399178728297872,0.17856414874177443,-0.017066984650416787
1.0036723979601692,0.0978579156313711,0.2576976893651697,0.03595348541122598,0.2483881513871651,-0.007906896111993356
1.0037194799852995,0.14599333246590304,0.33451546000490284,0.06503465797160808,0.3276208095450069,0.007777534240786707
1.00376656201043,0.17300879075255565,0.40070926650748684,0.0922030709843016,0.3963209385425511,0.02443351774704961
1.0038136440355603,0.18229222765708752,0.4475704683239037,0.11374971918924169,0.44532014610873416,0.039619805767674335
1.0038607260606907,0.18262972424027749,0.47676658435121533,0.12736778710133306,0.47700963555550685,0.04967646836168582
1.003907808085821,0.18292620727983336,0.4917187777011607,0.13485525602086357,0.4933555791339116,0.05561118419785112
1.0039548901109514,0.18798821740501145,0.4975240252599745,0.13913083302593265,0.49845071829572063,0.05975491858748052
1.0040019721360818,0.19658928748535154,0.4933283748145529,0.1397247738744464,0.49447480214224376,0.06107765922179209
1.0040490541612122,0.20361099360789395,0.4825855565637554,0.1356935801867525,0.4797286573531151,0.0587755119351013
1.0040961361863425,0.20356945018764083,0.462797507481406,0.1287855413388881,0.45416014602882887,0.05503901442250499
1.004143218211473,0.19261735903368254,0.4295320209989653,0.11776025800915435,0.41851440953193525,0.048591043541982654
1.0041903002366033,0.1692114287165738,0.38192988128719013,0.09836742477706704,0.3708868878339668,0.03551870578630468
1.0042373822617336,0.13469585530973552,0.3263607745095995,0.07519967777083232,0.31702358738040376,0.020316210881066304
1.004284464286864,0.094068350002802,0.27382364078805493,0.051842634052145065,0.26504542310359913,0.005335768381832906
1.0043315463119944,0.0558705414627791,0.2278343765179543,0.03082107495389939,0.21920116160803074,-0.007849695724173164
1.0043786283371248,0.029785725493520713,0.19756822267854518,0.019809015244991575,0.18830846482529856,-0.013393856825073196
1.0044257103622551,0.022326134922130727,0.1829504207083391,0.01684685304795892,0.1727121654532849,-0.013571194869667303
1.0044727923873855,0.03362727707623793,0.18178435689603362,0.01768087969631584,0.17180619404422895,-0.012575575538570976
1.004519874412516,0.057935866130881315,0.19220085153727925,0.0238553638180855,0.1829408550430901,-0.00837747876253612
1.0045669564376463,0.08691312585069338,0.21520640195106966,0.038233159934289905,0.20626878468731288,0.001939009321942646
1.0046140384627766,0.11302745450084833,0.24519827697139088,0.05542672474865837,0.23706676776119096,0.01393987322155155
1.004661120487907,0.13143773576861661,0.2738617431021128,0.07126698378066398,0.2680741560124111,0.024758467198902144
1.0047082025130374,0.140315951549541,0.2956055914582856,0.0817840112464661,0.2924478862095953,0.031440217499921694
1.0047552845381678,0.14016084842095028,0.3055387558658078,0.0846685751900148,0.30618280414227406,0.03209406910238728
1.0048023665632981,0.13271042804166153,0.3029599101791311,0.08028160564993014,0.3065326951102205,0.02745461133545061
1.0048494485884285,0.1199532079956697,0.2893982905209566,0.06958311394397716,0.2965420329975499,0.01805971181936261
1.0048965306135589,0.10352759540252561,0.2656534398227752,0.05738407400153901,0.2745063927610871,0.009344225027441895
1.0049436126386893,0.08458770500586026,0.23426934953845488,0.04469505929439128,0.2436227154423218,0.0018533638753177367
1.0049906946638196,0.06411017510052013,0.202016223611005,0.03435472552873721,0.2115315849731504,-0.0029086811665754273
1.00503777668895,0.043500849939608656,0.17104853494680095,0.022887706523455283,0.1804199155170191,-0.008898501314018906
1.0050848587140804,0.02497562650004661,0.1408238182249074,0.013888116903115118,0.1490513086483673,-0.012315332688908083
1.0051319407392107,0.011013597455985432,0.11799306824696873,0.011624969459267675,0.12354704387873579,-0.01006013274077572
1.0051790227643411,0.003334338693202587,0.09944560158301347,0.009001101837417943,0.10366448362871028,-0.009167828982103719
1.0052261047894715,0.0027948227754708652,0.08001257788508884,0.005716764128480125,0.08350531721224819,-0.008887085563264042
1.0052731868146019,0.010164673003053454,0.06273612062443217,0.005314070387151807,0.06391873298175553,-0.005867001722692691
1.0053202688397322,0.026566180290056158,0.051114587284143635,0.008193549268036414,0.050240648514872296,-0.0006470218726945519
1.0053673508648626,0.05291846997433676,0.04366023353868621,0.011498759854167706,0.041672405117819444,0.004099319796932484
1.005414432889993,0.08828034555015178,0.04054933371905061,0.017065936640710815,0.036389712011934416,0.010503078966600514
1.0054615149151234,0.12763762777320273,0.04227538105542175,0.025647230237824777,0.03465007143491568,0.019263531217060228
1.0055085969402537,0.16155770115500132,0.049249902239311256,0.038076850744054896,0.03928933459286681,0.030719994379959314
1.0055556789653841,0.18078890709766565,0.05778578685617201,0.05135766337998839,0.047448604211968747,0.042423950978614476
1.0056027609905145,0.18307418566708303,0.06379665561506881,0.06056084021799014,0.05508434331805906,0.050209090916981794
1.0056498430156449,0.1741533504439713,0.06636450984017211,0.06655908741414072,0.058124824646008114,0.05561995655446998
1.0056969250407752,0.16242605985016223,0.06782347038038354,0.07063087442771013,0.06010578825700277,0.059309703941732135
1.0057440070659056,0.15418810481596457,0.06980429488450875,0.07107575192890922,0.06208169021190275,0.0594152049964122
1.005791089091036,0.1523552110015489,0.07035918333524623,0.0660360559428213,0.06283554207269539,0.05430349660292569
1.0058381711161664,0.15691036178882456,0.07116780191898701,0.06130313889977103,0.06418987588971772,0.0493932935006627
1.0058852531412967,0.16538784679386007,0.07687114768687386,0.06307528196508604,0.06842303098487533,0.05042683827053647
1.005932335166427,0.17322460684996496,0.08181931069211672,0.06323184659303546,0.07321847434771742,0.0497679426012981
1.0059794171915575,0.17475929729964576,0.08246299681177127,0.05880087400333982,0.07456156119737357,0.04515437937032023
1.0060264992166879,0.16548577922015562,0.07940925775013467,0.05204155960234529,0.07210254161544231,0.03888545908040625
1.0060735812418182,0.1445721481217929,0.07324192456740886,0.04234591607178599,0.06688071200550925,0.03019261871563428
1.0061206632669486,0.11538472372115638,0.06844929698945713,0.03266210113426135,0.061083815612448786,0.021622485927479323
1.006167745292079,0.08342022676517998,0.06251316734540373,0.0259645785337829,0.054384240325733336,0.016166701354647362
1.0062148273172093,0.053714935068683495,0.05886338145959685,0.01794830890199036,0.04994014994675479,0.009026248984015849
1.0062619093423397,0.029620632829972474,0.05404358880795698,0.006428025048282717,0.0458085769246747,-0.0016179159657845603
1.00630899136747,0.012907514843990737,0.04888591309521864,-0.004503164505502606,0.04347623226886318,-0.011987695237225472
1.0063560733926005,0.004292560353454192,0.04893314525694911,-0.010519166817943732,0.045881525863218954,-0.018336034711090052
1.0064031554177308,0.0038095921685766332,0.055946408553471605,-0.007972360122875525,0.05517033617083312,-0.01744664143319756
1.0064502374428612,0.010924293923755681,0.07527528401452303,0.0013341291502741227,0.07710269348441977,-0.012097064810690457
1.0064973194679916,0.02453035587728399,0.09861900984119841,0.011333716656649779,0.1025429469648162,-0.006661619197406905
1.006544401493122,0.042966387475684646,0.1209660161585367,0.020787738978896356,0.12761293648498828,-0.0016751242621124854
1.0065914835182523,0.06411092062196938,0.14228901720938572,0.03329944681240632,0.1483126971733252,0.007162356609749951
1.0066385655433827,0.08556714248621351,0.1631736056055514,0.049462130528264495,0.16613963680565835,0.02022683321249421
1.006685647568513,0.10493697207975199,0.18145975019626936,0.06485229624100503,0.18121971275948745,0.03309568825334462
1.0067327295936435,0.12014720761669652,0.19300634909243353,0.07640706666955516,0.18979106980312938,0.043290986123686655
1.0067798116187738,0.12974860817624662,0.19712573696253996,0.08294186479002422,0.18989244379692627,0.04987036450441096
1.0068268936439042,0.1331160769266914,0.19332576096141005,0.08436945777741765,0.18148529567027577,0.05270640131309189
1.0068739756690346,0.13051634907150206,0.1830188669841275,0.08386978816652868,0.16745645722215427,0.05452953581680302
1.006921057694165,0.12301693370584733,0.1653531074484134,0.08185258015702256,0.14845141774913312,0.05566067686791306
1.0069681397192953,0.11219272060745543,0.14301018471342122,0.07585112215539112,0.12589708973922895,0.05342539401698743
1.0070152217444257,0.09964098937742749,0.11884569225666623,0.06985230351433948,0.10099202678288777,0.0516368018823451
1.007062303769556,0.08648287672211809,0.09642889271663743,0.06302251331950957,0.07878069427762376,0.04861733227718621
1.0071093857946865,0.07315337862299943,0.07739010637246603,0.053521194673379444,0.06030122419544034,0.042363313584912285
1.0071564678198168,0.05967551136841471,0.06292947010402791,0.042771215350936226,0.04686691966611462,0.034048439886053286
1.0072035498449472,0.046352747241279996,0.04957181475953664,0.029687677967592516,0.03641965740586285,0.022941496593580735
1.0072506318700776,0.03458526276589038,0.041331336287893386,0.01916866027493343,0.031231578675745192,0.013468749513159501
1.007297713895208,0.02727830692374265,0.03945268543761702,0.01473006896934623,0.031330443005604246,0.009077146440146271
1.0073447959203383,0.0280866607277734,0.04582864447184144,0.01711698325886342,0.037835210926335745,0.010303060399370277
1.0073918779454687,0.03925806445151868,0.06417940541688541,0.028584290137595406,0.05426545655729663,0.018772722851333908
1.007438959970599,0.059562255279517966,0.08773414415732739,0.043832242766228824,0.07447890910513263,0.03035885009934862
1.0074860419957294,0.08449757331606145,0.11018184311422244,0.058037587268334905,0.0936567049819725,0.04115259099167002
1.0075331240208598,0.10858230355013457,0.12745752200058502,0.06858033205585247,0.10992070120368899,0.04886874971628426
1.0075802060459902,0.12742598805780986,0.1374739681028156,0.07621925524513734,0.1193077076121423,0.054894744101816835
1.0076272880711206,0.13840784538629322,0.13920770585879988,0.07904744927672683,0.12113147701118078,0.05740784083526999
1.007674370096251,0.14057521646913557,0.13400789306199304,0.0769603579802706,0.1188382503086309,0.05571147881417586
1.0077214521213813,0.1345761316442056,0.12329123024539866,0.07084930100861353,0.11169042266786522,0.05082732425868701
1.0077685341465117,0.12269802495893224,0.10712860701986555,0.062425783036096825,0.0983994036382067,0.044701395572860236
1.007815616171642,0.10844877640211482,0.0906090627553142,0.054884533548136764,0.08335934879543552,0.03977973078002363
