freq,gls,usurper,pdc_unbiased,shape_periodogram,shift_periodogram
1.0,0.02176245538732735,0.041434678841408924,-0.007335655112181927,0.03944296128839392,-0.0175719614192292
1.0000470820251304,0.05134779247241603,0.09511832358420366,0.016081221596065367,0.09031150682841793,-0.008547550988379093
1.0000941640502607,0.09689124580742478,0.15918606001965624,0.05094334186944231,0.15109726978178714,0.009094587866546221
1.0001412460753911,0.14848755125694818,0.22387735355994898,0.08456655871201842,0.21076361273453478,0.026347706526984288
1.0001883281005215,0.19664060203551523,0.27643447868767124,0.10917973127593883,0.26014935807769707,0.037979317236025774
1.0002354101256519,0.23592916525893703,0.3139727496994387,0.12678225514793529,0.29588702329644695,0.04656069121713516
1.0002824921507822,0.26363730657080775,0.3411522713997448,0.13936052532630389,0.3204550934759059,0.053178617317935675
1.0003295741759126,0.2780607972143743,0.3580707448188979,0.14663287491158739,0.3359256512204302,0.05677547174269822
1.000376656201043,0.27778293516045677,0.36508095106861976,0.14742341655727248,0.3429551468356572,0.05578200192728821
1.0004237382261734,0.2619162710265795,0.3599426978149617,0.139633635428265,0.3387455106943067,0.04867609774350677
1.0004708202513037,0.23107843684954268,0.33908767848968613,0.12167319492364326,0.3208962381405883,0.034644405622229195
1.0005179022764341,0.1884924826566669,0.309169030719845,0.09811663264576473,0.29552080823804994,0.017219096864500145
1.0005649843015645,0.1401213853463462,0.2869294328512259,0.07552593926328457,0.27843661297129446,-0.0010739595239903355
1.0006120663266949,0.09311329616242185,0.2758848461389946,0.056936636782797936,0.27262260706478314,-0.018211538579897244
1.0006591483518252,0.05338098213176131,0.2761787177569382,0.04656239048066332,0.27655372874724393,-0.029759140128194708
1.0007062303769556,0.024158292773911582,0.2788641754275639,0.0379052596807291,0.28273623813481563,-0.04023350963753614
1.000753312402086,0.006389706849983347,0.27316411219381026,0.024925530867037873,0.2824469479438197,-0.05317005814650465
1.0008003944272164,4.4957735270936574e-05,0.26616184356764533,0.013623927240606612,0.2781934236023517,-0.06322102630739818
1.0008474764523467,0.004476680458159687,0.26344239984072126,0.005279248516488982,0.2796384820939887,-0.07196824296542641
1.000894558477477,0.016631009383087918,0.2755923148148695,0.00604487589630294,0.2935495700354191,-0.07535246652824724
1.0009416405026075,0.030279800796216314,0.30645191238073066,0.01614856324889533,0.32274639945097294,-0.0740296781842766
1.0009887225277379,0.04019506929021177,0.35089384821856223,0.031662352407458065,0.3631693591092717,-0.07070449904989234
1.0010358045528682,0.045271217739530065,0.40128844200381963,0.049643587368788454,0.40801848765829246,-0.06622183031984463
1.0010828865779986,0.04665854735345898,0.4401532606162356,0.06394396252727896,0.44496612587885226,-0.06303658227972626
1.001129968603129,0.04557434040645729,0.45785910737022645,0.06951556918541625,0.4628377394882651,-0.06294763943299436
1.0011770506282593,0.04281463251624272,0.4527041151970437,0.06676401531502141,0.4596603069201396,-0.06487461708709268
1.0012241326533897,0.03911406922799136,0.4300046255380842,0.05756222886158259,0.439314194928209,-0.0680215243147277
1.00127121467852,0.035734840091298535,0.397178260494278,0.04469056838221148,0.40842496088195623,-0.07156354975875161
1.0013182967036505,0.034632288517627896,0.37286049948070793,0.03354469161607427,0.3856469176948756,-0.07586882641053982
1.0013653787287808,0.03686446430802818,0.3728132467446149,0.03235087082016887,0.38428357956139325,-0.07667077589543633
1.0014124607539112,0.040499198873267514,0.3942315345206299,0.04235422606047071,0.4031023191641758,-0.07229390086987231
1.0014595427790416,0.04245011553894062,0.42433347907304675,0.05148956578485458,0.4320759456491784,-0.07211215717615044
1.001506624804172,0.04142424671447975,0.44697609677988825,0.057489670337512934,0.45385786592548116,-0.0729592830107889
1.0015537068293023,0.03772147907862947,0.4517313314658851,0.05838903434484734,0.4591237149549282,-0.07377065693838099
1.0016007888544327,0.032149333674356434,0.4349411425588303,0.05286952532393206,0.44312085214038544,-0.07431434430392406
1.001647870879563,0.025799799790141527,0.3956601748026188,0.040386054375886556,0.4061440804002786,-0.0753423705563225
1.0016949529046935,0.020580986012262138,0.3425613898317391,0.02276083148008517,0.3557629785554421,-0.07751604333519145
1.0017420349298238,0.01993155776046648,0.2967500853206664,0.008396000375120035,0.3127059919689553,-0.07878351752720396
1.0017891169549542,0.027489951613850306,0.27741317403979937,0.00883020356959996,0.29405406383607996,-0.07271744646032245
1.0018361989800846,0.042074300128446054,0.28250079656787525,0.022145335055818467,0.29900563550752773,-0.060838796587434345
1.001883281005215,0.05845891480384451,0.3035267181857602,0.04104344236602053,0.3188050311105389,-0.04761623724135736
1.0019303630303453,0.07582159493280267,0.3266227366523439,0.05832937685591873,0.3381762798759522,-0.03568971750540712
1.0019774450554757,0.09824195100672209,0.3389230900370663,0.07041397317164165,0.34283982513314076,-0.024610707415718424
1.002024527080606,0.1303669711588208,0.32970486443843994,0.07896421651578898,0.3266291731628238,-0.0111120898851845
1.0020716091057364,0.17464242099810953,0.31318799345938775,0.08832693698111686,0.30512555840588135,0.00455366404726018
1.0021186911308668,0.22917237164395338,0.32183152549775235,0.11355266104308831,0.30632030557882056,0.030151068621422368
1.0021657731559972,0.2864808872447173,0.353567106554001,0.14880372324738836,0.32989926244178097,0.060616409163027594
1.0022128551811276,0.335488571803669,0.38750315621776216,0.17945522269565434,0.3578017155463351,0.08609557785744146
1.002259937206258,0.3667004160945303,0.4086901829668558,0.20044309409803335,0.3750471364508828,0.10458911793067956
1.0023070192313883,0.37630521047742305,0.4131040189025497,0.20989430295355302,0.3772219597862351,0.1143793721204668
1.0023541012565187,0.3658732131217113,0.4017680376067364,0.20800353236518512,0.3651740623970919,0.11511704669678714
1.002401183281649,0.3393357840705059,0.37804681380350896,0.19716291122807472,0.34251068173770266,0.10875109102074539
1.0024482653067794,0.30043566038503033,0.34523194951511177,0.1783931936762516,0.31233354540374425,0.09609507440874951
1.0024953473319098,0.25183659939415354,0.304526347368298,0.15384153094853617,0.27487345375965694,0.07981870373708387
1.0025424293570402,0.1956066522565673,0.24973450936466887,0.12081929242955049,0.22618575756203185,0.05859756434422982
1.0025895113821706,0.13475970805500284,0.17507739529866806,0.07564140824241966,0.16103265259858845,0.030688973579761084
1.002636593407301,0.07582916802294695,0.09431825641727691,0.025728531183742454,0.09174302794286035,0.00041424553916530256
1.0026836754324313,0.03145358980808763,0.04216720165509307,-0.0040036080406334615,0.04369366874993028,-0.015492131148398942
1.0027307574575617,0.01779891286180085,0.03228272402966226,-0.006351274616742859,0.03080209704429726,-0.014319407947734026
1.002777839482692,0.04358985242398123,0.05218739632601798,0.006591376950054447,0.04873368943280468,-0.006613594720473313
1.0028249215078224,0.1037077589167159,0.10368987696479297,0.04281328660270074,0.09455546085598229,0.01623438661756307
1.0028720035329528,0.18101238562213362,0.18763474684903322,0.0979436666785688,0.1709626738216223,0.05008314015970978
1.0029190855580832,0.25636899888384335,0.275589565080241,0.15380629462607742,0.24949748398309785,0.08611535715563601
1.0029661675832136,0.31832235074100634,0.3484109621043416,0.19704252226634572,0.3104972842458448,0.11616190209092267
1.003013249608344,0.36361141655314383,0.3990069232609134,0.228525784613192,0.35398083045025625,0.1399073306047083
1.0030603316334743,0.39341420767750745,0.4330779608231195,0.24979870354304085,0.3831887819486947,0.15694438463834737
1.0031074136586047,0.4102870696014962,0.45369091225341723,0.26258314989231946,0.4012672329537194,0.16749961314638195
1.003154495683735,0.41662904201390033,0.462799292836826,0.266777273312063,0.4093368630725833,0.170616607816588
1.0032015777088654,0.41405085665469693,0.4616737207415262,0.26326150551395927,0.40785396932045387,0.1669449125509264
1.0032486597339958,0.4030953535584088,0.45022132588011055,0.251751202986526,0.39674480203030454,0.15629586235986273
1.0032957417591262,0.38301151602067063,0.42806979532118283,0.2324239377319079,0.37593765897848774,0.1393368570857562
1.0033428237842565,0.3514583105172215,0.39441772951050663,0.2047530276495091,0.34513076895085204,0.11626857936090865
1.003389905809387,0.3042863356687068,0.3488856819500644,0.16911475512504195,0.3046733693180334,0.08825033984745072
1.0034369878345173,0.2364892670841809,0.291819486408988,0.12615890065588273,0.25519357203564275,0.056514077544825285
1.0034840698596477,0.14805992805189566,0.2270771938848829,0.07745804013496241,0.20095760763855103,0.021893451691669726
1.003531151884778,0.05937981673678241,0.17619177365576796,0.035632586371168055,0.16091570158316457,-0.008532870484740811
1.0035782339099084,0.016571701488668728,0.16187004043972147,0.012038086514572617,0.15539690133700224,-0.03007206467715432
1.0036253159350388,0.04141534161646615,0.19801606661797333,0.014399178728297872,0.19605886234435876,-0.038984530690818475
1.0036723979601692,0.0978579156313711,0.26883480717425934,0.03595348541122598,0.26783204653790044,-0.03790346828998305
1.0037194799852995,0.14599333246590304,0.3533214136992792,0.06503465797160808,0.3532670958464911,-0.03324713821400094
1.00376656201043,0.17300879075255565,0.4275607180371624,0.0922030709843016,0.42828792925419273,-0.027250727481822265
1.0038136440355603,0.18229222765708752,0.48096402246800435,0.11374971918924169,0.4826194427785561,-0.020520064773810947
1.0038607260606907,0.18262972424027749,0.5145683939166776,0.12736778710133306,0.5172491474144719,-0.016082377601978625
1.003907808085821,0.18292620727983336,0.5323481874282617,0.13485525602086357,0.5344887878136944,-0.012945548621362466
1.0039548901109514,0.18798821740501145,0.5405744398350948,0.13913083302593265,0.5400480632282261,-0.009718910986387696
1.0040019721360818,0.19658928748535154,0.5395808840485264,0.1397247738744464,0.536789374598131,-0.007969116516935139
1.0040490541612122,0.20361099360789395,0.5290999579645139,0.1356935801867525,0.5222105261772534,-0.008027385585611498
1.0040961361863425,0.20356945018764083,0.5081045831258938,0.1287855413388881,0.496074644292367,-0.007754803752168437
1.004143218211473,0.19261735903368254,0.47352722363574473,0.11776025800915435,0.4587374712248008,-0.00864235727916127
1.0041903002366033,0.1692114287165738,0.4216004322712514,0.09836742477706704,0.40690002097509675,-0.014144575600901267
1.0042373822617336,0.13469585530973552,0.3595446424027537,0.07519967777083232,0.34702008887013136,-0.02088083274224309
1.004284464286864,0.094068350002802,0.29944489254859735,0.051842634052145065,0.28922961680206266,-0.02806227706083558
1.0043315463119944,0.0558705414627791,0.2457151976341318,0.03082107495389939,0.23810813381954687,-0.03457039560106399
1.0043786283371248,0.029785725493520713,0.20992221737248393,0.019809015244991575,0.20388155264057797,-0.03585044339117515
1.0044257103622551,0.022326134922130727,0.1923165004749484,0.01684685304795892,0.18698845101900677,-0.03406587117667091
1.0044727923873855,0.03362727707623793,0.19081270862111913,0.01768087969631584,0.18679542432210525,-0.03319505934466585
1.004519874412516,0.057935866130881315,0.20237329139939805,0.0238553638180855,0.1994150504117097,-0.03062986418351698
1.0045669564376463,0.08691312585069338,0.22864285587733207,0.038233159934289905,0.2256168749331725,-0.023721409181293812
1.0046140384627766,0.11302745450084833,0.26313483838470414,0.05542672474865837,0.2603395890711853,-0.016279867280265384
1.004661120487907,0.13143773576861661,0.2965876337885613,0.07126698378066398,0.29542023059493083,-0.010139085228754539
1.0047082025130374,0.140315951549541,0.3211299608575805,0.0817840112464661,0.3219095278534183,-0.006868802054772881
1.0047552845381678,0.14016084842095028,0.33158342072881763,0.0846685751900148,0.33566527257118856,-0.007804207244151495
1.0048023665632981,0.13271042804166153,0.32717432224949167,0.08028160564993014,0.3343970223032248,-0.011975487479832405
1.0048494485884285,0.1199532079956697,0.30913868659696964,0.06958311394397716,0.32021917307837483,-0.018909894519668177
1.0048965306135589,0.10352759540252561,0.27964768102790316,0.05738407400153901,0.29304991786501683,-0.023551240882150586
1.0049436126386893,0.08458770500586026,0.24313090778811877,0.04469505929439128,0.25715671714227606,-0.026128611110656723
1.0049906946638196,0.06411017510052013,0.20684246226408326,0.03435472552873721,0.22106559885772978,-0.0262937835890029
1.00503777668895,0.043500849939608656,0.17232601442835604,0.022887706523455283,0.18638414139025558,-0.027976415075479925
1.0050848587140804,0.02497562650004661,0.13874541987971134,0.013888116903115118,0.1514153262503665,-0.027180946987593126
1.0051319407392107,0.011013597455985432,0.11354590081574553,0.011624969459267675,0.12361312748227578,-0.021828317803706407
1.0051790227643411,0.003334338693202587,0.09415347377030624,0.009001101837417943,0.10290858868324265,-0.018786215056063097
1.0052261047894715,0.0027948227754708652,0.07411353228967864,0.005716764128480125,0.08147149855613936,-0.016206966643721076
1.0052731868146019,0.010164673003053454,0.057523883116561585,0.005314070387151807,0.061217325043796476,-0.01117737366908939
1.0053202688397322,0.026566180290056158,0.048225093282471626,0.008193549268036414,0.048870463189904595,-0.005103679630725653
1.0053673508648626,0.05291846997433676,0.04549707892018912,0.011498759854167706,0.04413373765641402,-0.0006519568658617412
1.005414432889993,0.08828034555015178,0.04811033234473896,0.017065936640710815,0.043232631066063024,0.004961262417744424
1.0054615149151234,0.12763762777320273,0.05504543008276775,0.025647230237824777,0.045773457337668716,0.01257119778093007
1.0055085969402537,0.16155770115500132,0.06849753558869608,0.038076850744054896,0.055456484696782396,0.022013036793768162
1.0055556789653841,0.18078890709766565,0.08407710763109576,0.05135766337998839,0.06906493119433815,0.03126627597790041
1.0056027609905145,0.18307418566708303,0.0963404166230722,0.06056084021799014,0.08173787526603278,0.03684873270461388
1.0056498430156449,0.1741533504439713,0.10393810606554192,0.06655908741414072,0.08959572282426738,0.040608132585509084
1.0056969250407752,0.16242605985016223,0.10901577383391318,0.07063087442771013,0.0952867242423112,0.04307396147488718
1.0057440070659056,0.15418810481596457,0.11372404518237772,0.07107575192890922,0.1013408754952197,0.04191901259694126
1.005791089091036,0.1523552110015489,0.11487761635545518,0.0660360559428213,0.10488173144335144,0.036081182108196996
1.0058381711161664,0.15691036178882456,0.11453433070469202,0.06130313889977103,0.10727586482402217,0.030841876100050025
1.0058852531412967,0.16538784679386007,0.119857185604974,0.06307528196508604,0.11305641281405164,0.03104368471579869
1.005932335166427,0.17322460684996496,0.12556648780320218,0.06323184659303546,0.12008323937664923,0.029342450248246253
1.0059794171915575,0.17475929729964576,0.12565551134962402,0.05880087400333982,0.12207918013244956,0.024492386273046337
1.0060264992166879,0.16548577922015562,0.11994099672824712,0.05204155960234529,0.11820202715534667,0.018930814997681095
1.0060735812418182,0.1445721481217929,0.10889396784511485,0.04234591607178599,0.10913652035431423,0.011904652502231336
1.0061206632669486,0.11538472372115638,0.09905831574439446,0.03266210113426135,0.09967531186220693,0.005020449117334303
1.006167745292079,0.08342022676517998,0.08932822266802476,0.0259645785337829,0.08982453133317918,0.0011551404133231969
1.0062148273172093,0.053714935068683495,0.08187998903267862,0.01794830890199036,0.08231704475799823,-0.004601849119460056
1.0062619093423397,0.029620632829972474,0.07198268430369952,0.006428025048282717,0.07354726694056575,-0.013397269665732525
1.00630899136747,0.012907514843990737,0.06191233947968321,-0.004503164505502606,0.0653849408222419,-0.021770702278650054
1.0063560733926005,0.004292560353454192,0.05762892250453877,-0.010519166817943732,0.0621593567835158,-0.02671349300278655
1.0064031554177308,0.0038095921685766332,0.06174874984619347,-0.007972360122875525,0.06659382943235195,-0.025443483928779383
1.0064502374428612,0.010924293923755681,0.08145108186994056,0.0013341291502741227,0.08644177882529097,-0.021778267079622816
1.0064973194679916,0.02453035587728399,0.10691767144743254,0.011333716656649779,0.11180801199791544,-0.01892276372222854
1.006544401493122,0.042966387475684646,0.13230204970647796,0.020787738978896356,0.13770281426025033,-0.016733716128767024
1.0065914835182523,0.06411092062196938,0.15763134329459938,0.03329944681240632,0.16104605778177372,-0.010850790389489018
1.0066385655433827,0.08556714248621351,0.18451624442003428,0.049462130528264495,0.18425098893635658,-0.0012814531740006946
1.006685647568513,0.10493697207975199,0.20998849773052036,0.06485229624100503,0.20616814077383816,0.00799281449878575
1.0067327295936435,0.12014720761669652,0.22789785276768884,0.07640706666955516,0.22129816474070224,0.015400544836093382
1.0067798116187738,0.12974860817624662,0.23638252730820666,0.08294186479002422,0.2263783322124621,0.020558960035387715
1.0068268936439042,0.1331160769266914,0.2336327420644821,0.08436945777741765,0.22069306500938587,0.02350537844672381
1.0068739756690346,0.13051634907150206,0.2237218620819797,0.08386978816652868,0.20810074633233974,0.026362239429561375
1.006921057694165,0.12301693370584733,0.20656212070470775,0.08185258015702256,0.1898817170744676,0.029193284318193933
1.0069681397192953,0.11219272060745543,0.18382607685690752,0.07585112215539112,0.16721974879856857,0.029260915849952017
1.0070152217444257,0.09964098937742749,0.15755764575631237,0.06985230351433948,0.14045599399072034,0.03043729884428939
1.007062303769556,0.08648287672211809,0.13257799158065647,0.06302251331950957,0.11580861158180003,0.030266308074759257
1.0071093857946865,0.07315337862299943,0.110217702385403,0.053521194673379444,0.09448600886902854,0.026650553968002637
1.0071564678198168,0.05967551136841471,0.0924657242343072,0.042771215350936226,0.0781096542335456,0.02055511510038647
1.0072035498449472,0.046352747241279996,0.07601317144096234,0.029687677967592516,0.06477016709283959,0.01142979728882611
1.0072506318700776,0.03458526276589038,0.06470809589070045,0.01916866027493343,0.056759516951579,0.003392853894417624
1.007297713895208,0.02727830692374265,0.059592801703387106,0.01473006896934623,0.05393542872363751,-0.00014239234019619454
1.0073447959203383,0.0280866607277734,0.06430157787502082,0.01711698325886342,0.0588700949481445,0.000848821294563161
1.0073918779454687,0.03925806445151868,0.08427137338487561,0.028584290137595406,0.07703234613504326,0.0071014980238456775
1.007438959970599,0.059562255279517966,0.11112184634023403,0.043832242766228824,0.10036309778219739,0.015681615989465738
1.0074860419957294,0.08449757331606145,0.1362264408902318,0.058037587268334905,0.12226072625684574,0.023699809670386818
1.0075331240208598,0.10858230355013457,0.15518062873847005,0.06858033205585247,0.13995811167281672,0.029323035341695933
1.0075802060459902,0.12742598805780986,0.1658422534416612,0.07621925524513734,0.14958520770977912,0.03427461317915326
1.0076272880711206,0.13840784538629322,0.16718572989296876,0.07904744927672683,0.15082314125568252,0.03672649844054335
1.007674370096251,0.14057521646913557,0.16023837720143144,0.0769603579802706,0.14602237757878728,0.03593938082266757
1.0077214521213813,0.1345761316442056,0.14639902982086056,0.07084930100861353,0.13472836472265048,0.032923481470932665
1.0077685341465117,0.12269802495893224,0.12576665171020812,0.062425783036096825,0.11655736205485204,0.029486911676384876
1.007815616171642,0.10844877640211482,0.10432210812394666,0.054884533548136764,0.09680625923849044,0.02736208524091665
