freq,gls,usurper,pdc_unbiased,shape_periodogram,shift_periodogram
1.0,0.02176245538732735,0.021010074238894404,-0.007335655112181927,-0.008917326363353168,-0.007137926381118843
1.0000470820251304,0.05134779247241603,0.033773641135632096,0.016081221596065367,0.004057344204404101,0.015988200200914043
1.0000941640502607,0.09689124580742478,0.04569318266193873,0.05094334186944231,0.0207451089161702,0.050487076488942885
1.0001412460753911,0.14848755125694818,0.058061090213378144,0.08456655871201842,0.03184912006679954,0.08389499411588373
1.0001883281005215,0.19664060203551523,0.06709381030885227,0.10917973127593883,0.04074673911143638,0.10836164265572622
1.0002354101256519,0.23592916525893703,0.0703481485666237,0.12678225514793529,0.0462774915598962,0.12589056974059984
1.0002824921507822,0.26363730657080775,0.06921424842984446,0.13936052532630389,0.04814815573027731,0.13845577569441142
1.0003295741759126,0.2780607972143743,0.06776056407475842,0.14663287491158739,0.04838916888081553,0.1457341873199605
1.000376656201043,0.27778293516045677,0.06652495817206944,0.14742341655727248,0.04806099387752464,0.14653050860561495
1.0004237382261734,0.2619162710265795,0.06276705160959546,0.139633635428265,0.04647650791399337,0.1387542282877626
1.0004708202513037,0.23107843684954268,0.05570388503481798,0.12167319492364326,0.0437431887882587,0.12081655116107189
1.0005179022764341,0.1884924826566669,0.04686660559173795,0.09811663264576473,0.039793788271248916,0.09730616647805651
1.0005649843015645,0.1401213853463462,0.03947743268122886,0.07552593926328457,0.03601680270154012,0.07477003816493136
1.0006120663266949,0.09311329616242185,0.0339998141620573,0.056936636782797936,0.032776097132236615,0.056235137036872954
1.0006591483518252,0.05338098213176131,0.03169974093387935,0.04656239048066332,0.030156469637691585,0.045910420054399964
1.0007062303769556,0.024158292773911582,0.02994634232840631,0.0379052596807291,0.027381368205320136,0.0373087329085243
1.000753312402086,0.006389706849983347,0.024603688931270178,0.024925530867037873,0.02397175293550567,0.024399418840658958
1.0008003944272164,4.4957735270936574e-05,0.022129279383150683,0.013623927240606612,0.01910816488993961,0.013202621716201872
1.0008474764523467,0.004476680458159687,0.019386579786398572,0.005279248516488982,0.01673342600774961,0.004910404766647419
1.000894558477477,0.016631009383087918,0.02142896239092454,0.00604487589630294,0.017134289931657363,0.005667174048215936
1.0009416405026075,0.030279800796216314,0.030751891973336293,0.01614856324889533,0.019851346430347947,0.0157110287224901
1.0009887225277379,0.04019506929021177,0.04369497283209513,0.031662352407458065,0.026654769401609945,0.03107997419251766
1.0010358045528682,0.045271217739530065,0.057686630057983405,0.049643587368788454,0.03327607606319986,0.04892895466212703
1.0010828865779986,0.04665854735345898,0.06317309702513209,0.06394396252727896,0.03923942804690721,0.06311859850289521
1.001129968603129,0.04557434040645729,0.0652175632611487,0.06951556918541625,0.04347958727256282,0.06861333262178088
1.0011770506282593,0.04281463251624272,0.06276472887737448,0.06676401531502141,0.04510714643973785,0.06582844773978215
1.0012241326533897,0.03911406922799136,0.056823870718814555,0.05756222886158259,0.04455612281751345,0.05662859216968799
1.00127121467852,0.035734840091298535,0.04815059776208363,0.04469056838221148,0.042011823878368056,0.043796479073421296
1.0013182967036505,0.034632288517627896,0.04282721705950799,0.03354469161607427,0.041150771224889866,0.03266005744364257
1.0013653787287808,0.03686446430802818,0.04668645483992289,0.03235087082016887,0.04321097704730879,0.031422831587671146
1.0014124607539112,0.040499198873267514,0.05428589444913719,0.04235422606047071,0.0467941615364227,0.0413620810760513
1.0014595427790416,0.04245011553894062,0.06098752631587628,0.05148956578485458,0.04910571169366337,0.05046134227078788
1.001506624804172,0.04142424671447975,0.06323549814852807,0.057489670337512934,0.04940861771853764,0.05646243813280659
1.0015537068293023,0.03772147907862947,0.05965155737663453,0.05838903434484734,0.047871131307204474,0.05739226645783637
1.0016007888544327,0.032149333674356434,0.05402916698796034,0.05286952532393206,0.04281460436280309,0.05196589679237779
1.001647870879563,0.025799799790141527,0.04685148609560955,0.040386054375886556,0.03580185796543426,0.03961561242998732
1.0016949529046935,0.020580986012262138,0.03692743063447793,0.02276083148008517,0.02762616031950811,0.02215624081045997
1.0017420349298238,0.01993155776046648,0.028668022875196097,0.008396000375120035,0.02124944474917575,0.007928148815940372
1.0017891169549542,0.027489951613850306,0.02594124480319733,0.00883020356959996,0.019489919760541097,0.008400776843040372
1.0018361989800846,0.042074300128446054,0.02536391661644907,0.022145335055818467,0.023403014374738424,0.021631215325596028
1.001883281005215,0.05845891480384451,0.026995597603654643,0.04104344236602053,0.02988286617095168,0.04039550501381148
1.0019303630303453,0.07582159493280267,0.034605645954294266,0.05832937685591873,0.03623006031750045,0.057559624134841086
1.0019774450554757,0.09824195100672209,0.04440303410587893,0.07041397317164165,0.03765597153122707,0.06962349747547138
1.002024527080606,0.1303669711588208,0.04761457360792107,0.07896421651578898,0.038078901372502943,0.07817126415080636
1.0020716091057364,0.17464242099810953,0.0451950814561417,0.08832693698111686,0.0374391613760001,0.08755219746165
1.0021186911308668,0.22917237164395338,0.04942259045385075,0.11355266104308831,0.038852832117147566,0.11277086745269711
1.0021657731559972,0.2864808872447173,0.05808182094405415,0.14880372324738836,0.04160819815940215,0.14800819530427783
1.0022128551811276,0.335488571803669,0.06702671084659516,0.17945522269565434,0.04356582274504455,0.17866427854244982
1.002259937206258,0.3667004160945303,0.07364899696516881,0.20044309409803335,0.04400685613903936,0.1996712249296092
1.0023070192313883,0.37630521047742305,0.07708315768945005,0.20989430295355302,0.042928437392904605,0.20914677690303574
1.0023541012565187,0.3658732131217113,0.0769878971106701,0.20800353236518512,0.04041707292409555,0.20728478880678472
1.002401183281649,0.3393357840705059,0.07394092795494975,0.19716291122807472,0.036178818550826546,0.19649024813308416
1.0024482653067794,0.30043566038503033,0.06742558831431653,0.1783931936762516,0.030137104775317985,0.1777975996860383
1.0024953473319098,0.25183659939415354,0.05738221287680581,0.15384153094853617,0.021899228702363275,0.15337606277107427
1.0025424293570402,0.1956066522565673,0.045086758371137466,0.12081929242955049,0.013968017886597532,0.12050132211650429
1.0025895113821706,0.13475970805500284,0.030288924103617387,0.07564140824241966,0.00544474013343933,0.07550550303810544
1.002636593407301,0.07582916802294695,0.015891038952410418,0.025728531183742454,-0.0005786343095061619,0.0257350299640481
1.0026836754324313,0.03145358980808763,0.01794808493251719,-0.0040036080406334615,-0.001009584915794717,-0.003980422123412973
1.0027307574575617,0.01779891286180085,0.030814922233466713,-0.006351274616742859,0.006192593876765962,-0.006486138097923742
1.002777839482692,0.04358985242398123,0.03576119370226047,0.006591376950054447,0.018998888102844103,0.006172795263817474
1.0028249215078224,0.1037077589167159,0.04033396992106062,0.04281328660270074,0.031874368660916017,0.04212471122171498
1.0028720035329528,0.18101238562213362,0.05099095605885918,0.0979436666785688,0.04983482059875808,0.09695832037808477
1.0029190855580832,0.25636899888384335,0.06826544995239356,0.15380629462607742,0.06184315213668674,0.1527420324262577
1.0029661675832136,0.31832235074100634,0.08913249268828445,0.19704252226634572,0.05937666724444639,0.1960974705738253
1.003013249608344,0.36361141655314383,0.09759906178998064,0.228525784613192,0.056215916744818406,0.22767267189149928
1.0030603316334743,0.39341420767750745,0.10275903856361103,0.24979870354304085,0.05520460958512219,0.24899463931096336
1.0031074136586047,0.4102870696014962,0.10420049128137258,0.26258314989231946,0.05307318120688312,0.2618178409004929
1.003154495683735,0.41662904201390033,0.10288265019399502,0.266777273312063,0.05045473485052622,0.2660376848949839
1.0032015777088654,0.41405085665469693,0.0993908484176757,0.26326150551395927,0.046950100261114264,0.26254361088893075
1.0032486597339958,0.4030953535584088,0.09371711205237654,0.251751202986526,0.0420721826021791,0.2510627685814004
1.0032957417591262,0.38301151602067063,0.08596943215121405,0.2324239377319079,0.03627261981338106,0.23178031878892827
1.0033428237842565,0.3514583105172215,0.07589877169004818,0.2047530276495091,0.029523197452542085,0.20418135790309158
1.003389905809387,0.3042863356687068,0.0631144065461035,0.16911475512504195,0.021948728367517597,0.16865190311767245
1.0034369878345173,0.2364892670841809,0.04837139276858153,0.12615890065588273,0.014012556654965001,0.12583991597715313
1.0034840698596477,0.14805992805189566,0.032799358434082104,0.07745804013496241,0.006575558466514045,0.07729763664362138
1.003531151884778,0.05937981673678241,0.021431219722918754,0.035632586371168055,0.002374448528015171,0.03557190993289115
1.0035782339099084,0.016571701488668728,0.018539151875411643,0.012038086514572617,0.00437113625077165,0.011939106683125157
1.0036253159350388,0.04141534161646615,0.026227815464664996,0.014399178728297872,0.013671553298426625,0.014096218989147775
1.0036723979601692,0.0978579156313711,0.03766933213817552,0.03595348541122598,0.025182636581948203,0.03540284322359878
1.0037194799852995,0.14599333246590304,0.04990170602969044,0.06503465797160808,0.03786753011954759,0.0642366844019055
1.00376656201043,0.17300879075255565,0.060892099788859795,0.0922030709843016,0.049540709117860314,0.09121542268216946
1.0038136440355603,0.18229222765708752,0.06993858175734832,0.11374971918924169,0.05903492942577506,0.11264210603977624
1.0038607260606907,0.18262972424027749,0.07759797826810487,0.12736778710133306,0.0663282405577547,0.12618613250978009
1.003907808085821,0.18292620727983336,0.08164328902761747,0.13485525602086357,0.07091039530169602,0.1336349001378414
1.0039548901109514,0.18798821740501145,0.08464409386246453,0.13913083302593265,0.06940809359695517,0.13794027006515275
1.0040019721360818,0.19658928748535154,0.08685314443156325,0.1397247738744464,0.06643417732458466,0.13857194780336318
1.0040490541612122,0.20361099360789395,0.08657693419479488,0.1356935801867525,0.0615012110175818,0.13459482788349447
1.0040961361863425,0.20356945018764083,0.08372794106619004,0.1287855413388881,0.05511753781868173,0.12776266372351291
1.004143218211473,0.19261735903368254,0.0764807309603425,0.11776025800915435,0.046386486071215885,0.1168563099335724
1.0041903002366033,0.1692114287165738,0.06529754418398781,0.09836742477706704,0.03772008910121829,0.0975943989968184
1.0042373822617336,0.13469585530973552,0.05192715445621603,0.07519967777083232,0.0287378007168854,0.07458505326136394
1.004284464286864,0.094068350002802,0.03891479012004049,0.051842634052145065,0.019742878136755543,0.05140734118324761
1.0043315463119944,0.0558705414627791,0.027798808300824592,0.03082107495389939,0.012433133387315314,0.03054273512783476
1.0043786283371248,0.029785725493520713,0.02074739308390039,0.019809015244991575,0.008140315130008156,0.01962582282389032
1.0044257103622551,0.022326134922130727,0.018122326352464378,0.01684685304795892,0.006144954716835256,0.016707908967447976
1.0044727923873855,0.03362727707623793,0.019011699813660517,0.01768087969631584,0.006741580260634043,0.01752869805711627
1.004519874412516,0.057935866130881315,0.023332665941053383,0.0238553638180855,0.009622746084275886,0.023639086114884314
1.0045669564376463,0.08691312585069338,0.030822922175226242,0.038233159934289905,0.014987235780106528,0.03789904315768453
1.0046140384627766,0.11302745450084833,0.03947330324701805,0.05542672474865837,0.02328609698705866,0.05491804777926709
1.004661120487907,0.13143773576861661,0.045299887813319416,0.07126698378066398,0.032592823718221024,0.07057522190449218
1.0047082025130374,0.140315951549541,0.05000613732600814,0.0817840112464661,0.04109085352879821,0.08093687919346185
1.0047552845381678,0.14016084842095028,0.05231556540810662,0.0846685751900148,0.048681550406827284,0.08368671906025037
1.0048023665632981,0.13271042804166153,0.051369508233021395,0.08028160564993014,0.05222574677767798,0.07923129082566294
1.0048494485884285,0.1199532079956697,0.048000332816704384,0.06958311394397716,0.05398067129309961,0.06848619830244874
1.0048965306135589,0.10352759540252561,0.039833133526978697,0.05738407400153901,0.05200733112696048,0.056307144882324155
1.0049436126386893,0.08458770500586026,0.03125459347119832,0.04469505929439128,0.0475406929245665,0.043690352472477725
1.0049906946638196,0.06411017510052013,0.02297078646925237,0.03435472552873721,0.04341804649073934,0.033424003816272294
1.00503777668895,0.043500849939608656,0.016788774535521366,0.022887706523455283,0.03768269888178104,0.02206914503940697
1.0050848587140804,0.02497562650004661,0.011668035318088217,0.013888116903115118,0.03064287309921657,0.013216760835892648
1.0051319407392107,0.011013597455985432,0.00780638078436202,0.011624969459267675,0.024825168297715708,0.011079324997324712
1.0051790227643411,0.003334338693202587,0.0044321543013819235,0.009001101837417943,0.019042194213361046,0.008581448317431994
1.0052261047894715,0.0027948227754708652,0.0012789730857562691,0.005716764128480125,0.013673235012416655,0.005414981021704499
1.0052731868146019,0.010164673003053454,-0.0007493892481960524,0.005314070387151807,0.006935903309535131,0.005160269316261086
1.0053202688397322,0.026566180290056158,-0.0016135097016905207,0.008193549268036414,0.0012184859932201115,0.008164757379368441
1.0053673508648626,0.05291846997433676,-0.0007479016023711809,0.011498759854167706,-0.002130123842006431,0.011542871526750487
1.005414432889993,0.08828034555015178,0.005027715661611868,0.017065936640710815,-0.004865580288459325,0.017169041590641154
1.0054615149151234,0.12763762777320273,0.010795339712252699,0.025647230237824777,-0.006890118942547674,0.02579312075540541
1.0055085969402537,0.16155770115500132,0.017297425328550595,0.038076850744054896,-0.006225299131207543,0.03820508780987573
1.0055556789653841,0.18078890709766565,0.022296212177865374,0.05135766337998839,-0.0017443371700905231,0.05138357250896836
1.0056027609905145,0.18307418566708303,0.024388273877628083,0.06056084021799014,0.005571708067811937,0.06042521140838615
1.0056498430156449,0.1741533504439713,0.024833910261403257,0.06655908741414072,0.011434738899897216,0.06629736260037539
1.0056969250407752,0.16242605985016223,0.024954206489356034,0.07063087442771013,0.01641636430871504,0.07026467081245656
1.0057440070659056,0.15418810481596457,0.025434648401974503,0.07107575192890922,0.02085868219977627,0.07061830692114472
1.005791089091036,0.1523552110015489,0.02546660017362717,0.0660360559428213,0.023923655704205227,0.06551570529441189
1.0058381711161664,0.15691036178882456,0.024158092050208208,0.06130313889977103,0.026668169727443448,0.06072622808361782
1.0058852531412967,0.16538784679386007,0.023970404037001323,0.06307528196508604,0.028884758898369372,0.06245408159050122
1.005932335166427,0.17322460684996496,0.02224927930034332,0.06323184659303546,0.030272834453514988,0.06258287178854245
1.0059794171915575,0.17475929729964576,0.02006726509933993,0.05880087400333982,0.03043446188803217,0.058147158759430634
1.0060264992166879,0.16548577922015562,0.017218587965217493,0.05204155960234529,0.02884842214319596,0.05141798577853728
1.0060735812418182,0.1445721481217929,0.013692816508774547,0.04234591607178599,0.02439638576588803,0.04181261365753513
1.0061206632669486,0.11538472372115638,0.010730992445606461,0.03266210113426135,0.017863874594314225,0.032266817621873556
1.006167745292079,0.08342022676517998,0.007328745143819709,0.0259645785337829,0.01156729206073465,0.025705696097446076
1.0062148273172093,0.053714935068683495,0.0044442167271451965,0.01794830890199036,0.0060804789570628685,0.017810538108730522
1.0062619093423397,0.029620632829972474,0.0022635736989219915,0.006428025048282717,0.0018256463447628472,0.006386302766511993
1.00630899136747,0.012907514843990737,0.0010712119945749565,-0.004503164505502606,-0.0004243142567318361,-0.004492736287134147
1.0063560733926005,0.004292560353454192,0.0021722276519316294,-0.010519166817943732,7.338529539451448e-05,-0.01051823414637694
1.0064031554177308,0.0038095921685766332,0.005809009605005962,-0.007972360122875525,0.0034132265865128757,-0.008045586789112857
1.0064502374428612,0.010924293923755681,0.013812914059528163,0.0013341291502741227,0.010840663413530259,0.0010952910524705283
1.0064973194679916,0.02453035587728399,0.021467342847621827,0.011333716656649779,0.019475279829099384,0.010904509997900729
1.006544401493122,0.042966387475684646,0.027358346838823495,0.020787738978896356,0.02818881524496819,0.020170732943060085
1.0065914835182523,0.06411092062196938,0.031487783878264605,0.03329944681240632,0.035382280563208815,0.032534316080439406
1.0066385655433827,0.08556714248621351,0.03603357636524301,0.049462130528264495,0.03932649387777101,0.04862533252357857
1.006685647568513,0.10493697207975199,0.04158189047413955,0.06485229624100503,0.039557444337386546,0.06402139555009603
1.0067327295936435,0.12014720761669652,0.045448775401140874,0.07640706666955516,0.038413425442365756,0.07560606316400977
1.0067798116187738,0.12974860817624662,0.04774880961488458,0.08294186479002422,0.03437170231727042,0.08222144003767182
1.0068268936439042,0.1331160769266914,0.04821059023299258,0.08436945777741765,0.029337081110357564,0.08374614225215357
1.0068739756690346,0.13051634907150206,0.04545749857624655,0.08386978816652868,0.022155654857163035,0.08338744923657446
1.006921057694165,0.12301693370584733,0.04008846081331675,0.08185258015702256,0.01741553452696349,0.08146570836262648
1.0069681397192953,0.11219272060745543,0.03414721121173894,0.07585112215539112,0.014213115936743893,0.07553032538356225
1.0070152217444257,0.09964098937742749,0.02909915601821137,0.06985230351433948,0.011114276998278017,0.06959692499388033
1.007062303769556,0.08648287672211809,0.024482838524072417,0.06302251331950957,0.008215206489637921,0.06282969491195191
1.0071093857946865,0.07315337862299943,0.021231139104966903,0.053521194673379444,0.005166504555837075,0.05339576265106176
1.0071564678198168,0.05967551136841471,0.019532399380148543,0.042771215350936226,0.0026763662418645925,0.042702287809689245
1.0072035498449472,0.046352747241279996,0.01618165895625945,0.029687677967592516,0.00045331198360668994,0.0296705336681328
1.0072506318700776,0.03458526276589038,0.01381778721101044,0.01916866027493343,-0.0005974377187772643,0.01917716378718701
1.007297713895208,0.02727830692374265,0.011353437363818678,0.01473006896934623,-0.000635441371496584,0.014740485215208259
1.0073447959203383,0.0280866607277734,0.01117551533720584,0.01711698325886342,-3.16383061543973e-05,0.01711353469299894
1.0073918779454687,0.03925806445151868,0.015285541878085254,0.028584290137595406,0.002791994280531711,0.02851611292362342
1.007438959970599,0.059562255279517966,0.021797349798631006,0.043832242766228824,0.006723230602983358,0.04367509272757218
1.0074860419957294,0.08449757331606145,0.027859542192775893,0.058037587268334905,0.01170642596818116,0.057771183979867705
1.0075331240208598,0.10858230355013457,0.031907872725594866,0.06858033205585247,0.01746702688110231,0.06819243539827204
1.0075802060459902,0.12742598805780986,0.034801487278727804,0.07621925524513734,0.02098848002736292,0.0757595763575764
1.0076272880711206,0.13840784538629322,0.03562099983444738,0.07904744927672683,0.023429518106304826,0.07853900839138972
1.007674370096251,0.14057521646913557,0.035342683400377356,0.0769603579802706,0.025216423011235615,0.07641591170934882
1.0077214521213813,0.1345761316442056,0.034116204944126594,0.07084930100861353,0.02415733616457309,0.07032496381996385
