freq,gls,usurper,pdc_unbiased,shape_periodogram,shift_periodogram
1.0,0.02176245538732735,0.00708403283372313,-0.007335655112181927,-0.008955198315499638,-0.007100079563124164
1.0000470820251304,0.05134779247241603,0.014792824329438462,0.016081221596065367,-0.006468805596052299,0.01624462213840234
1.0000941640502607,0.09689124580742478,0.02441918556675349,0.05094334186944231,0.0039017465518582637,0.05082517783183945
1.0001412460753911,0.14848755125694818,0.034165004127652526,0.08456655871201842,0.017347848657346506,0.08410330628099029
1.0001883281005215,0.19664060203551523,0.04342984835367824,0.10917973127593883,0.030760360396108837,0.10840630002917476
1.0002354101256519,0.23592916525893703,0.05034785444077367,0.12678225514793529,0.0409561671186492,0.1258017915498402
1.0002824921507822,0.26363730657080775,0.054508229979729046,0.13936052532630389,0.04544041618453602,0.13830401822449434
1.0003295741759126,0.2780607972143743,0.05775101696725354,0.14663287491158739,0.04781234073911117,0.14554062104419496
1.000376656201043,0.27778293516045677,0.059176642099261816,0.14742341655727248,0.04861943246634992,0.14631738633807775
1.0004237382261734,0.2619162710265795,0.057604945240417656,0.139633635428265,0.047537484577815335,0.13853757384086315
1.0004708202513037,0.23107843684954268,0.05305904936545753,0.12167319492364326,0.04406235236293659,0.12062474933732077
1.0005179022764341,0.1884924826566669,0.04671428580205963,0.09811663264576473,0.03828295243514353,0.09717069109211886
1.0005649843015645,0.1401213853463462,0.041675228721268824,0.07552593926328457,0.03209924826825101,0.07470922254396042
1.0006120663266949,0.09311329616242185,0.03724728104566898,0.056936636782797936,0.025888153440127955,0.0562647082074601
1.0006591483518252,0.05338098213176131,0.034362379569011704,0.04656239048066332,0.020314722443932537,0.046028353532227735
1.0007062303769556,0.024158292773911582,0.030500332216442928,0.0379052596807291,0.013774798505100676,0.037537731735380955
1.000753312402086,0.006389706849983347,0.02653560007601786,0.024925530867037873,0.006285077228585609,0.024753910734577396
1.0008003944272164,4.4957735270936574e-05,0.023169737963712706,0.013623927240606612,0.0003787935852692252,0.013609432319976364
1.0008474764523467,0.004476680458159687,0.016561683581599925,0.005279248516488982,-0.002390756338054495,0.005339775014181302
1.000894558477477,0.016631009383087918,0.017348254395947182,0.00604487589630294,-0.0020119137938515758,0.006095265927582549
1.0009416405026075,0.030279800796216314,0.02342199348844281,0.01614856324889533,0.001873991864564957,0.01609428765450615
1.0009887225277379,0.04019506929021177,0.034498581401481834,0.031662352407458065,0.01118540602933925,0.0313624929119936
1.0010358045528682,0.045271217739530065,0.04488682416211294,0.049643587368788454,0.02182510559306494,0.04907170594359647
1.0010828865779986,0.04665854735345898,0.050469162923113486,0.06394396252727896,0.03409154768993248,0.06307573562547968
1.001129968603129,0.04557434040645729,0.05453937293039398,0.06951556918541625,0.04385308359842142,0.06842283938844716
1.0011770506282593,0.04281463251624272,0.053161044098457955,0.06676401531502141,0.048614351706982535,0.06555995213158276
1.0012241326533897,0.03911406922799136,0.048902751009651975,0.05756222886158259,0.0496897180277584,0.05632338710081196
1.00127121467852,0.035734840091298535,0.045224012019831096,0.04469056838221148,0.048452393360821744,0.04346730070892718
1.0013182967036505,0.034632288517627896,0.041182610202117054,0.03354469161607427,0.04773378944991823,0.03232812438859188
1.0013653787287808,0.03686446430802818,0.04082436267889506,0.03235087082016887,0.04787556223836576,0.031129723503188236
1.0014124607539112,0.040499198873267514,0.044050163108129294,0.04235422606047071,0.049636144164755834,0.04110021564343005
1.0014595427790416,0.04245011553894062,0.04569104269165818,0.05148956578485458,0.05238974338903973,0.05018078147310486
1.001506624804172,0.04142424671447975,0.04570202536239473,0.057489670337512934,0.050929410191337295,0.056222057234536965
1.0015537068293023,0.03772147907862947,0.04391310277187671,0.05838903434484734,0.04645252607636972,0.0572262702443864
1.0016007888544327,0.032149333674356434,0.04010539774702795,0.05286952532393206,0.03828087894349761,0.051895991781370526
1.001647870879563,0.025799799790141527,0.033149752815287925,0.040386054375886556,0.02631304615692005,0.03970197134505948
1.0016949529046935,0.020580986012262138,0.0228926764661633,0.02276083148008517,0.013139236095627818,0.022412870429069615
1.0017420349298238,0.01993155776046648,0.016252225039275855,0.008396000375120035,0.0035953269302343464,0.008299512165588037
1.0017891169549542,0.027489951613850306,0.014416283668102721,0.00883020356959996,2.3582915491014735e-05,0.008826589986989899
1.0018361989800846,0.042074300128446054,0.015110673836238148,0.022145335055818467,0.0026700528583845848,0.022068360535943445
1.001883281005215,0.05845891480384451,0.02050056043778144,0.04104344236602053,0.01193887678022648,0.040722055418544484
1.0019303630303453,0.07582159493280267,0.03002046990477008,0.05832937685591873,0.022075714553577694,0.057751233106297116
1.0019774450554757,0.09824195100672209,0.03938696250483011,0.07041397317164165,0.028470406771959455,0.06968174965882046
1.002024527080606,0.1303669711588208,0.04184287495299258,0.07896421651578898,0.03349086619088323,0.0781163471770093
1.0020716091057364,0.17464242099810953,0.040451101501303835,0.08832693698111686,0.036672189390848466,0.08741081764498376
1.0021186911308668,0.22917237164395338,0.04428425201320778,0.11355266104308831,0.040871455151415034,0.112562611893367
1.0021657731559972,0.2864808872447173,0.050836922274321246,0.14880372324738836,0.047633386689081396,0.14771756691196108
1.0022128551811276,0.335488571803669,0.05704600160989167,0.17945522269565434,0.05514539754125991,0.17829004366773474
1.002259937206258,0.3667004160945303,0.06161536032682683,0.20044309409803335,0.06109215714101959,0.19923722243187772
1.0023070192313883,0.37630521047742305,0.06369657536961962,0.20989430295355302,0.06477946820330727,0.2086665866488866
1.0023541012565187,0.3658732131217113,0.06286549577522092,0.20800353236518512,0.06601017660654045,0.20675685070864513
1.002401183281649,0.3393357840705059,0.05883078983366742,0.19716291122807472,0.06496216886645602,0.19590039816181531
1.0024482653067794,0.30043566038503033,0.05439076094175748,0.1783931936762516,0.059654157616792075,0.17715843640696868
1.0024953473319098,0.25183659939415354,0.04980914062618807,0.15384153094853617,0.04865721086083796,0.1527435011817874
1.0025424293570402,0.1956066522565673,0.040112902907192084,0.12081929242955049,0.03505741989799706,0.11995765058041181
1.0025895113821706,0.13475970805500284,0.025116109165238976,0.07564140824241966,0.019704479383501904,0.0751212032723028
1.002636593407301,0.07582916802294695,0.010833109461638409,0.025728531183742454,0.008532708132393233,0.02549856815512692
1.0026836754324313,0.03145358980808763,0.008230957746667369,-0.0040036080406334615,0.006006723803154768,-0.004158864252020311
1.0027307574575617,0.01779891286180085,0.019619616881203256,-0.006351274616742859,0.013799482311080476,-0.006709370084319776
1.002777839482692,0.04358985242398123,0.024717010038776025,0.006591376950054447,0.027069553132837904,0.0058858598219391715
1.0028249215078224,0.1037077589167159,0.032739573468488145,0.04281328660270074,0.040961786581070324,0.04176909540147199
1.0028720035329528,0.18101238562213362,0.0445756432058297,0.0979436666785688,0.05556711127223495,0.0966309309969624
1.0029190855580832,0.25636899888384335,0.05892906746314196,0.15380629462607742,0.06812942369341701,0.15238750295693382
1.0029661675832136,0.31832235074100634,0.07268014327276669,0.19704252226634572,0.07020011842119586,0.19571761096699813
1.003013249608344,0.36361141655314383,0.07804962497124088,0.228525784613192,0.0690610645329741,0.2273051843893807
1.0030603316334743,0.39341420767750745,0.08051582664097985,0.24979870354304085,0.06837468228662825,0.24864625219075703
1.0031074136586047,0.4102870696014962,0.07987989486706094,0.26258314989231946,0.06586394412155018,0.26148599070201645
1.003154495683735,0.41662904201390033,0.07794670834817989,0.266777273312063,0.062278748021079425,0.26571865213994245
1.0032015777088654,0.41405085665469693,0.07453018061550712,0.26326150551395927,0.05699203141034389,0.26224082436859386
1.0032486597339958,0.4030953535584088,0.06953548907974108,0.251751202986526,0.05022537476682753,0.2507805960107059
1.0032957417591262,0.38301151602067063,0.06310902634677916,0.2324239377319079,0.041844895137238054,0.23153738816526942
1.0033428237842565,0.3514583105172215,0.055094856671285886,0.2047530276495091,0.03152276428085164,0.20401292597429696
1.003389905809387,0.3042863356687068,0.04484161093648542,0.16911475512504195,0.019608547487642188,0.16860110875414072
1.0034369878345173,0.2364892670841809,0.032121011050040796,0.12615890065588273,0.007005654318259526,0.12594152639502057
1.0034840698596477,0.14805992805189566,0.01845193392472165,0.07745804013496241,-0.005542408397212565,0.07757621734409748
1.003531151884778,0.05937981673678241,0.007844594116252546,0.035632586371168055,-0.01525053635959878,0.03602137142779312
1.0035782339099084,0.016571701488668728,0.004475999831533664,0.012038086514572617,-0.018877642615995067,0.012528100998573181
1.0036253159350388,0.04141534161646615,0.010247891045547172,0.014399178728297872,-0.010263889803216788,0.014662469971368853
1.0036723979601692,0.0978579156313711,0.022987171145524805,0.03595348541122598,0.0033044680178022064,0.03585553131289607
1.0037194799852995,0.14599333246590304,0.038207755006266615,0.06503465797160808,0.020939136563090845,0.06448446047781357
1.00376656201043,0.17300879075255565,0.05014993976918401,0.0922030709843016,0.03810294511050933,0.09125720691585389
1.0038136440355603,0.18229222765708752,0.059530384651363975,0.11374971918924169,0.05106882628455018,0.1125510903839133
1.0038607260606907,0.18262972424027749,0.06516439845330722,0.12736778710133306,0.06220879223840645,0.12598289299859075
1.003907808085821,0.18292620727983336,0.06817831294343064,0.13485525602086357,0.0720229841508938,0.13332361416292957
1.0039548901109514,0.18798821740501145,0.0691877831989664,0.13913083302593265,0.07681495016259147,0.13753829609270637
1.0040019721360818,0.19658928748535154,0.07138814686770294,0.1397247738744464,0.07718466386308805,0.13812868823834373
1.0040490541612122,0.20361099360789395,0.07382432042348776,0.1356935801867525,0.0730252256759364,0.13414850562618383
1.0040961361863425,0.20356945018764083,0.07207671629553783,0.1287855413388881,0.06735257461391961,0.12731452281967967
1.004143218211473,0.19261735903368254,0.06297744586354262,0.11776025800915435,0.058312621672388286,0.1164276163956903
1.0041903002366033,0.1692114287165738,0.051444710986386165,0.09836742477706704,0.04710979886095769,0.09723106138216252
1.0042373822617336,0.13469585530973552,0.03834871875448747,0.07519967777083232,0.03402382003935475,0.07433778467461713
1.004284464286864,0.094068350002802,0.026402382096193416,0.051842634052145065,0.01910515171248266,0.05133849234281219
1.0043315463119944,0.0558705414627791,0.015624473506611175,0.03082107495389939,0.004276636215459986,0.03069959866893984
1.0043786283371248,0.029785725493520713,0.00869900306216979,0.019809015244991575,-0.007839542554074553,0.020007093848558755
1.0044257103622551,0.022326134922130727,0.005538648071198155,0.01684685304795892,-0.015501223336199375,0.017247015033959742
1.0044727923873855,0.03362727707623793,0.006280766448306489,0.01768087969631584,-0.01775015794855639,0.018140108396759034
1.004519874412516,0.057935866130881315,0.010170579998313247,0.0238553638180855,-0.015045304182221688,0.024241772939631784
1.0045669564376463,0.08691312585069338,0.017290787809967192,0.038233159934289905,-0.007868439661266118,0.03842599305104588
1.0046140384627766,0.11302745450084833,0.026218242141389955,0.05542672474865837,0.003753174881750126,0.05531098008628902
1.004661120487907,0.13143773576861661,0.03453627371418546,0.07126698378066398,0.0168480692033379,0.07081713166510938
1.0047082025130374,0.140315951549541,0.04094203585747119,0.0817840112464661,0.030689540104714648,0.08100243230885508
1.0047552845381678,0.14016084842095028,0.044061882449060584,0.0846685751900148,0.043500225162168615,0.08359691595654914
1.0048023665632981,0.13271042804166153,0.043900333080486506,0.08028160564993014,0.05284955940881894,0.07899994476848907
1.0048494485884285,0.1199532079956697,0.04148928916424005,0.06958311394397716,0.06031391941532247,0.06812230188983366
1.0048965306135589,0.10352759540252561,0.03926591005512577,0.05738407400153901,0.06288974196184267,0.05584369454315893
1.0049436126386893,0.08458770500586026,0.03673143184855968,0.04469505929439128,0.061941291841598446,0.04315298641897266
1.0049906946638196,0.06411017510052013,0.03410151226559022,0.03435472552873721,0.058105678547521265,0.032886808820746495
1.00503777668895,0.043500849939608656,0.03119360759484318,0.022887706523455283,0.0521376456600806,0.021551448226590292
1.0050848587140804,0.02497562650004661,0.026805911431898578,0.013888116903115118,0.04338130234441219,0.012765129856371477
1.0051319407392107,0.011013597455985432,0.023060032161673117,0.011624969459267675,0.03451214215809952,0.010728137854859965
1.0051790227643411,0.003334338693202587,0.01865041255899277,0.009001101837417943,0.025145069196856343,0.008345436017830048
1.0052261047894715,0.0027948227754708652,0.011718218491213602,0.005716764128480125,0.016275657330969986,0.005291372587612187
1.0052731868146019,0.010164673003053454,0.006036829749754628,0.005314070387151807,0.008030784525384313,0.0051031432812004745
1.0053202688397322,0.026566180290056158,0.004513450935237113,0.008193549268036414,-0.0014058777504390046,0.00822741029657489
1.0053673508648626,0.05291846997433676,0.007076561770391399,0.011498759854167706,-0.00547216477177399,0.011637613756749642
1.005414432889993,0.08828034555015178,0.011085018300939265,0.017065936640710815,-0.006716148799899838,0.017235486803525667
1.0054615149151234,0.12763762777320273,0.015116743780974674,0.025647230237824777,-0.006400502208159061,0.02580569475273794
1.0055085969402537,0.16155770115500132,0.01898107639861382,0.038076850744054896,-0.002428587617788532,0.03812720370551416
1.0055556789653841,0.18078890709766565,0.0229642394820477,0.05135766337998839,0.005270219768798681,0.05120416516924806
1.0056027609905145,0.18307418566708303,0.02525532061554273,0.06056084021799014,0.014282331149073601,0.06017627239389469
1.0056498430156449,0.1741533504439713,0.026697278129736015,0.06655908741414072,0.021351697944839054,0.06599876121668345
1.0056969250407752,0.16242605985016223,0.0271137943535195,0.07063087442771013,0.02825968006985577,0.06990373652674678
1.0057440070659056,0.15418810481596457,0.026666631209037242,0.07107575192890922,0.032955911263942206,0.07023723025522542
1.005791089091036,0.1523552110015489,0.024790996322516044,0.0660360559428213,0.03565566838021708,0.06513170204991835
1.0058381711161664,0.15691036178882456,0.021965571087976622,0.06130313889977103,0.03766149016058003,0.06034897049841537
1.0058852531412967,0.16538784679386007,0.021091901725732505,0.06307528196508604,0.03852999170657061,0.062101613615710115
1.005932335166427,0.17322460684996496,0.019060354847302185,0.06323184659303546,0.037792223259728114,0.06227565099823405
1.0059794171915575,0.17475929729964576,0.01692700901801283,0.05880087400333982,0.03553093914223971,0.05789613177080386
1.0060264992166879,0.16548577922015562,0.013969749893043086,0.05204155960234529,0.032797962508944026,0.051200047683759194
1.0060735812418182,0.1445721481217929,0.011069468364126854,0.04234591607178599,0.027005222604330813,0.0416447803476246
1.0061206632669486,0.11538472372115638,0.009253760003921472,0.03266210113426135,0.018804745660109937,0.03216739071738239
1.006167745292079,0.08342022676517998,0.007774558052682299,0.0259645785337829,0.010373123442025085,0.02568707634365861
1.0062148273172093,0.053714935068683495,0.008528488734322642,0.01794830890199036,0.0037556305060854017,0.017844509511470024
1.0062619093423397,0.029620632829972474,0.00945817684926588,0.006428025048282717,0.0001725792965292373,0.0064213444629131
1.00630899136747,0.012907514843990737,0.01022098862680532,-0.004503164505502606,-0.0004496581260070171,-0.0044899169747064345
1.0063560733926005,0.004292560353454192,0.012150076959639674,-0.010519166817943732,0.0010761606519500738,-0.010543642184365822
1.0064031554177308,0.0038095921685766332,0.01642229511082573,-0.007972360122875525,0.0028303518920022334,-0.008043441064249
1.0064502374428612,0.010924293923755681,0.02446830327103394,0.0013341291502741227,0.01058517696947924,0.0010578690135069806
1.0064973194679916,0.02453035587728399,0.031606988954580986,0.011333716656649779,0.01967568913197378,0.010819275751748824
1.006544401493122,0.042966387475684646,0.03744717104386904,0.020787738978896356,0.02874777400891947,0.020040215038308717
1.0065914835182523,0.06411092062196938,0.03962474873068404,0.03329944681240632,0.03452804031960207,0.03240905176729488
1.0066385655433827,0.08556714248621351,0.04238316301826026,0.049462130528264495,0.0372549911324194,0.048511533114203045
1.006685647568513,0.10493697207975199,0.043448699831825574,0.06485229624100503,0.03812479462018058,0.06388918886964058
1.0067327295936435,0.12014720761669652,0.04309309799337492,0.07640706666955516,0.03900266973782408,0.0754306271528977
1.0067798116187738,0.12974860817624662,0.040799479838321516,0.08294186479002422,0.03759487621656536,0.08200165252158949
1.0068268936439042,0.1331160769266914,0.03909360245732839,0.08436945777741765,0.03449971586723197,0.08350072335434844
1.0068739756690346,0.13051634907150206,0.033906115845478986,0.08386978816652868,0.029413758866806892,0.08311864216824214
1.006921057694165,0.12301693370584733,0.026796985631844947,0.08185258015702256,0.02528203425523342,0.08119841047611537
1.0069681397192953,0.11219272060745543,0.02042938130085427,0.07585112215539112,0.02031027296553027,0.07531616271549059
1.0070152217444257,0.09964098937742749,0.01626707803119276,0.06985230351433948,0.014975713000781056,0.06944898772618373
1.007062303769556,0.08648287672211809,0.013406749855384054,0.06302251331950957,0.011752697315386373,0.06270102409461033
1.0071093857946865,0.07315337862299943,0.013035160401305364,0.053521194673379444,0.008496366501032842,0.053284502589797215
1.0071564678198168,0.05967551136841471,0.013403024816832552,0.042771215350936226,0.0045028327806608875,0.04264011532641937
1.0072035498449472,0.046352747241279996,0.011340035514874341,0.029687677967592516,0.0011925806205952709,0.029646584576572863
1.0072506318700776,0.03458526276589038,0.011083379967624549,0.01916866027493343,0.0004207718560667689,0.01915119354183068
1.007297713895208,0.02727830692374265,0.01245541336098355,0.01473006896934623,-0.0002864091038901559,0.014732529274741737
1.0073447959203383,0.0280866607277734,0.015443704801562177,0.01711698325886342,0.0007862791337327879,0.017090693541151926
1.0073918779454687,0.03925806445151868,0.02087736377648131,0.028584290137595406,0.004921920246157212,0.028446816528483077
1.007438959970599,0.059562255279517966,0.026980028498130273,0.043832242766228824,0.009895665155496827,0.04356235310630761
1.0074860419957294,0.08449757331606145,0.03192837272505911,0.058037587268334905,0.016546207717763026,0.057596737673356525
1.0075331240208598,0.10858230355013457,0.03525090626556983,0.06858033205585247,0.024146726566314995,0.06795195751634049
1.0075802060459902,0.12742598805780986,0.03819554086704536,0.07621925524513734,0.029627254794420774,0.07546096718262509
1.0076272880711206,0.13840784538629322,0.037645097701357856,0.07904744927672683,0.03272254961359347,0.07821748679035385
1.007674370096251,0.14057521646913557,0.03474290517231655,0.0769603579802706,0.03514101072878108,0.0760732783049988
1.0077214521213813,0.1345761316442056,0.030755149833979395,0.07084930100861353,0.03515706102368431,0.06995894181913286
