freq,gls,usurper,pdc_unbiased,shape_periodogram,shift_periodogram
1.0,0.02176245538732735,0.015261697917525999,-0.007335655112181927,0.008897850132254595,-0.007594814389683111
1.0000470820251304,0.05134779247241603,0.023002452332377823,0.016081221596065367,0.012068158889551785,0.01572009059146499
1.0000941640502607,0.09689124580742478,0.03375511064470426,0.05094334186944231,0.020219692944703653,0.050338334477096895
1.0001412460753911,0.14848755125694818,0.04389376706656624,0.08456655871201842,0.03269393630352913,0.08362179869245165
1.0001883281005215,0.19664060203551523,0.0538499939474756,0.10917973127593883,0.04877105564801547,0.10784861716515551
1.0002354101256519,0.23592916525893703,0.06252318492006058,0.12678225514793529,0.06187687707043026,0.12518496748841612
1.0002824921507822,0.26363730657080775,0.06816274736851294,0.13936052532630389,0.06987908790263504,0.13763200039576262
1.0003295741759126,0.2780607972143743,0.07183456144504659,0.14663287491158739,0.07422725092731298,0.14484475557537413
1.000376656201043,0.27778293516045677,0.07281088935620224,0.14742341655727248,0.07691623240710496,0.14558999266411538
1.0004237382261734,0.2619162710265795,0.07030811021331562,0.139633635428265,0.07705137501354267,0.13777169166852904
1.0004708202513037,0.23107843684954268,0.06472382828573932,0.12167319492364326,0.07394009570417337,0.11981406551466148
1.0005179022764341,0.1884924826566669,0.05725884896698835,0.09811663264576473,0.06906291226184454,0.09629689835865075
1.0005649843015645,0.1401213853463462,0.05134521314609981,0.07552593926328457,0.06394315095085039,0.07377592815077823
1.0006120663266949,0.09311329616242185,0.046973343765269904,0.056936636782797936,0.05769303208906017,0.05531267649031949
1.0006591483518252,0.05338098213176131,0.044832712817755166,0.04656239048066332,0.049440372943521216,0.04514577956610358
1.0007062303769556,0.024158292773911582,0.041796609235436696,0.0379052596807291,0.0388440590040896,0.03677489651836462
1.000753312402086,0.006389706849983347,0.038979122856859984,0.024925530867037873,0.02657200062874288,0.02414134164229438
1.0008003944272164,4.4957735270936574e-05,0.0373135525868732,0.013623927240606612,0.0164144547213826,0.013136472927712934
1.0008474764523467,0.004476680458159687,0.03508497730526437,0.005279248516488982,0.012921704829530785,0.004896807257188631
1.000894558477477,0.016631009383087918,0.039329993839330786,0.00604487589630294,0.01598309397745847,0.005572249385072253
1.0009416405026075,0.030279800796216314,0.048390873391378264,0.01614856324889533,0.024568850658846824,0.015422873696279912
1.0009887225277379,0.04019506929021177,0.05955918783479737,0.031662352407458065,0.03853491713026325,0.03053799162489227
1.0010358045528682,0.045271217739530065,0.0681671938296604,0.049643587368788454,0.055459161149239655,0.048068343677550265
1.0010828865779986,0.04665854735345898,0.07540536437988274,0.06394396252727896,0.07115089429892026,0.06198969703886192
1.001129968603129,0.04557434040645729,0.08010361846258328,0.06951556918541625,0.08300565776245689,0.06728908316987758
1.0011770506282593,0.04281463251624272,0.08049335111730892,0.06676401531502141,0.08844473088598985,0.06439832375856655
1.0012241326533897,0.03911406922799136,0.07631197329041178,0.05756222886158259,0.08821149533441668,0.05516602334757922
1.00127121467852,0.035734840091298535,0.06914086052152033,0.04469056838221148,0.08473659466481655,0.042334575167182774
1.0013182967036505,0.034632288517627896,0.06290653000055879,0.03354469161607427,0.0813899687561351,0.031240333373942403
1.0013653787287808,0.03686446430802818,0.05976604351138421,0.03235087082016887,0.07951711625043299,0.030093502963566932
1.0014124607539112,0.040499198873267514,0.06075923139895215,0.04235422606047071,0.08020949861070942,0.04010854954092034
1.0014595427790416,0.04245011553894062,0.06393560616086025,0.05148956578485458,0.08250366215594632,0.04921394033313175
1.001506624804172,0.04142424671447975,0.06528299580681957,0.057489670337512934,0.0804532051307145,0.055285197254865616
1.0015537068293023,0.03772147907862947,0.06517188738824123,0.05838903434484734,0.07298483838817157,0.056374664320073466
1.0016007888544327,0.032149333674356434,0.06104625168442099,0.05286952532393206,0.060982011482194384,0.05115281079483804
1.001647870879563,0.025799799790141527,0.052939633212744266,0.040386054375886556,0.04442978461914368,0.039101649552474214
1.0016949529046935,0.020580986012262138,0.041460058131060976,0.02276083148008517,0.027061552390115855,0.021962572851335224
1.0017420349298238,0.01993155776046648,0.0353106268454148,0.008396000375120035,0.014769735422886177,0.007958266393589705
1.0017891169549542,0.027489951613850306,0.034561712729210624,0.00883020356959996,0.013365970379910629,0.008433511103355875
1.0018361989800846,0.042074300128446054,0.036373142145339585,0.022145335055818467,0.019281533007280808,0.0215722614166303
1.001883281005215,0.05845891480384451,0.04427804847745865,0.04104344236602053,0.031116648440315274,0.04013087169831542
1.0019303630303453,0.07582159493280267,0.05224671126328712,0.05832937685591873,0.04537924553641115,0.05703285073691536
1.0019774450554757,0.09824195100672209,0.05693648360445731,0.07041397317164165,0.06124237192115201,0.06872128233028717
1.002024527080606,0.1303669711588208,0.055355628740780885,0.07896421651578898,0.07198738881468257,0.07702790132364315
1.0020716091057364,0.17464242099810953,0.05194154398043054,0.08832693698111686,0.0791188026120534,0.08625355958641638
1.0021186911308668,0.22917237164395338,0.05376692202429456,0.11355266104308831,0.08483464372619305,0.11144936081553761
1.0021657731559972,0.2864808872447173,0.05911553934082119,0.14880372324738836,0.09053681306611487,0.14675035216854831
1.0022128551811276,0.335488571803669,0.06418081741769222,0.17945522269565434,0.09553877852479702,0.17748522630299404
1.002259937206258,0.3667004160945303,0.06680527660404736,0.20044309409803335,0.09828078800729109,0.19855890139960986
1.0023070192313883,0.37630521047742305,0.06667745136370849,0.20989430295355302,0.09805783937331329,0.20806502520723075
1.0023541012565187,0.3658732131217113,0.06420293005883189,0.20800353236518512,0.09508063957327739,0.20618889710681412
1.002401183281649,0.3393357840705059,0.06118360169918852,0.19716291122807472,0.08992371397358132,0.19534450644516374
1.0024482653067794,0.30043566038503033,0.05729469993079806,0.1783931936762516,0.07972239783096163,0.17662469247981738
1.0024953473319098,0.25183659939415354,0.05082850851982557,0.15384153094853617,0.06341602550877988,0.15227312490977363
1.0025424293570402,0.1956066522565673,0.04016215829165136,0.12081929242955049,0.04282614775012049,0.1196417247752765
1.0025895113821706,0.13475970805500284,0.029152519745986226,0.07564140824241966,0.01861245341942513,0.07507819341513627
1.002636593407301,0.07582916802294695,0.021862505375463324,0.025728531183742454,-5.181508897719573e-05,0.025718901745696066
1.0026836754324313,0.03145358980808763,0.019326371489590072,-0.0040036080406334615,-0.0007739731897040566,-0.003979077643077982
1.0027307574575617,0.01779891286180085,0.02440549424538407,-0.006351274616742859,0.01744481569386821,-0.006863321158575678
1.002777839482692,0.04358985242398123,0.031002930291403476,0.006591376950054447,0.04316796409539556,0.005322148066990394
1.0028249215078224,0.1037077589167159,0.04668275785047626,0.04281328660270074,0.06552779953374888,0.04095774535264564
1.0028720035329528,0.18101238562213362,0.06585810178803228,0.0979436666785688,0.07900593881335587,0.09590431148313602
1.0029190855580832,0.25636899888384335,0.08218832862823107,0.15380629462607742,0.08563340492567673,0.1518515418155789
1.0029661675832136,0.31832235074100634,0.09157933783767579,0.19704252226634572,0.08837614566096134,0.19524059987859133
1.003013249608344,0.36361141655314383,0.09725878867675247,0.228525784613192,0.08923659445250667,0.22686324364366922
1.0030603316334743,0.39341420767750745,0.09912781064944193,0.24979870354304085,0.08724917640300532,0.24825043871600305
1.0031074136586047,0.4102870696014962,0.09806328351658963,0.26258314989231946,0.08448482191132468,0.26110956043594186
1.003154495683735,0.41662904201390033,0.09552803448031147,0.266777273312063,0.08048558152439819,0.2653461613854288
1.0032015777088654,0.41405085665469693,0.09136416686475811,0.26326150551395927,0.07503561964744185,0.26185690154833197
1.0032486597339958,0.4030953535584088,0.08556961692278793,0.251751202986526,0.06799786861706364,0.2503753695252445
1.0032957417591262,0.38301151602067063,0.07799345036279133,0.2324239377319079,0.0593773111080265,0.2311044961692678
1.0033428237842565,0.3514583105172215,0.06837557586849215,0.2047530276495091,0.04911373939560437,0.20354623281363385
1.003389905809387,0.3042863356687068,0.056352872396974826,0.16911475512504195,0.03753187309422769,0.16809992943935068
1.0034369878345173,0.2364892670841809,0.04263184414436175,0.12615890065588273,0.02500188267660172,0.12542466372548958
1.0034840698596477,0.14805992805189566,0.0287901872494604,0.07745804013496241,0.012555161260093735,0.0770642024470588
1.003531151884778,0.05937981673678241,0.019621104357440994,0.035632586371168055,0.003476948683347015,0.03551515234205245
1.0035782339099084,0.016571701488668728,0.018741454081018113,0.012038086514572617,0.0005263694418390512,0.012017367174927898
1.0036253159350388,0.04141534161646615,0.02821949185470162,0.014399178728297872,0.007565871862521188,0.014170574338791486
1.0036723979601692,0.0978579156313711,0.04514123976593559,0.03595348541122598,0.02366142779044292,0.03525220453590105
1.0037194799852995,0.14599333246590304,0.06634072390149165,0.06503465797160808,0.040472282203035705,0.06387409254272712
1.00376656201043,0.17300879075255565,0.08218498572545896,0.0922030709843016,0.05557458326398941,0.09068605929811319
1.0038136440355603,0.18229222765708752,0.09326528843788724,0.11374971918924169,0.06525432010358102,0.11205148522816723
1.0038607260606907,0.18262972424027749,0.09859212436148306,0.12736778710133306,0.07156022927970804,0.12557290524146542
1.003907808085821,0.18292620727983336,0.1016646048148458,0.13485525602086357,0.07711343781673982,0.13297625332905297
1.0039548901109514,0.18798821740501145,0.1040325734998691,0.13913083302593265,0.08171220688815985,0.137183506380797
1.0040019721360818,0.19658928748535154,0.10298680607617508,0.1397247738744464,0.08400239722009986,0.13773972831117742
1.0040490541612122,0.20361099360789395,0.09807985598417393,0.1356935801867525,0.08493177348392116,0.13367626492667287
1.0040961361863425,0.20356945018764083,0.08980286142612207,0.1287855413388881,0.08280069815525884,0.12677956837995313
1.004143218211473,0.19261735903368254,0.08050260468773345,0.11776025800915435,0.07986160460407571,0.11577038073156273
1.0041903002366033,0.1692114287165738,0.06856673299233502,0.09836742477706704,0.07277487115075619,0.0964655379512855
1.0042373822617336,0.13469585530973552,0.054984869848962184,0.07519967777083232,0.06122684509809478,0.07351604788348746
1.004284464286864,0.094068350002802,0.04064671545436734,0.051842634052145065,0.047692301793318084,0.05047835093950142
1.0043315463119944,0.0558705414627791,0.027356066672299145,0.03082107495389939,0.03222823385423867,0.029875334689323012
1.0043786283371248,0.029785725493520713,0.018615219477108234,0.019809015244991575,0.017639264731618365,0.019284203942537468
1.0044257103622551,0.022326134922130727,0.01453200811516794,0.01684685304795892,0.006594329571105569,0.016645771620635894
1.0044727923873855,0.03362727707623793,0.014495341974324921,0.01768087969631584,0.001065867394579081,0.017641844252720366
1.004519874412516,0.057935866130881315,0.018062724232910613,0.0238553638180855,0.001122787370267561,0.023811995315904243
1.0045669564376463,0.08691312585069338,0.024918082766639454,0.038233159934289905,0.0079887992456443,0.03798303150254086
1.0046140384627766,0.11302745450084833,0.033644001569409915,0.05542672474865837,0.021606515054910125,0.054782035532804876
1.004661120487907,0.13143773576861661,0.042792456169482476,0.07126698378066398,0.037725603669355665,0.07018314797339303
1.0047082025130374,0.140315951549541,0.05078239709957768,0.0817840112464661,0.05359199683120786,0.08030051095760805
1.0047552845381678,0.14016084842095028,0.05359749401332274,0.0846685751900148,0.06674972463959312,0.08287033133105313
1.0048023665632981,0.13271042804166153,0.0529294685516103,0.08028160564993014,0.0761490098927651,0.07825109189598875
1.0048494485884285,0.1199532079956697,0.04932841968460588,0.06958311394397716,0.08277050642491217,0.06736244996773472
1.0048965306135589,0.10352759540252561,0.04682073879491938,0.05738407400153901,0.08612555693324897,0.05503851815133595
1.0049436126386893,0.08458770500586026,0.04269970330456802,0.04469505929439128,0.08462458210532355,0.0423419799624759
1.0049906946638196,0.06411017510052013,0.03908475384188872,0.03435472552873721,0.0790083568236775,0.03211699591315563
1.00503777668895,0.043500849939608656,0.03351711039413729,0.022887706523455283,0.07125195304744848,0.020833674504034012
1.0050848587140804,0.02497562650004661,0.02738589073736047,0.013888116903115118,0.06153771323409425,0.012093036675564207
1.0051319407392107,0.011013597455985432,0.021473080037362934,0.011624969459267675,0.050075269987173085,0.01015809713324988
1.0051790227643411,0.003334338693202587,0.01757480726250472,0.009001101837417943,0.03615174259214895,0.007937746276474873
1.0052261047894715,0.0027948227754708652,0.011408785013242473,0.005716764128480125,0.021184388374282864,0.005091523885306372
1.0052731868146019,0.010164673003053454,0.007364016365801551,0.005314070387151807,0.008953464704741334,0.005048277424585597
1.0053202688397322,0.026566180290056158,0.006306148647114994,0.008193549268036414,0.00025760086726076985,0.008182409103764193
1.0053673508648626,0.05291846997433676,0.007040207569009872,0.011498759854167706,-0.004310051146448759,0.011620795848874465
1.005414432889993,0.08828034555015178,0.008139553059553495,0.017065936640710815,-0.004683862927601479,0.017196614037909036
1.0054615149151234,0.12763762777320273,0.010588419510276628,0.025647230237824777,-0.0009419755643109208,0.025663838809207733
1.0055085969402537,0.16155770115500132,0.014380325088728895,0.038076850744054896,0.00842869179018476,0.03781398853106439
1.0055556789653841,0.18078890709766565,0.01964171100144591,0.05135766337998839,0.02085685654169105,0.05073456439489448
1.0056027609905145,0.18307418566708303,0.022964433351562223,0.06056084021799014,0.03412332066913451,0.059569649185070524
1.0056498430156449,0.1741533504439713,0.026936221959612296,0.06655908741414072,0.04620637212362509,0.06524769160840908
1.0056969250407752,0.16242605985016223,0.028950746852189325,0.07063087442771013,0.056414264424411296,0.06906043224245442
1.0057440070659056,0.15418810481596457,0.028354808803549854,0.07107575192890922,0.06248812723881959,0.06935309941027457
1.005791089091036,0.1523552110015489,0.02521590884446729,0.0660360559428213,0.06426767342848307,0.06425900349537368
1.0058381711161664,0.15691036178882456,0.023404319805441522,0.06130313889977103,0.06351713912179802,0.059535918549392976
1.0058852531412967,0.16538784679386007,0.02304901052313993,0.06307528196508604,0.06045759340371988,0.06138959459497855
1.005932335166427,0.17322460684996496,0.021825566137076164,0.06323184659303546,0.05511128853375002,0.06168422933906431
1.0059794171915575,0.17475929729964576,0.01836628688077723,0.05880087400333982,0.047230970289844965,0.057455332949065054
1.0060264992166879,0.16548577922015562,0.014291804000485537,0.05204155960234529,0.03937100226889374,0.05090344050722779
1.0060735812418182,0.1445721481217929,0.010436911560205509,0.04234591607178599,0.03064324781765491,0.04144686657738286
1.0061206632669486,0.11538472372115638,0.006801708887158748,0.03266210113426135,0.022373409819802563,0.03199803083117676
1.006167745292079,0.08342022676517998,0.005367617301946388,0.0259645785337829,0.015662248127913777,0.025495615173498857
1.0062148273172093,0.053714935068683495,0.006417564220228244,0.01794830890199036,0.011406917989711912,0.017605868781121137
1.0062619093423397,0.029620632829972474,0.008415425191543043,0.006428025048282717,0.009548351249134925,0.006144311863234885
1.00630899136747,0.012907514843990737,0.010820366044217569,-0.004503164505502606,0.009353268995936219,-0.0047768869057790925
1.0063560733926005,0.004292560353454192,0.014821956597382887,-0.010519166817943732,0.011084760069633099,-0.010841686470159885
1.0064031554177308,0.0038095921685766332,0.020049844320712124,-0.007972360122875525,0.013002929491439457,-0.00835253660287816
1.0064502374428612,0.010924293923755681,0.028516083658844976,0.0013341291502741227,0.018713375757934504,0.0007825352830146392
1.0064973194679916,0.02453035587728399,0.03683213255846242,0.011333716656649779,0.026589412505752856,0.01054954967441643
1.006544401493122,0.042966387475684646,0.04382538304261996,0.020787738978896356,0.034085752284360935,0.01978693166055884
1.0065914835182523,0.06411092062196938,0.0489301817100864,0.03329944681240632,0.04022341472133431,0.03212821584197302
1.0066385655433827,0.08556714248621351,0.054669978968561864,0.049462130528264495,0.045084126873628436,0.04816649084395936
1.006685647568513,0.10493697207975199,0.05745416374557039,0.06485229624100503,0.04820009947456263,0.06348691371524598
1.0067327295936435,0.12014720761669652,0.05787318037147098,0.07640706666955516,0.04925817761175068,0.07502634640163068
1.0067798116187738,0.12974860817624662,0.05446072454819387,0.08294186479002422,0.047826796223017415,0.08160453851023905
1.0068268936439042,0.1331160769266914,0.05085196136783965,0.08436945777741765,0.043862405880289064,0.08313427380940838
1.0068739756690346,0.13051634907150206,0.045761772679132305,0.08386978816652868,0.039291831246819495,0.08275190153526076
1.006921057694165,0.12301693370584733,0.03914804903383872,0.08185258015702256,0.0323217245542289,0.08091679236706271
1.0069681397192953,0.11219272060745543,0.030947361113917916,0.07585112215539112,0.024471095025230767,0.07512619248842624
1.0070152217444257,0.09964098937742749,0.02239137838566636,0.06985230351433948,0.01712098950598873,0.06933166485293372
1.007062303769556,0.08648287672211809,0.015673503871320188,0.06302251331950957,0.011709168230295924,0.06265673731416832
1.0071093857946865,0.07315337862299943,0.01068237014398434,0.053521194673379444,0.007725942991018258,0.053273053096433536
1.0071564678198168,0.05967551136841471,0.0058649672137041226,0.042771215350936226,0.0042314669473427005,0.04262878928537384
1.0072035498449472,0.046352747241279996,0.0023369023889364517,0.029687677967592516,0.002910761490854734,0.029589319686261065
1.0072506318700776,0.03458526276589038,0.0004826210999129969,0.01916866027493343,0.0034740408714180947,0.019058199980793715
1.007297713895208,0.02727830692374265,0.000770188798904594,0.01473006896934623,0.004207244751959222,0.014599936088235673
1.0073447959203383,0.0280866607277734,0.003177285152120263,0.01711698325886342,0.006772189952454909,0.01691057708956074
1.0073918779454687,0.03925806445151868,0.009796993075425491,0.028584290137595406,0.012983419614220056,0.028192343943182027
1.007438959970599,0.059562255279517966,0.01887671196163072,0.043832242766228824,0.020647816258288907,0.043216059363673516
1.0074860419957294,0.08449757331606145,0.027393431443878003,0.058037587268334905,0.030002153464225603,0.05715889703871125
1.0075331240208598,0.10858230355013457,0.034291422418441395,0.06858033205585247,0.038036569303147034,0.06748682889179944
1.0075802060459902,0.12742598805780986,0.038964312993501296,0.07621925524513734,0.04377402476744973,0.07497962333976951
1.0076272880711206,0.13840784538629322,0.04131977760221926,0.07904744927672683,0.047242640324436265,0.07772100519562211
1.007674370096251,0.14057521646913557,0.04055369691889276,0.0769603579802706,0.04842379737354159,0.07560156821928599
1.0077214521213813,0.1345761316442056,0.03704079811816513,0.07084930100861353,0.046820467634581024,0.06952578817479982
1.0077685341465117,0.12269802495893224,0.03186667901925917,0.062425783036096825,0.04128066337405519,0.061241959549802355
