freq,gls,usurper,pdc_unbiased,shape_periodogram,shift_periodogram
1.0,0.02176245538732735,0.017643968781952853,-0.007335655112181927,0.003766862733266491,-0.0074000368028012
1.0000470820251304,0.05134779247241603,0.022400159175602716,0.016081221596065367,0.0034230173650780043,0.016019444070581663
1.0000941640502607,0.09689124580742478,0.02800809260429833,0.05094334186944231,0.008353916348954696,0.05079287176334684
1.0001412460753911,0.14848755125694818,0.03388226823778283,0.08456655871201842,0.015856002292209872,0.08429188208503287
1.0001883281005215,0.19664060203551523,0.039984779008352685,0.10917973127593883,0.026338801564472162,0.10875127122030184
1.0002354101256519,0.23592916525893703,0.04515582062012951,0.12678225514793529,0.034404479292826855,0.1262535567749567
1.0002824921507822,0.26363730657080775,0.04653756380887356,0.13936052532630389,0.038243045785802135,0.13879425159938513
1.0003295741759126,0.2780607972143743,0.04797189981392291,0.14663287491158739,0.04066765687230968,0.14604550021810309
1.000376656201043,0.27778293516045677,0.049124150152617285,0.14742341655727248,0.04232275760101249,0.1468188163129066
1.0004237382261734,0.2619162710265795,0.047324242013181056,0.139633635428265,0.043321485509016364,0.13901012003347163
1.0004708202513037,0.23107843684954268,0.0432698559444375,0.12167319492364326,0.04249462783485924,0.121040815156633
1.0005179022764341,0.1884924826566669,0.03767960355794039,0.09811663264576473,0.04036893725634395,0.09748938320474972
1.0005649843015645,0.1401213853463462,0.03337245001246741,0.07552593926328457,0.037483929232001195,0.0749212709205334
1.0006120663266949,0.09311329616242185,0.030522592211767795,0.056936636782797936,0.0329295144027901,0.05638922356415528
1.0006591483518252,0.05338098213176131,0.030416307043160194,0.04656239048066332,0.02620530077050819,0.0461173835383307
1.0007062303769556,0.024158292773911582,0.029667852683393833,0.0379052596807291,0.01774218438466121,0.0375978810986369
1.000753312402086,0.006389706849983347,0.029573886793199618,0.024925530867037873,0.00810084640292273,0.024781978716409494
1.0008003944272164,4.4957735270936574e-05,0.030700737309637825,0.013623927240606612,-0.00029918818886367154,0.013627068429153524
1.0008474764523467,0.004476680458159687,0.029099523653096166,0.005279248516488982,-0.0027919702242780514,0.0053269752994316
1.000894558477477,0.016631009383087918,0.031798009601023206,0.00604487589630294,-0.00024907205965895494,0.006048290699086172
1.0009416405026075,0.030279800796216314,0.0386168788010625,0.01614856324889533,0.006538167592931019,0.016032926080412065
1.0009887225277379,0.04019506929021177,0.0477231593650237,0.031662352407458065,0.018548111562876085,0.03134120877009148
1.0010358045528682,0.045271217739530065,0.054589556943719655,0.049643587368788454,0.033571960593773376,0.04908259925284175
1.0010828865779986,0.04665854735345898,0.058140113616848677,0.06394396252727896,0.0485688898299162,0.06316992075751994
1.001129968603129,0.04557434040645729,0.060930092060221236,0.06951556918541625,0.06076341871177232,0.06858314750425995
1.0011770506282593,0.04281463251624272,0.060360294355602,0.06676401531502141,0.06780824089336154,0.06573432686941755
1.0012241326533897,0.03911406922799136,0.055859925345091,0.05756222886158259,0.07030335562952915,0.056477429534042174
1.00127121467852,0.035734840091298535,0.049206751416506614,0.04469056838221148,0.07016429750847675,0.04357561712812076
1.0013182967036505,0.034632288517627896,0.042670037827051144,0.03354469161607427,0.06918489208725416,0.03241723908812037
1.0013653787287808,0.03686446430802818,0.04050000670150445,0.03235087082016887,0.0677654000592251,0.031242235727367576
1.0014124607539112,0.040499198873267514,0.042668533249140925,0.04235422606047071,0.06717029625780185,0.041277015363564346
1.0014595427790416,0.04245011553894062,0.04581918763490615,0.05148956578485458,0.06628957857058035,0.05044532012217706
1.001506624804172,0.04142424671447975,0.04614561701076357,0.057489670337512934,0.06071922985393367,0.05653526018502408
1.0015537068293023,0.03772147907862947,0.04517509480699053,0.05838903434484734,0.05153631741624822,0.057565662523002444
1.0016007888544327,0.032149333674356434,0.04276311441780343,0.05286952532393206,0.039420608000015234,0.05222002722018219
1.001647870879563,0.025799799790141527,0.03930981775608361,0.040386054375886556,0.024274701974690945,0.039971025641059234
1.0016949529046935,0.020580986012262138,0.03222886285682528,0.02276083148008517,0.009512582623653959,0.022593285579797718
1.0017420349298238,0.01993155776046648,0.028246732881459145,0.008396000375120035,-0.0013434663567649492,0.008418078442992798
1.0017891169549542,0.027489951613850306,0.027729543218281208,0.00883020356959996,-0.003279352023534302,0.008885884141858171
1.0018361989800846,0.042074300128446054,0.02772125259131124,0.022145335055818467,0.0010539177737020633,0.022123710549746
1.001883281005215,0.05845891480384451,0.03223983410323217,0.04104344236602053,0.01050288550260069,0.04085750072411009
1.0019303630303453,0.07582159493280267,0.03844265135383784,0.05832937685591873,0.02182044253850918,0.05795719081023734
1.0019774450554757,0.09824195100672209,0.04297413736759843,0.07041397317164165,0.0350085918005466,0.06984227756287884
1.002024527080606,0.1303669711588208,0.0411854059864501,0.07896421651578898,0.045730350791391886,0.07824660463565605
1.0020716091057364,0.17464242099810953,0.03613379536800386,0.08832693698111686,0.05362784175898026,0.08751777778977197
1.0021186911308668,0.22917237164395338,0.03708369273733972,0.11355266104308831,0.058732891552370846,0.112727003712374
1.0021657731559972,0.2864808872447173,0.04137308395121665,0.14880372324738836,0.06286290475499466,0.14801180230934635
1.0022128551811276,0.335488571803669,0.04583312320211851,0.17945522269565434,0.06610846873095313,0.17871369371004747
1.002259937206258,0.3667004160945303,0.04860834307973356,0.20044309409803335,0.06767708601097785,0.19974779970047443
1.0023070192313883,0.37630521047742305,0.04945935066169734,0.20989430295355302,0.06738886644555121,0.2092242285405629
1.0023541012565187,0.3658732131217113,0.04826265291380509,0.20800353236518512,0.06521391550128981,0.2073353165520043
1.002401183281649,0.3393357840705059,0.04695255908166834,0.19716291122807472,0.06123062896687746,0.19648613139245738
1.0024482653067794,0.30043566038503033,0.04543900473831343,0.1783931936762516,0.053158890304110536,0.17773048359989774
1.0024953473319098,0.25183659939415354,0.04154486825487041,0.15384153094853617,0.040220313371219424,0.15326576798620656
1.0025424293570402,0.1956066522565673,0.03386395767505495,0.12081929242955049,0.02436246224001089,0.12042249983623961
1.0025895113821706,0.13475970805500284,0.02514556722070002,0.07564140824241966,0.007356142091121345,0.07550538403278016
1.002636593407301,0.07582916802294695,0.018739801300597006,0.025728531183742454,-0.0048699208472871135,0.025809477329879996
1.0026836754324313,0.03145358980808763,0.01904256674074379,-0.0040036080406334615,-0.005386856396899187,-0.00390947708212855
1.0027307574575617,0.01779891286180085,0.026466279379810054,-0.006351274616742859,0.007678279400297129,-0.006483893465862482
1.002777839482692,0.04358985242398123,0.026068974604430438,0.006591376950054447,0.027455970084134338,0.0061157249932530695
1.0028249215078224,0.1037077589167159,0.030269138570797487,0.04281328660270074,0.042421985380097296,0.04210967240782588
1.0028720035329528,0.18101238562213362,0.040276113508361036,0.0979436666785688,0.05058510294317096,0.09718596303315997
1.0029190855580832,0.25636899888384335,0.053204035006251295,0.15380629462607742,0.052991104676439596,0.15310537972988053
1.0029661675832136,0.31832235074100634,0.06344604766372165,0.19704252226634572,0.05091688065284473,0.1964251190128814
1.003013249608344,0.36361141655314383,0.06811810743613902,0.228525784613192,0.04953110043812554,0.22796415969376418
1.0030603316334743,0.39341420767750745,0.06973396600564152,0.24979870354304085,0.0473751064711991,0.24927841948957014
1.0031074136586047,0.4102870696014962,0.0688262856438264,0.26258314989231946,0.04455028066203767,0.2620930779160248
1.003154495683735,0.41662904201390033,0.06701813548227704,0.266777273312063,0.0413298249425756,0.26630835453505686
1.0032015777088654,0.41405085665469693,0.06406133451995265,0.26326150551395927,0.037362889089267756,0.262812400949058
1.0032486597339958,0.4030953535584088,0.059877211806025635,0.251751202986526,0.03240382333132168,0.25132885986819503
1.0032957417591262,0.38301151602067063,0.05440918973866283,0.2324239377319079,0.026615414978916112,0.23204302419856568
1.0033428237842565,0.3514583105172215,0.04741180798920743,0.2047530276495091,0.019886472127817165,0.20443813093185373
1.003389905809387,0.3042863356687068,0.03882532086551628,0.16911475512504195,0.012560453094460635,0.16889397279310614
1.0034369878345173,0.2364892670841809,0.02907959706326001,0.12615890065588273,0.0048574255053888005,0.1260592439724364
1.0034840698596477,0.14805992805189566,0.01891044477902132,0.07745804013496241,-0.002363343495712678,0.077487324529443
1.003531151884778,0.05937981673678241,0.012442728682222758,0.035632586371168055,-0.007218561587868846,0.0357533140842601
1.0035782339099084,0.016571701488668728,0.012325328413415762,0.012038086514572617,-0.008085631180198168,0.01217710846689378
1.0036253159350388,0.04141534161646615,0.0204917243386863,0.014399178728297872,-0.0019183467867492103,0.014430349565451403
1.0036723979601692,0.0978579156313711,0.03366534014515124,0.03595348541122598,0.00964582789617321,0.035782475423564934
1.0037194799852995,0.14599333246590304,0.04891170888295338,0.06503465797160808,0.021434777926799348,0.06466964047986307
1.00376656201043,0.17300879075255565,0.058437629190115886,0.0922030709843016,0.032834110138069944,0.09167507510835292
1.0038136440355603,0.18229222765708752,0.06625572016734378,0.11374971918924169,0.040006708588771006,0.11314052158465523
1.0038607260606907,0.18262972424027749,0.07059065453736706,0.12736778710133306,0.04585276472504971,0.12670258922807925
1.003907808085821,0.18292620727983336,0.07158005869151861,0.13485525602086357,0.05300189526151803,0.1341244444303233
1.0039548901109514,0.18798821740501145,0.07291741893226011,0.13913083302593265,0.058199670764319124,0.13835818744628028
1.0040019721360818,0.19658928748535154,0.07249395469196794,0.1397247738744464,0.060784865139000645,0.13893057776167306
1.0040490541612122,0.20361099360789395,0.069627530588621,0.1356935801867525,0.0606189363269285,0.13489264272328225
1.0040961361863425,0.20356945018764083,0.06339311394780167,0.1287855413388881,0.05928081528568779,0.12798325513407766
1.004143218211473,0.19261735903368254,0.05492985425615608,0.11776025800915435,0.057120939814180434,0.11695912481467073
1.0041903002366033,0.1692114287165738,0.04498809331503739,0.09836742477706704,0.051558731390737994,0.09759841973365806
1.0042373822617336,0.13469585530973552,0.03442759788074644,0.07519967777083232,0.043161247420972715,0.07451389409798687
1.004284464286864,0.094068350002802,0.02402543143233377,0.051842634052145065,0.03277260000492774,0.051295223491104915
1.0043315463119944,0.0558705414627791,0.014927539786350282,0.03082107495389939,0.020133578053444092,0.030473311652196203
1.0043786283371248,0.029785725493520713,0.00940358050157114,0.019809015244991575,0.007366536599803709,0.019678656798040182
1.0044257103622551,0.022326134922130727,0.007620045416710359,0.01684685304795892,-0.003201455909835349,0.016899992830614097
1.0044727923873855,0.03362727707623793,0.008949555870933058,0.01768087969631584,-0.00894851324691783,0.017834314622951215
1.004519874412516,0.057935866130881315,0.012706934974228923,0.0238553638180855,-0.009787504269884312,0.024022807415793195
1.0045669564376463,0.08691312585069338,0.01870629194910512,0.038233159934289905,-0.004871292881710503,0.03831229501335959
1.0046140384627766,0.11302745450084833,0.02590637323285891,0.05542672474865837,0.005416618643674753,0.05532552423881477
1.004661120487907,0.13143773576861661,0.032635952293810486,0.07126698378066398,0.01743941252828212,0.07096634138206465
1.0047082025130374,0.140315951549541,0.037236409779784777,0.0817840112464661,0.02966416385626002,0.08129706540506913
1.0047552845381678,0.14016084842095028,0.037668645205151945,0.0846685751900148,0.040232626959488434,0.08403192525811885
1.0048023665632981,0.13271042804166153,0.035403075394001074,0.08028160564993014,0.04776797224417938,0.07953784461890426
1.0048494485884285,0.1199532079956697,0.03186530085214908,0.06958311394397716,0.05466891363370936,0.06873199847377226
1.0048965306135589,0.10352759540252561,0.02884100122437852,0.05738407400153901,0.05936614565541141,0.05644831726404928
1.0049436126386893,0.08458770500586026,0.023863814773685973,0.04469505929439128,0.06033447230282516,0.04372270578324188
1.0049906946638196,0.06411017510052013,0.02065477151270647,0.03435472552873721,0.05776160823146325,0.03340348895941948
1.00503777668895,0.043500849939608656,0.016589694480339243,0.022887706523455283,0.05309206018896568,0.02199358765159873
1.0050848587140804,0.02497562650004661,0.013081080843021085,0.013888116903115118,0.04562619650479666,0.013107223224367472
1.0051319407392107,0.011013597455985432,0.01080454560505594,0.011624969459267675,0.03578172585271396,0.01100874881582438
1.0051790227643411,0.003334338693202587,0.010043796547632667,0.009001101837417943,0.02448861754565963,0.008576924873875765
1.0052261047894715,0.0027948227754708652,0.006133513582396362,0.005716764128480125,0.013790089549357886,0.005476858678606149
1.0052731868146019,0.010164673003053454,0.0031997234589563233,0.005314070387151807,0.004961347268501203,0.005227143022195064
1.0053202688397322,0.026566180290056158,0.002806549538758983,0.008193549268036414,-0.0033786867266363814,0.008251051710614011
1.0053673508648626,0.05291846997433676,0.00427920991548371,0.011498759854167706,-0.0076414456182234795,0.011630092113227485
1.005414432889993,0.08828034555015178,0.007663283421467695,0.017065936640710815,-0.007519649357298157,0.01719442887447285
1.0054615149151234,0.12763762777320273,0.011069469439855577,0.025647230237824777,-0.0039817386663241125,0.025712671957948238
1.0055085969402537,0.16155770115500132,0.013911492110034198,0.038076850744054896,0.003696925235411897,0.03800728462308384
1.0055556789653841,0.18078890709766565,0.01744640200486286,0.05135766337998839,0.01409394042286319,0.051111105895328794
1.0056027609905145,0.18307418566708303,0.01867936501534153,0.06056084021799014,0.02508647812112332,0.06013714266891699
1.0056498430156449,0.1741533504439713,0.019698269860016382,0.06655908741414072,0.03437089489552152,0.06599471320206537
1.0056969250407752,0.16242605985016223,0.019359082896413745,0.07063087442771013,0.04227705076746272,0.0699534594383722
1.0057440070659056,0.15418810481596457,0.017476188943997006,0.07107575192890922,0.04620582852208571,0.07034311213438751
1.005791089091036,0.1523552110015489,0.014123006744545646,0.0660360559428213,0.04639748347844423,0.06529529305942748
1.0058381711161664,0.15691036178882456,0.012217807390026317,0.06130313889977103,0.04547251482825476,0.06057074588434779
1.0058852531412967,0.16538784679386007,0.012149399983473684,0.06307528196508604,0.04347716487332705,0.06237367176023099
1.005932335166427,0.17322460684996496,0.010546352157242275,0.06323184659303546,0.03946752865640378,0.06258931201060235
1.0059794171915575,0.17475929729964576,0.007753569544142795,0.05880087400333982,0.03331904085540063,0.05824838106045095
1.0060264992166879,0.16548577922015562,0.005273316611121652,0.05204155960234529,0.027286770204319265,0.05158073636908145
1.0060735812418182,0.1445721481217929,0.0031451975971140815,0.04234591607178599,0.020115244080850563,0.041999489644192874
1.0061206632669486,0.11538472372115638,0.001036720300369865,0.03266210113426135,0.012264429018090335,0.03244688385143695
1.006167745292079,0.08342022676517998,-0.00026920137493849513,0.0259645785337829,0.0052505261189158105,0.02586989359988233
1.0062148273172093,0.053714935068683495,0.0006503684608840159,0.01794830890199036,0.0009300276566034987,0.017929459204717838
1.0062619093423397,0.029620632829972474,0.0022879324125285126,0.006428025048282717,-0.0011587748252077895,0.006447189391907564
1.00630899136747,0.012907514843990737,0.00478271058418947,-0.004503164505502606,0.000186860692593133,-0.004505731199594162
1.0063560733926005,0.004292560353454192,0.008264505607934743,-0.010519166817943732,0.003808607754077192,-0.010583811935121555
1.0064031554177308,0.0038095921685766332,0.01390941918455664,-0.007972360122875525,0.007015260172795313,-0.00809322020204527
1.0064502374428612,0.010924293923755681,0.022486720727852474,0.0013341291502741227,0.014194626352177341,0.001087435181777952
1.0064973194679916,0.02453035587728399,0.029337553390646382,0.011333716656649779,0.022856313026202172,0.010937855386276311
1.006544401493122,0.042966387475684646,0.03442715900392646,0.020787738978896356,0.030666610347586123,0.020261695353781636
1.0065914835182523,0.06411092062196938,0.03650357289201663,0.03329944681240632,0.035431691784625456,0.032700388410914626
1.0066385655433827,0.08556714248621351,0.03915523614065638,0.049462130528264495,0.037594560271726404,0.04883836107903981
1.006685647568513,0.10493697207975199,0.04052799898930807,0.06485229624100503,0.03761369776570313,0.06423843495462445
1.0067327295936435,0.12014720761669652,0.04014130079165334,0.07640706666955516,0.03598029830204112,0.07582475281701717
1.0067798116187738,0.12974860817624662,0.036981123566986095,0.08294186479002422,0.03308857839288363,0.08240528302100605
1.0068268936439042,0.1331160769266914,0.0352124752397184,0.08436945777741765,0.028749339877572153,0.0838970794897288
1.0068739756690346,0.13051634907150206,0.030604074977701526,0.08386978816652868,0.024641557083271245,0.08345877328334204
1.006921057694165,0.12301693370584733,0.024275142707958754,0.08185258015702256,0.019957078416311183,0.08151318550124255
1.0069681397192953,0.11219272060745543,0.016712004080122037,0.07585112215539112,0.01413223707820375,0.07560383704047903
1.0070152217444257,0.09964098937742749,0.009985490612222835,0.06985230351433948,0.008444277265691821,0.06969865340599023
1.007062303769556,0.08648287672211809,0.004740784667183439,0.06302251331950957,0.003951627276638289,0.06294528572200674
1.0071093857946865,0.07315337862299943,0.00212521815488042,0.053521194673379444,0.00065052018840898,0.05350189864214553
1.0071564678198168,0.05967551136841471,-7.821316959300556e-05,0.042771215350936226,-0.0024485510633694206,0.042807321989434995
1.0072035498449472,0.046352747241279996,-0.002422955276888198,0.029687677967592516,-0.003924498421329736,0.029751520192529874
1.0072506318700776,0.03458526276589038,-0.0033017296326180333,0.01916866027493343,-0.003440992937258627,0.019225629362199226
1.007297713895208,0.02727830692374265,-0.0026810034732133435,0.01473006896934623,-0.002822772796581815,0.014776929149031854
1.0073447959203383,0.0280866607277734,-0.0007958730921501396,0.01711698325886342,-0.001383563602873524,0.017138443121765403
1.0073918779454687,0.03925806445151868,0.004486250719302743,0.028584290137595406,0.0024952548718298164,0.0285367715008829
1.007438959970599,0.059562255279517966,0.011345823962012934,0.043832242766228824,0.007453116425072178,0.043697740684144
1.0074860419957294,0.08449757331606145,0.017002125788832048,0.058037587268334905,0.01297292501068224,0.05780946107436006
1.0075331240208598,0.10858230355013457,0.020874996903731506,0.06858033205585247,0.018250621920188278,0.06826650370522888
1.0075802060459902,0.12742598805780986,0.023936948542347167,0.07621925524513734,0.021831279764616397,0.07584980129907529
1.0076272880711206,0.13840784538629322,0.024869541114003774,0.07904744927672683,0.023823187899062518,0.0786477496308249
1.007674370096251,0.14057521646913557,0.023751952334635933,0.0769603579802706,0.024453582567919487,0.07655048476581304
1.0077214521213813,0.1345761316442056,0.0215175825046299,0.07084930100861353,0.02316857091492594,0.07045798319064918
