freq,gls,usurper,pdc_unbiased,shape_periodogram,shift_periodogram
1.0,0.02176245538732735,0.01834469949303037,-0.007335655112181927,0.008339073455686755,-0.0075723709717294705
1.0000470820251304,0.05134779247241603,0.026753841170355386,0.016081221596065367,0.012231418644698436,0.01572461233919706
1.0000941640502607,0.09689124580742478,0.038288500868319066,0.05094334186944231,0.022026517503311194,0.05030438229950381
1.0001412460753911,0.14848755125694818,0.050509000029964356,0.08456655871201842,0.037151625662938205,0.08353346901019192
1.0001883281005215,0.19664060203551523,0.06299750676521591,0.10917973127593883,0.05645151564553968,0.1077121789104576
1.0002354101256519,0.23592916525893703,0.07353710492071786,0.12678225514793529,0.07232953179365852,0.12502491175889374
1.0002824921507822,0.26363730657080775,0.08036056962608171,0.13936052532630389,0.082489026471524,0.1374622376758252
1.0003295741759126,0.2780607972143743,0.08496832961349648,0.14663287491158739,0.0886365179817595,0.14466583265880364
1.000376656201043,0.27778293516045677,0.08664806988073481,0.14742341655727248,0.09243474928819286,0.14540314767860346
1.0004237382261734,0.2619162710265795,0.08444545751296989,0.139633635428265,0.09317098667875588,0.1375648050132921
1.0004708202513037,0.23107843684954268,0.0787977870646142,0.12167319492364326,0.09017479743887297,0.11957020782755846
1.0005179022764341,0.1884924826566669,0.07104952926710684,0.09811663264576473,0.0851792241687086,0.09601029106988136
1.0005649843015645,0.1401213853463462,0.06470964101773968,0.07552593926328457,0.07990449686546486,0.07345271292490045
1.0006120663266949,0.09311329616242185,0.05956787547585422,0.056936636782797936,0.07328213582092948,0.054965752687570285
1.0006591483518252,0.05338098213176131,0.05610844400049299,0.04656239048066332,0.0640895504541339,0.044800235230196515
1.0007062303769556,0.024158292773911582,0.051221706794106606,0.0379052596807291,0.0519266070005039,0.03645050878312748
1.000753312402086,0.006389706849983347,0.04609284250413042,0.024925530867037873,0.03756475037585474,0.023854183364921528
1.0008003944272164,4.4957735270936574e-05,0.042675595918024015,0.013623927240606612,0.02504923492856633,0.012903131629393874
1.0008474764523467,0.004476680458159687,0.03969679433502712,0.005279248516488982,0.02019634814686738,0.004698011206362025
1.000894558477477,0.016631009383087918,0.04327128361078898,0.00604487589630294,0.022220072250227856,0.005405587480272555
1.0009416405026075,0.030279800796216314,0.05236536841406332,0.01614856324889533,0.030455891770293363,0.015274617508985691
1.0009887225277379,0.04019506929021177,0.06425909786758906,0.031662352407458065,0.0446501011352613,0.030399091636267236
1.0010358045528682,0.045271217739530065,0.07417909630758174,0.049643587368788454,0.062036501562833954,0.047939940993309844
1.0010828865779986,0.04665854735345898,0.08231118472364904,0.06394396252727896,0.07825308846785535,0.06187255423598877
1.001129968603129,0.04557434040645729,0.08762353694305233,0.06951556918541625,0.09027157294536203,0.06718557545208496
1.0011770506282593,0.04281463251624272,0.08809251670141804,0.06676401531502141,0.09539081613736591,0.06430655870277521
1.0012241326533897,0.03911406922799136,0.08371604714440312,0.05756222886158259,0.09468308157937176,0.05507882939462222
1.00127121467852,0.035734840091298535,0.07618870147784661,0.04469056838221148,0.09085519979651871,0.04224457709182716
1.0013182967036505,0.034632288517627896,0.06934798278400707,0.03354469161607427,0.08726005459711784,0.031147372168609324
1.0013653787287808,0.03686446430802818,0.06625780099932435,0.03235087082016887,0.0855021323429483,0.029995227772611602
1.0014124607539112,0.040499198873267514,0.06755227677754497,0.04235422606047071,0.08683114591200043,0.04000014816095283
1.0014595427790416,0.04245011553894062,0.07132494274946495,0.05148956578485458,0.09014074921008296,0.04908867152153898
1.001506624804172,0.04142424671447975,0.07316805170452644,0.057489670337512934,0.0892310700483636,0.05513471599036803
1.0015537068293023,0.03772147907862947,0.07290329741179459,0.05838903434484734,0.08255787001384345,0.05619682761760271
1.0016007888544327,0.032149333674356434,0.0682071833394184,0.05286952532393206,0.07072276283608796,0.050952053667219506
1.001647870879563,0.025799799790141527,0.05896354484383119,0.040386054375886556,0.05354413507757238,0.03889095563291634
1.0016949529046935,0.020580986012262138,0.04602466366930408,0.02276083148008517,0.03497660467599767,0.021760973096115917
1.0017420349298238,0.01993155776046648,0.03843133448513636,0.008396000375120035,0.021548395231715655,0.007775532872543451
1.0017891169549542,0.027489951613850306,0.03786876022518093,0.00883020356959996,0.0203296174877953,0.008244461884852314
1.0018361989800846,0.042074300128446054,0.04064185235302472,0.022145335055818467,0.026883212267919673,0.021372386801495894
1.001883281005215,0.05845891480384451,0.04986935109852409,0.04104344236602053,0.03992238134921421,0.039914552237628166
1.0019303630303453,0.07582159493280267,0.059554039771161305,0.05832937685591873,0.055693187641836735,0.05680169360654565
1.0019774450554757,0.09824195100672209,0.06634164801223515,0.07041397317164165,0.07307631792823209,0.06848368428558635
1.002024527080606,0.1303669711588208,0.06664375444550069,0.07896421651578898,0.0851001715856468,0.07678679957038304
1.0020716091057364,0.17464242099810953,0.06439802312713774,0.08832693698111686,0.09300504471208426,0.08602003069149218
1.0021186911308668,0.22917237164395338,0.06687097733368484,0.11355266104308831,0.09894769117145133,0.11125732724741613
1.0021657731559972,0.2864808872447173,0.07259022078705911,0.14880372324738836,0.10473508896978148,0.14662226180302318
1.0022128551811276,0.335488571803669,0.07788375428319114,0.17945522269565434,0.10966991365120386,0.17741895689298445
1.002259937206258,0.3667004160945303,0.0806049171311209,0.20044309409803335,0.11205968658011901,0.1985360042442381
1.0023070192313883,0.37630521047742305,0.08036931591197038,0.20989430295355302,0.1111430477304939,0.20805875945517135
1.0023541012565187,0.3658732131217113,0.07758809621859919,0.20800353236518512,0.10717040045962456,0.20617560612810545
1.002401183281649,0.3393357840705059,0.07393924989612566,0.19716291122807472,0.10071198334713835,0.19531232890244532
1.0024482653067794,0.30043566038503033,0.06940805986716346,0.1783931936762516,0.08908830157305357,0.1765630609460705
1.0024953473319098,0.25183659939415354,0.062227328988573985,0.15384153094853617,0.0711782624766646,0.15218358884617955
1.0025424293570402,0.1956066522565673,0.04972085402770395,0.12081929242955049,0.04860850506574426,0.11954352868723958
1.0025895113821706,0.13475970805500284,0.035497298550611026,0.07564140824241966,0.02179736056486226,0.07500740126859683
1.002636593407301,0.07582916802294695,0.02531216810337185,0.025728531183742454,0.0011466063717563574,0.02568504399843277
1.0026836754324313,0.03145358980808763,0.02215714181157097,-0.0040036080406334615,-1.765153376357553e-05,-0.004001449619642755
1.0027307574575617,0.01779891286180085,0.0287577426685932,-0.006351274616742859,0.019672410884363854,-0.006914947671305965
1.002777839482692,0.04358985242398123,0.03975369936373099,0.006591376950054447,0.04916862072574677,0.005182876503342987
1.0028249215078224,0.1037077589167159,0.05841219886633367,0.04281328660270074,0.07475387684089323,0.04076821087501634
1.0028720035329528,0.18101238562213362,0.0789542531373144,0.0979436666785688,0.089811729099285,0.09574370093414249
1.0029190855580832,0.25636899888384335,0.09562128505858378,0.15380629462607742,0.09717905751574415,0.15175185950335568
1.0029661675832136,0.31832235074100634,0.1051151676007394,0.19704252226634572,0.10024046246059375,0.1951950920877589
1.003013249608344,0.36361141655314383,0.11037917471875393,0.228525784613192,0.10128475460895195,0.2268566523543713
1.0030603316334743,0.39341420767750745,0.11191093589411544,0.24979870354304085,0.09956103148888777,0.24826122548593352
1.0031074136586047,0.4102870696014962,0.11061486831315456,0.26258314989231946,0.09677197509489317,0.26112514586421826
1.003154495683735,0.41662904201390033,0.1077234385603848,0.266777273312063,0.09252234016957937,0.26535227048947146
1.0032015777088654,0.41405085665469693,0.10320246118487578,0.26326150551395927,0.08673745527801743,0.26184097771419684
1.0032486597339958,0.4030953535584088,0.09701928573886326,0.251751202986526,0.07924574210665919,0.2503271598095998
1.0032957417591262,0.38301151602067063,0.08899351403200853,0.2324239377319079,0.07001818992038143,0.23101848969582606
1.0033428237842565,0.3514583105172215,0.07883987851842245,0.2047530276495091,0.058934555124688356,0.20342291710257646
1.003389905809387,0.3042863356687068,0.06611129808497426,0.16911475512504195,0.04627145061596945,0.16794902880305235
1.0034369878345173,0.2364892670841809,0.051508549362686534,0.12615890065588273,0.03243154409770959,0.1252630850116296
1.0034840698596477,0.14805992805189566,0.03673569126125659,0.07745804013496241,0.01858108521257118,0.07691058921909026
1.003531151884778,0.05937981673678241,0.026813507883898757,0.035632586371168055,0.008209405323799717,0.03538376854507182
1.0035782339099084,0.016571701488668728,0.025604949055807454,0.012038086514572617,0.004332882509256296,0.011908819509338135
1.0036253159350388,0.04141534161646615,0.035151978856995635,0.014399178728297872,0.010984496271664267,0.014078710383394973
1.0036723979601692,0.0978579156313711,0.052247263570158735,0.03595348541122598,0.027047182265863157,0.03517620321602777
1.0037194799852995,0.14599333246590304,0.07423238732371243,0.06503465797160808,0.044717744263557076,0.06379518130892657
1.00376656201043,0.17300879075255565,0.09121484286841464,0.0922030709843016,0.060958287326666034,0.09060359716757675
1.0038136440355603,0.18229222765708752,0.10162047614716037,0.11374971918924169,0.07092499534604373,0.11198361537881682
1.0038607260606907,0.18262972424027749,0.10604164067662172,0.12736778710133306,0.0771199579106911,0.125521907096861
1.003907808085821,0.18292620727983336,0.1082484033161069,0.13485525602086357,0.08260811845322974,0.13293779028581545
1.0039548901109514,0.18798821740501145,0.11009986187560951,0.13913083302593265,0.08691239894213243,0.1371585538746879
1.0040019721360818,0.19658928748535154,0.10861947012706567,0.1397247738744464,0.0891838583564036,0.13771860210071463
1.0040490541612122,0.20361099360789395,0.10391475042991698,0.1356935801867525,0.09048797215989558,0.13364844306787835
1.0040961361863425,0.20356945018764083,0.0960393582590696,0.1287855413388881,0.08900382127717121,0.1267341119667591
1.004143218211473,0.19261735903368254,0.08703151492050867,0.11776025800915435,0.08633912871705252,0.11570933125511139
1.0041903002366033,0.1692114287165738,0.0753775983071373,0.09836742477706704,0.07937537873689021,0.09638110211806088
1.0042373822617336,0.13469585530973552,0.061770773425197996,0.07519967777083232,0.06786363672379173,0.0734041805575639
1.004284464286864,0.094068350002802,0.047061280920710366,0.051842634052145065,0.0538050053050696,0.05035481929458373
1.0043315463119944,0.0558705414627791,0.033152973455069235,0.03082107495389939,0.037562404180881,0.029752040576519107
1.0043786283371248,0.029785725493520713,0.023761448763376547,0.019809015244991575,0.022214303988613075,0.019167943387819086
1.0044257103622551,0.022326134922130727,0.019215221511027104,0.01684685304795892,0.010705344366212241,0.01653352347699415
1.0044727923873855,0.03362727707623793,0.01909831578607396,0.01768087969631584,0.005136754104516072,0.01752636054087198
1.004519874412516,0.057935866130881315,0.022989741869457677,0.0238553638180855,0.00555914609493087,0.02368637121756506
1.0045669564376463,0.08691312585069338,0.030388936871688296,0.038233159934289905,0.013000405838787605,0.03784804336075825
1.0046140384627766,0.11302745450084833,0.040099006232576256,0.05542672474865837,0.02753971470039329,0.05463723907678777
1.004661120487907,0.13143773576861661,0.04998327228530346,0.07126698378066398,0.04484130785987028,0.07002960448745041
1.0047082025130374,0.140315951549541,0.059600208898998926,0.0817840112464661,0.062239111130103136,0.08013486262093254
1.0047552845381678,0.14016084842095028,0.0638111780908781,0.0846685751900148,0.07657029998673663,0.08269891953031183
1.0048023665632981,0.13271042804166153,0.06412505504806149,0.08028160564993014,0.08673714874075171,0.07807336124895888
1.0048494485884285,0.1199532079956697,0.06154903119843766,0.06958311394397716,0.09379402078918356,0.06717436965424194
1.0048965306135589,0.10352759540252561,0.059785869583249864,0.05738407400153901,0.09694787109764923,0.05484680037549249
1.0049436126386893,0.08458770500586026,0.05657226684379979,0.04469505929439128,0.09521463594672122,0.04214090532761344
1.0049906946638196,0.06411017510052013,0.05342618477094442,0.03435472552873721,0.08939334919526791,0.03190500733832067
1.00503777668895,0.043500849939608656,0.04797074645262605,0.022887706523455283,0.08105950869762801,0.020619712781435203
1.0050848587140804,0.02497562650004661,0.040708420062885414,0.013888116903115118,0.07002528567194856,0.011900972846315003
1.0051319407392107,0.011013597455985432,0.03314933885059545,0.011624969459267675,0.05710939461311214,0.009996592823082172
1.0051790227643411,0.003334338693202587,0.02690698325650663,0.009001101837417943,0.04179202896796138,0.007804066124176782
1.0052261047894715,0.0027948227754708652,0.018378527356868186,0.005716764128480125,0.024810793973644225,0.005003410414414745
1.0052731868146019,0.010164673003053454,0.012177332775249931,0.005314070387151807,0.010706656947799553,0.0050046820862233625
1.0053202688397322,0.026566180290056158,0.00927288094030128,0.008193549268036414,0.0006846333297582346,0.008170510820766336
1.0053673508648626,0.05291846997433676,0.009041868764549368,0.011498759854167706,-0.004155656156531689,0.011613444086095716
1.005414432889993,0.08828034555015178,0.00949599298675269,0.017065936640710815,-0.004643096940465037,0.017192375353628584
1.0054615149151234,0.12763762777320273,0.011736245288605385,0.025647230237824777,-0.0011629990715830445,0.02567004332485782
1.0055085969402537,0.16155770115500132,0.015957295129861496,0.038076850744054896,0.008497144616286686,0.03781901852768141
1.0055556789653841,0.18078890709766565,0.021929165591170186,0.05135766337998839,0.021880599100505434,0.05072268735840999
1.0056027609905145,0.18307418566708303,0.02607918602331076,0.06056084021799014,0.03631325030784714,0.05953779162104338
1.0056498430156449,0.1741533504439713,0.03100096499865589,0.06655908741414072,0.04970853744154907,0.06519364381288328
1.0056969250407752,0.16242605985016223,0.034542277124980605,0.07063087442771013,0.061201399840866894,0.06898568747104865
1.0057440070659056,0.15418810481596457,0.03479595174663394,0.07107575192890922,0.0680083439478309,0.06926735504810652
1.005791089091036,0.1523552110015489,0.03227863827375497,0.0660360559428213,0.07021595177616602,0.06416281757046495
1.0058381711161664,0.15691036178882456,0.030905446508120323,0.06130313889977103,0.06968139574803725,0.05943154686999402
1.0058852531412967,0.16538784679386007,0.031037543124816335,0.06307528196508604,0.06636709779591765,0.06128893829545895
1.005932335166427,0.17322460684996496,0.02974529326940962,0.06323184659303546,0.06036015173854771,0.06159430249271534
1.0059794171915575,0.17475929729964576,0.025863680670611445,0.05880087400333982,0.051852729775698894,0.05737193513259682
1.0060264992166879,0.16548577922015562,0.021413888550340567,0.05204155960234529,0.043268464353676865,0.05082988128808613
1.0060735812418182,0.1445721481217929,0.017091202392513875,0.04234591607178599,0.03372940367571319,0.041385821835375494
1.0061206632669486,0.11538472372115638,0.013370067081282846,0.03266210113426135,0.024981147525775637,0.03194226331491726
1.006167745292079,0.08342022676517998,0.012352170768219288,0.0259645785337829,0.01825776997599875,0.02543426763483806
1.0062148273172093,0.053714935068683495,0.01434379907209237,0.01794830890199036,0.014126053099557691,0.01753714772993358
1.0062619093423397,0.029620632829972474,0.01759717990896826,0.006428025048282717,0.012868019935349228,0.006056326786450344
1.00630899136747,0.012907514843990737,0.02057804846392625,-0.004503164505502606,0.012988645928694868,-0.004874740046635872
1.0063560733926005,0.004292560353454192,0.024593189876614952,-0.010519166817943732,0.014633210491912862,-0.010936192490825778
1.0064031554177308,0.0038095921685766332,0.02911978346828111,-0.007972360122875525,0.016277775881699593,-0.008437640396815983
1.0064502374428612,0.010924293923755681,0.03657226867261483,0.0013341291502741227,0.021998209339353047,0.0007019606694105164
1.0064973194679916,0.02453035587728399,0.04387298535405614,0.011333716656649779,0.029591860197913645,0.010483905620621674
1.006544401493122,0.042966387475684646,0.04977763793826945,0.020787738978896356,0.0367877694779604,0.019736626677428214
1.0065914835182523,0.06411092062196938,0.05364861520581274,0.03329944681240632,0.04271807964847281,0.03209008881473698
1.0066385655433827,0.08556714248621351,0.058607088139975914,0.049462130528264495,0.04760380034427129,0.0481339116195045
1.006685647568513,0.10493697207975199,0.060854451018479895,0.06485229624100503,0.050551910251248715,0.06346356143483743
1.0067327295936435,0.12014720761669652,0.06046424867605704,0.07640706666955516,0.051269931633404375,0.07501398187064715
1.0067798116187738,0.12974860817624662,0.05650512389740654,0.08294186479002422,0.04932282449360447,0.08160433045262398
1.0068268936439042,0.1331160769266914,0.0524699220275398,0.08436945777741765,0.04507694037326405,0.08313779578572031
1.0068739756690346,0.13051634907150206,0.04725785579441595,0.08386978816652868,0.040274592252506486,0.08275744138700615
1.006921057694165,0.12301693370584733,0.0405187422765598,0.08185258015702256,0.03307763968907432,0.08092245788330552
1.0069681397192953,0.11219272060745543,0.032391997892494605,0.07585112215539112,0.02521186176131345,0.07512584946629106
1.0070152217444257,0.09964098937742749,0.02427914068210657,0.06985230351433948,0.018094863094117772,0.06931900740914965
1.007062303769556,0.08648287672211809,0.018369208591359754,0.06302251331950957,0.01313232721105421,0.06262706767980739
1.0071093857946865,0.07315337862299943,0.014322686225117386,0.053521194673379444,0.00970660156584814,0.05322409641529407
1.0071564678198168,0.05967551136841471,0.010547860395725965,0.042771215350936226,0.006881175458297135,0.04255752163648979
1.0072035498449472,0.046352747241279996,0.008084843763116282,0.029687677967592516,0.006177362270858921,0.02949882372764559
1.0072506318700776,0.03458526276589038,0.007171699632696871,0.01916866027493343,0.007134776533390448,0.01895643903778699
1.007297713895208,0.02727830692374265,0.008248306435160706,0.01473006896934623,0.008122029786562455,0.014491281738843877
1.0073447959203383,0.0280866607277734,0.011591852650189976,0.01711698325886342,0.01111155333603925,0.016791974338342168
1.0073918779454687,0.03925806445151868,0.019286019563614382,0.028584290137595406,0.017877050462596945,0.028064178070657756
1.007438959970599,0.059562255279517966,0.029548380689989523,0.043832242766228824,0.026086928511016575,0.04308173361048022
1.0074860419957294,0.08449757331606145,0.039344717745907344,0.058037587268334905,0.03614331769218228,0.05701796723252887
1.0075331240208598,0.10858230355013457,0.04723668048510624,0.06858033205585247,0.0451382750309998,0.0673330791477441
1.0075802060459902,0.12742598805780986,0.052267862381364404,0.07621925524513734,0.05161794810572214,0.07481735215673199
1.0076272880711206,0.13840784538629322,0.05493630232687918,0.07904744927672683,0.05542106607397838,0.07755642302102889
1.007674370096251,0.14057521646913557,0.05367551527647005,0.0769603579802706,0.05647353108429738,0.07544066946086027
1.0077214521213813,0.1345761316442056,0.04903039189146644,0.07084930100861353,0.05464230260759664,0.06936556346034851
1.0077685341465117,0.12269802495893224,0.04232734305916252,0.062425783036096825,0.048451248860721344,0.061088030142044315
