freq,gls,usurper,pdc_unbiased,shape_periodogram,shift_periodogram
1.0,0.02176245538732735,0.01940706831401836,-0.007335655112181927,-0.0023873941794952196,-0.007294448441630063
1.0000470820251304,0.05134779247241603,0.024987618780255603,0.016081221596065367,-0.0007570474680061169,0.016091687610169554
1.0000941640502607,0.09689124580742478,0.029596532573558154,0.05094334186944231,0.006758633311123444,0.050823960675917094
1.0001412460753911,0.14848755125694818,0.03321748301247666,0.08456655871201842,0.013504168687103368,0.08433738374423505
1.0001883281005215,0.19664060203551523,0.03688724170388382,0.10917973127593883,0.021643998000527933,0.10883173768556666
1.0002354101256519,0.23592916525893703,0.03923232310971577,0.12678225514793529,0.027552182067431274,0.1263590433016281
1.0002824921507822,0.26363730657080775,0.038512907740135306,0.13936052532630389,0.030095544577224912,0.13891085045812346
1.0003295741759126,0.2780607972143743,0.03889867819263812,0.14663287491158739,0.031961982098570534,0.14616474781915115
1.000376656201043,0.27778293516045677,0.04015410870399675,0.14742341655727248,0.033075633124567426,0.14694280669418391
1.0004237382261734,0.2619162710265795,0.039309033524216434,0.139633635428265,0.03403787897947544,0.13913688448483133
1.0004708202513037,0.23107843684954268,0.03665971940605411,0.12167319492364326,0.03382175147805618,0.12116766841038613
1.0005179022764341,0.1884924826566669,0.032731501798747266,0.09811663264576473,0.032536173772055324,0.09761415769800916
1.0005649843015645,0.1401213853463462,0.029703677975500872,0.07552593926328457,0.029891165744847275,0.07504970349875335
1.0006120663266949,0.09311329616242185,0.027832108594285376,0.056936636782797936,0.02557879884331292,0.05651849089711213
1.0006591483518252,0.05338098213176131,0.027923827566343606,0.04656239048066332,0.01909603164413043,0.046243781181548295
1.0007062303769556,0.024158292773911582,0.027977624967204767,0.0379052596807291,0.011499639329100864,0.03770920693587559
1.000753312402086,0.006389706849983347,0.02785810475765613,0.024925530867037873,0.003370068569066475,0.024865460356996053
1.0008003944272164,4.4957735270936574e-05,0.02977268962109358,0.013623927240606612,-0.003568285180879187,0.013682138358154136
1.0008474764523467,0.004476680458159687,0.028344547675907005,0.005279248516488982,-0.005146343267614427,0.005365205132387059
1.000894558477477,0.016631009383087918,0.02993699928485798,0.00604487589630294,-0.0034792881194299647,0.00610262590414257
1.0009416405026075,0.030279800796216314,0.03582797087474515,0.01614856324889533,0.000650731849160611,0.016135328154053767
1.0009887225277379,0.04019506929021177,0.04368244706791897,0.031662352407458065,0.009651006401439767,0.031497106036635546
1.0010358045528682,0.045271217739530065,0.049674465409229436,0.049643587368788454,0.020559468747870083,0.049302121151843584
1.0010828865779986,0.04665854735345898,0.05031038359483106,0.06394396252727896,0.03198989077507408,0.06343200179183975
1.001129968603129,0.04557434040645729,0.050649529761631625,0.06951556918541625,0.04152805074649112,0.0688707918074692
1.0011770506282593,0.04281463251624272,0.047843094546103804,0.06676401531502141,0.04754358392993774,0.06603384101260654
1.0012241326533897,0.03911406922799136,0.04215702117185203,0.05756222886158259,0.05074014720883574,0.05677697928581668
1.00127121467852,0.035734840091298535,0.03574315229937435,0.04469056838221148,0.05210348995599085,0.043869146956735904
1.0013182967036505,0.034632288517627896,0.03016409786215425,0.03354469161607427,0.05279935110573061,0.03269810030294358
1.0013653787287808,0.03686446430802818,0.029507814946012942,0.03235087082016887,0.052333715959922734,0.03150974792380072
1.0014124607539112,0.040499198873267514,0.032469503901023766,0.04235422606047071,0.05174531325545971,0.041534958104693494
1.0014595427790416,0.04245011553894062,0.03537756111954867,0.05148956578485458,0.04986989329832616,0.050708957130689965
1.001506624804172,0.04142424671447975,0.03571358217437391,0.057489670337512934,0.04406915782705116,0.05679828687351075
1.0015537068293023,0.03772147907862947,0.034649014085932545,0.05838903434484734,0.03632265056484414,0.05781041742705631
1.0016007888544327,0.032149333674356434,0.033631764561019586,0.05286952532393206,0.026337801587064027,0.05243864645826996
1.001647870879563,0.025799799790141527,0.03254168781196957,0.040386054375886556,0.01442333690134935,0.04014228626758271
1.0016949529046935,0.020580986012262138,0.028339418636538778,0.02276083148008517,0.0030959514315858252,0.022705637214674824
1.0017420349298238,0.01993155776046648,0.0262382537613981,0.008396000375120035,-0.005047727509322054,0.008479886779181914
1.0017891169549542,0.027489951613850306,0.02628547618188607,0.00883020356959996,-0.006244033480579344,0.008934230723110323
1.0018361989800846,0.042074300128446054,0.02511997575740562,0.022145335055818467,-0.001848082944739427,0.022173325224341466
1.001883281005215,0.05845891480384451,0.027154575449055997,0.04104344236602053,0.005953539843069163,0.04093838617092178
1.0019303630303453,0.07582159493280267,0.03283503977623878,0.05832937685591873,0.014219458470684164,0.05808882629115571
1.0019774450554757,0.09824195100672209,0.0386163082970028,0.07041397317164165,0.02311613031175708,0.0700363867235627
1.002024527080606,0.1303669711588208,0.03800127233834786,0.07896421651578898,0.0318827013245141,0.07846097885405796
1.0020716091057364,0.17464242099810953,0.03279995519301822,0.08832693698111686,0.03817650360077115,0.08774274781937923
1.0021186911308668,0.22917237164395338,0.032305479902893196,0.11355266104308831,0.04189952609557114,0.11294284065580185
1.0021657731559972,0.2864808872447173,0.035117399442341435,0.14880372324738836,0.04427390206235748,0.1482043928778431
1.0022128551811276,0.335488571803669,0.03830116668413482,0.17945522269565434,0.045856002842476956,0.17887762206810479
1.002259937206258,0.3667004160945303,0.04027174060935069,0.20044309409803335,0.04614582214998212,0.19988958580169652
1.0023070192313883,0.37630521047742305,0.04079932808637349,0.20989430295355302,0.045190154839426795,0.2093591595438739
1.0023541012565187,0.3658732131217113,0.039667873680608534,0.20800353236518512,0.04292906583170475,0.2074819096404414
1.002401183281649,0.3393357840705059,0.03815836717946491,0.19716291122807472,0.03895197711771274,0.19666152821508295
1.0024482653067794,0.30043566038503033,0.03659300833713296,0.1783931936762516,0.032034785785461324,0.17794331694023333
1.0024953473319098,0.25183659939415354,0.033399015575451954,0.15384153094853617,0.021939853979156203,0.15349997258788262
1.0025424293570402,0.1956066522565673,0.02766181534635738,0.12081929242955049,0.011748804596215323,0.120617143035834
1.0025895113821706,0.13475970805500284,0.020493805703255756,0.07564140824241966,0.0021247287035411734,0.07559545680398076
1.002636593407301,0.07582916802294695,0.014488180809299141,0.025728531183742454,-0.003202997196756278,0.025778887653095845
1.0026836754324313,0.03145358980808763,0.017316215183581476,-0.0040036080406334615,-0.001412459868558674,-0.003979266817442403
1.0027307574575617,0.01779891286180085,0.02663293276317351,-0.006351274616742859,0.008614634502219201,-0.0064956318039386405
1.002777839482692,0.04358985242398123,0.025446907992792953,0.006591376950054447,0.02384642200578998,0.006190779450905873
1.0028249215078224,0.1037077589167159,0.0242781486728187,0.04281328660270074,0.035350466614285855,0.04224008083840854
1.0028720035329528,0.18101238562213362,0.027445085620566804,0.0979436666785688,0.0440957493125437,0.09729189353400634
1.0029190855580832,0.25636899888384335,0.03787591168645069,0.15380629462607742,0.04545755847508666,0.15320126231424444
1.0029661675832136,0.31832235074100634,0.05012153278984348,0.19704252226634572,0.03905984101856258,0.19654011098417332
1.003013249608344,0.36361141655314383,0.05518483720330696,0.228525784613192,0.03623745451598541,0.22807408663455753
1.0030603316334743,0.39341420767750745,0.05779105521790569,0.24979870354304085,0.034600666618394546,0.24937659811533383
1.0031074136586047,0.4102870696014962,0.05794690903130136,0.26258314989231946,0.0319269327972744,0.2621900093783221
1.003154495683735,0.41662904201390033,0.05735818946026677,0.266777273312063,0.029186875542531642,0.2664076635019427
1.0032015777088654,0.41405085665469693,0.055845227616366025,0.26326150551395927,0.025806168026110687,0.2629181499648067
1.0032486597339958,0.4030953535584088,0.05348892274866265,0.251751202986526,0.021598139450984762,0.25144309444301294
1.0032957417591262,0.38301151602067063,0.050215330497785315,0.2324239377319079,0.016823362904819665,0.23216325333848442
1.0033428237842565,0.3514583105172215,0.04582956542124106,0.2047530276495091,0.011255677026608584,0.20455993401584627
1.003389905809387,0.3042863356687068,0.04002325205578943,0.16911475512504195,0.005244653266623946,0.16900919766980624
1.0034369878345173,0.2364892670841809,0.03322271396474319,0.12615890065588273,-0.0009056517252125636,0.12615624147004995
1.0034840698596477,0.14805992805189566,0.02588149503796643,0.07745804013496241,-0.006345865355124491,0.07755455123478369
1.003531151884778,0.05937981673678241,0.020567178969964565,0.035632586371168055,-0.009466368705673222,0.03578820385652334
1.0035782339099084,0.016571701488668728,0.01981014424236566,0.012038086514572617,-0.009200826761576072,0.012191756248410651
1.0036253159350388,0.04141534161646615,0.02467940356380089,0.014399178728297872,-0.003528533429733678,0.01445661197336456
1.0036723979601692,0.0978579156313711,0.03255528234975167,0.03595348541122598,0.0042796744855046484,0.03587681711045929
1.0037194799852995,0.14599333246590304,0.04163960457371988,0.06503465797160808,0.012862781565882957,0.06481564599306729
1.00376656201043,0.17300879075255565,0.045957129441881635,0.0922030709843016,0.021964222152841266,0.09184700936868398
1.0038136440355603,0.18229222765708752,0.05044765611801868,0.11374971918924169,0.028011555846532563,0.11331521800140344
1.0038607260606907,0.18262972424027749,0.05313960772413685,0.12736778710133306,0.03420805461040008,0.1268610912092602
1.003907808085821,0.18292620727983336,0.05253990626777166,0.13485525602086357,0.04187875188545583,0.13426618780230706
1.0039548901109514,0.18798821740501145,0.052587996418858605,0.13913083302593265,0.04562135975830046,0.13850699225987465
1.0040019721360818,0.19658928748535154,0.053002139175978194,0.1397247738744464,0.04642754404379201,0.1390935037445704
1.0040490541612122,0.20361099360789395,0.05360086466611739,0.1356935801867525,0.044568537916312795,0.13507669192953986
1.0040961361863425,0.20356945018764083,0.05129612758156376,0.1287855413388881,0.04271436372661406,0.12818129015257154
1.004143218211473,0.19261735903368254,0.045413160613201574,0.11776025800915435,0.03957063783075404,0.11718188926982105
1.0041903002366033,0.1692114287165738,0.03846252219754531,0.09836742477706704,0.0346401983156447,0.09783700829309534
1.0042373822617336,0.13469585530973552,0.030508845439869415,0.07519967777083232,0.028491198189020298,0.07474364842774481
1.004284464286864,0.094068350002802,0.02329113021138115,0.051842634052145065,0.02067980085462556,0.051499544585722166
1.0043315463119944,0.0558705414627791,0.01774019489930407,0.03082107495389939,0.011343125584641615,0.030627991583149567
1.0043786283371248,0.029785725493520713,0.014399743816145475,0.019809015244991575,0.0020067556484459886,0.01977248554607997
1.0044257103622551,0.022326134922130727,0.013533841489400088,0.01684685304795892,-0.005777793288487457,0.016941975031874112
1.0044727923873855,0.03362727707623793,0.014822770109927726,0.01768087969631584,-0.009734336179225107,0.017843017506401437
1.004519874412516,0.057935866130881315,0.017883545483199446,0.0238553638180855,-0.009975962808050323,0.024020978193219925
1.0045669564376463,0.08691312585069338,0.02263723178153187,0.038233159934289905,-0.005960418267174302,0.038328551181415337
1.0046140384627766,0.11302745450084833,0.028053476574450426,0.05542672474865837,0.002397324071267534,0.0553788800701466
1.004661120487907,0.13143773576861661,0.031890127371797375,0.07126698378066398,0.01166983458709957,0.07106678198196129
1.0047082025130374,0.140315951549541,0.03413962234573655,0.0817840112464661,0.021073704953378,0.08143923128581868
1.0047552845381678,0.14016084842095028,0.033417375324970966,0.0846685751900148,0.029568578926000153,0.08420074919138326
1.0048023665632981,0.13271042804166153,0.030647141561513262,0.08028160564993014,0.03497937936195682,0.07973555958437893
1.0048494485884285,0.1199532079956697,0.02765521286353926,0.06958311394397716,0.04044064615326441,0.068953522266444
1.0048965306135589,0.10352759540252561,0.023853425387725363,0.05738407400153901,0.043761980307388766,0.056696977762571994
1.0049436126386893,0.08458770500586026,0.0185109056350739,0.04469505929439128,0.044174574944772914,0.043990119233568784
1.0049906946638196,0.06411017510052013,0.014594569565685497,0.03435472552873721,0.04260866400814293,0.03366433769513241
1.00503777668895,0.043500849939608656,0.011359003610683578,0.022887706523455283,0.039523419209631636,0.022236972015585683
1.0050848587140804,0.02497562650004661,0.00900714719882173,0.013888116903115118,0.03372454236176146,0.013326141686473258
1.0051319407392107,0.011013597455985432,0.007659725945325606,0.011624969459267675,0.026030338488291154,0.011188984530822493
1.0051790227643411,0.003334338693202587,0.007665223529577003,0.009001101837417943,0.01768742479987804,0.008703459490157089
1.0052261047894715,0.0027948227754708652,0.005618390943630765,0.005716764128480125,0.01134388058114631,0.00552534723707622
1.0052731868146019,0.010164673003053454,0.0031438643362426133,0.005314070387151807,0.006068519820823313,0.005211255546577031
1.0053202688397322,0.026566180290056158,0.0023212166932153797,0.008193549268036414,-0.0012710339545766356,0.008213790208975613
1.0053673508648626,0.05291846997433676,0.0037320443255822655,0.011498759854167706,-0.004833389572739681,0.011578618392103526
1.005414432889993,0.08828034555015178,0.008492023874606321,0.017065936640710815,-0.004992123255336298,0.017147736704004032
1.0054615149151234,0.12763762777320273,0.01265412378398937,0.025647230237824777,-0.0027358355619906283,0.025689705713675844
1.0055085969402537,0.16155770115500132,0.015969285522789,0.038076850744054896,0.0033757907076826087,0.038014971581388314
1.0055556789653841,0.18078890709766565,0.01866587604072084,0.05135766337998839,0.012441911549932147,0.051145721117944395
1.0056027609905145,0.18307418566708303,0.01903819474021326,0.06056084021799014,0.02243552677561822,0.06019175140595378
1.0056498430156449,0.1741533504439713,0.01884093184837161,0.06655908741414072,0.02981310518303116,0.0660803516511273
1.0056969250407752,0.16242605985016223,0.017633971494294333,0.07063087442771013,0.03600802018871966,0.07006443377304349
1.0057440070659056,0.15418810481596457,0.015895057181955864,0.07107575192890922,0.0391863415074278,0.07046483788168147
1.005791089091036,0.1523552110015489,0.01368793207274476,0.0660360559428213,0.03944307402172886,0.0654177079175266
1.0058381711161664,0.15691036178882456,0.012499072212548045,0.06130313889977103,0.03896086990322241,0.06068815018504024
1.0058852531412967,0.16538784679386007,0.012984449854869108,0.06307528196508604,0.037926139243385726,0.062476442963856356
1.005932335166427,0.17322460684996496,0.011229157027339173,0.06323184659303546,0.035498924105013166,0.06266819615525121
1.0059794171915575,0.17475929729964576,0.009103130631464321,0.05880087400333982,0.031315771350315956,0.05829657863845805
1.0060264992166879,0.16548577922015562,0.007742340732328749,0.05204155960234529,0.026836036308786775,0.0516027798461356
1.0060735812418182,0.1445721481217929,0.00700357246177287,0.04234591607178599,0.020740266613038287,0.042000718011994724
1.0061206632669486,0.11538472372115638,0.006333608399824931,0.03266210113426135,0.012816962637965973,0.0324447121343692
1.006167745292079,0.08342022676517998,0.0052084359290041,0.0259645785337829,0.004927110498849826,0.02587835229594886
1.0062148273172093,0.053714935068683495,0.005818493463139919,0.01794830890199036,-0.0009312032515806406,0.01796144296311397
1.0062619093423397,0.029620632829972474,0.0066880703109850545,0.006428025048282717,-0.004505052135390159,0.006503016777979425
1.00630899136747,0.012907514843990737,0.008613518939471671,-0.004503164505502606,-0.004101408876457055,-0.004433519541063219
1.0063560733926005,0.004292560353454192,0.011022669630892537,-0.010519166817943732,-0.0010304721759557113,-0.010500336978222833
1.0064031554177308,0.0038095921685766332,0.015016380753292409,-0.007972360122875525,0.0027025738855254054,-0.008016752451654329
1.0064502374428612,0.010924293923755681,0.022000176876905427,0.0013341291502741227,0.010816884995764837,0.0011519084038449803
1.0064973194679916,0.02453035587728399,0.026958664818700365,0.011333716656649779,0.02037917346281642,0.010991379016763468
1.006544401493122,0.042966387475684646,0.03032435685469736,0.020787738978896356,0.029244033731968145,0.020301469320625667
1.0065914835182523,0.06411092062196938,0.030378996856504133,0.03329944681240632,0.03380878272320062,0.03274520063963421
1.0066385655433827,0.08556714248621351,0.031180496692360424,0.049462130528264495,0.034428525303333915,0.04890656747411445
1.006685647568513,0.10493697207975199,0.032071542194306225,0.06485229624100503,0.03261814325064558,0.0643315470006758
1.0067327295936435,0.12014720761669652,0.03225039316536693,0.07640706666955516,0.029783115649071983,0.07593275624766488
1.0067798116187738,0.12974860817624662,0.030734938011498115,0.08294186479002422,0.02631673769573656,0.08252008045048433
1.0068268936439042,0.1331160769266914,0.031307812943010514,0.08436945777741765,0.022153943413000917,0.08400905992986687
1.0068739756690346,0.13051634907150206,0.028824306774859518,0.08386978816652868,0.017873366004234642,0.08357350666965456
1.006921057694165,0.12301693370584733,0.024275756751309874,0.08185258015702256,0.01469162934721742,0.08160495048511347
1.0069681397192953,0.11219272060745543,0.0186010524607163,0.07585112215539112,0.011027282540062137,0.07566096281268597
1.0070152217444257,0.09964098937742749,0.013822957701446044,0.06985230351433948,0.0073845990892633315,0.0697209336138178
1.007062303769556,0.08648287672211809,0.010061379996347661,0.06302251331950957,0.003988280940428525,0.06294737363169836
1.0071093857946865,0.07315337862299943,0.008653680887230585,0.053521194673379444,0.0010929556879787086,0.05349534285725634
1.0071564678198168,0.05967551136841471,0.007657407594509397,0.042771215350936226,-0.001911901261271178,0.0427973412655978
1.0072035498449472,0.046352747241279996,0.00556850506858562,0.029687677967592516,-0.0041510386301161105,0.029753519740193437
1.0072506318700776,0.03458526276589038,0.0047029226759700464,0.01916866027493343,-0.004567844468378863,0.01924300143726677
1.007297713895208,0.02727830692374265,0.0043647702796715745,0.01473006896934623,-0.004770950925648234,0.014808441924413529
1.0073447959203383,0.0280866607277734,0.005009285120077873,0.01711698325886342,-0.004745570948273586,0.01719460701847438
1.0073918779454687,0.03925806445151868,0.008802143103425012,0.028584290137595406,-0.002645780172480284,0.028624829135434748
1.007438959970599,0.059562255279517966,0.013555685177557028,0.043832242766228824,0.0004127632054794048,0.043819118009707454
1.0074860419957294,0.08449757331606145,0.017244916761083386,0.058037587268334905,0.003929350054498611,0.05796402004704121
1.0075331240208598,0.10858230355013457,0.019174836143122997,0.06858033205585247,0.0081781826622215,0.06843622719621609
1.0075802060459902,0.12742598805780986,0.021328146174154152,0.07621925524513734,0.0109909058298614,0.07602965900641168
1.0076272880711206,0.13840784538629322,0.021794427994271847,0.07904744927672683,0.01284241135734376,0.07882859593728347
1.007674370096251,0.14057521646913557,0.021051082785221394,0.0769603579802706,0.014174487411817082,0.07672066432751456
1.0077214521213813,0.1345761316442056,0.020153041058504326,0.07084930100861353,0.013826183150659704,0.07061501110893925
