freq,gls,usurper,pdc_unbiased,shape_periodogram,shift_periodogram
1.0,0.02176245538732735,0.02787859027085519,-0.007335655112181927,0.0006422756062036124,-0.007358673592796139
1.0000470820251304,0.05134779247241603,0.04615438289988317,0.016081221596065367,0.012008440101083461,0.015458259306188623
1.0000941640502607,0.09689124580742478,0.06370801399683555,0.05094334186944231,0.031474042376713175,0.04932640742242618
1.0001412460753911,0.14848755125694818,0.08189172046768865,0.08456655871201842,0.04982989564303085,0.08208141723178107
1.0001883281005215,0.19664060203551523,0.09646395002207794,0.10917973127593883,0.06617908199878807,0.1060019909199292
1.0002354101256519,0.23592916525893703,0.10461491385381332,0.12678225514793529,0.07783122220357229,0.12316887773475163
1.0002824921507822,0.26363730657080775,0.10761263283725826,0.13936052532630389,0.08406418062693675,0.1355493713232242
1.0003295741759126,0.2780607972143743,0.10878953346182876,0.14663287491158739,0.08755069840945139,0.14272179079177064
1.000376656201043,0.27778293516045677,0.10866704761034629,0.14742341655727248,0.08843293006678447,0.14348357450496166
1.0004237382261734,0.2619162710265795,0.10467656785774104,0.139633635428265,0.08726707730201348,0.13570314592242116
1.0004708202513037,0.23107843684954268,0.09603052364423141,0.12167319492364326,0.08334445799452721,0.11782344365798773
1.0005179022764341,0.1884924826566669,0.08477829954222785,0.09811663264576473,0.07754239384344581,0.09442939157291999
1.0005649843015645,0.1401213853463462,0.07609685014254979,0.07552593926328457,0.07199504793800422,0.07202532241819436
1.0006120663266949,0.09311329616242185,0.0706414031959705,0.056936636782797936,0.06600710529818694,0.053676935337572146
1.0006591483518252,0.05338098213176131,0.07006325430984234,0.04656239048066332,0.058722936689562584,0.04363430415777664
1.0007062303769556,0.024158292773911582,0.06945927820252355,0.0379052596807291,0.04976331206869422,0.03540339015268046
1.000753312402086,0.006389706849983347,0.0658790258901955,0.024925530867037873,0.03898296197338713,0.022952508108425456
1.0008003944272164,4.4957735270936574e-05,0.0645229685027202,0.013623927240606612,0.029051658255469716,0.012151049754050758
1.0008474764523467,0.004476680458159687,0.06126687857382234,0.005279248516488982,0.02550247109378996,0.003991280114165364
1.000894558477477,0.016631009383087918,0.0631410168761502,0.00604487589630294,0.027681506952040257,0.004646846660114958
1.0009416405026075,0.030279800796216314,0.07278434583043882,0.01614856324889533,0.035176733470945146,0.014368453112285726
1.0009887225277379,0.04019506929021177,0.08770957486704603,0.031662352407458065,0.04820343986061288,0.02923528760336079
1.0010358045528682,0.045271217739530065,0.10152132306276562,0.049643587368788454,0.0633739584009447,0.04649784702695811
1.0010828865779986,0.04665854735345898,0.1069676192834774,0.06394396252727896,0.07816009269972937,0.0601382639633454
1.001129968603129,0.04557434040645729,0.10766210054478645,0.06951556918541625,0.08924306417858589,0.06522915794841418
1.0011770506282593,0.04281463251624272,0.10125705707397534,0.06676401531502141,0.09489832180487366,0.06221635524526319
1.0012241326533897,0.03911406922799136,0.09101400927654117,0.05756222886158259,0.096573753272402,0.052901195945236415
1.00127121467852,0.035734840091298535,0.07966494800602401,0.04469056838221148,0.09546585259980103,0.04002812903104006
1.0013182967036505,0.034632288517627896,0.07104389386837902,0.03354469161607427,0.09504864836403785,0.02885939194627539
1.0013653787287808,0.03686446430802818,0.07367230734362958,0.03235087082016887,0.09626288260097421,0.02760309989274084
1.0014124607539112,0.040499198873267514,0.08385711888682323,0.04235422606047071,0.09951102921465065,0.03749363706772422
1.0014595427790416,0.04245011553894062,0.09344669324164882,0.05148956578485458,0.10186898775212914,0.046561213720333006
1.001506624804172,0.04142424671447975,0.09887686025900588,0.057489670337512934,0.09972309777733551,0.05268625435271512
1.0015537068293023,0.03772147907862947,0.09830860173251939,0.05838903434484734,0.09298967637399135,0.05389337567439835
1.0016007888544327,0.032149333674356434,0.09385610394116144,0.05286952532393206,0.08042827192652477,0.04893151508218772
1.001647870879563,0.025799799790141527,0.0851944887307655,0.040386054375886556,0.06329631007505904,0.03723331613856094
1.0016949529046935,0.020580986012262138,0.07212213144195852,0.02276083148008517,0.04448390277226202,0.02051662768773705
1.0017420349298238,0.01993155776046648,0.06145845587033741,0.008396000375120035,0.029882272727161256,0.006885676368525955
1.0017891169549542,0.027489951613850306,0.05832607117926392,0.00883020356959996,0.025874634336152634,0.007520332838301304
1.0018361989800846,0.042074300128446054,0.05931414632260232,0.022145335055818467,0.03094085310928328,0.02057208508596531
1.001883281005215,0.05845891480384451,0.06570104374626402,0.04104344236602053,0.041959891568892294,0.038920520819349484
1.0019303630303453,0.07582159493280267,0.07575221293371054,0.05832937685591873,0.05355808084123722,0.05565485931068042
1.0019774450554757,0.09824195100672209,0.08368585761727776,0.07041397317164165,0.06354246629344193,0.06728747504027936
1.002024527080606,0.1303669711588208,0.0825086000280089,0.07896421651578898,0.07007245915654729,0.07555673216882759
1.0020716091057364,0.17464242099810953,0.07632345647141962,0.08832693698111686,0.07364979209942299,0.08478186192343241
1.0021186911308668,0.22917237164395338,0.08042161973282663,0.11355266104308831,0.07725186511508249,0.10992226196946886
1.0021657731559972,0.2864808872447173,0.09123874760422725,0.14880372324738836,0.0819666214990749,0.14510739628589442
1.0022128551811276,0.335488571803669,0.101795834748902,0.17945522269565434,0.08618420754344625,0.17573712611731826
1.002259937206258,0.3667004160945303,0.10874970042619006,0.20044309409803335,0.08804240571360811,0.19676437582575532
1.0023070192313883,0.37630521047742305,0.11117334092188945,0.20989430295355302,0.08680082961871415,0.20629961198322985
1.0023541012565187,0.3658732131217113,0.10885533750100235,0.20800353236518512,0.0825404350291052,0.2045301635294831
1.002401183281649,0.3393357840705059,0.10224336056618799,0.19716291122807472,0.07510175925876869,0.1938866412461629
1.0024482653067794,0.30043566038503033,0.09263173894112216,0.1783931936762516,0.06425819348810605,0.17544430997202623
1.0024953473319098,0.25183659939415354,0.080527954652122,0.15384153094853617,0.049914762254442024,0.15141242740038685
1.0025424293570402,0.1956066522565673,0.06480340215431886,0.12081929242955049,0.034508743292313224,0.11904016540112679
1.0025895113821706,0.13475970805500284,0.043395012160812256,0.07564140824241966,0.017859549304187313,0.07466742559923803
1.002636593407301,0.07582916802294695,0.02182407952085997,0.025728531183742454,0.004879019985196936,0.025451148704172036
1.0026836754324313,0.03145358980808763,0.016806347889507543,-0.0040036080406334615,0.0012632017173968132,-0.004062074779364446
1.0027307574575617,0.01779891286180085,0.028438356713473927,-0.006351274616742859,0.011667583272711777,-0.006930482051264163
1.002777839482692,0.04358985242398123,0.03523058511613271,0.006591376950054447,0.03059426301942772,0.0050467616481707925
1.0028249215078224,0.1037077589167159,0.04590809924660568,0.04281328660270074,0.04960488525112946,0.04032036982789163
1.0028720035329528,0.18101238562213362,0.06598788879708829,0.0979436666785688,0.06678010304517001,0.09471828064083192
1.0029190855580832,0.25636899888384335,0.09099022685920183,0.15380629462607742,0.07933206537782066,0.15022605988196722
1.0029661675832136,0.31832235074100634,0.11437425998498987,0.19704252226634572,0.08186932545485907,0.193543041339446
1.003013249608344,0.36361141655314383,0.12626364084077943,0.228525784613192,0.0827977292730062,0.22513728881992173
1.0030603316334743,0.39341420767750745,0.13360808283494774,0.24979870354304085,0.0834319487313878,0.2464934483883757
1.0031074136586047,0.4102870696014962,0.13630944169100823,0.26258314989231946,0.08212876221581417,0.2593736553073607
1.003154495683735,0.41662904201390033,0.13608040285297665,0.266777273312063,0.07957724230858647,0.2636527123845425
1.0032015777088654,0.41405085665469693,0.1330601478824869,0.26326150551395927,0.07529694640711695,0.2602343280596063
1.0032486597339958,0.4030953535584088,0.12724064371967833,0.251751202986526,0.06915769287526444,0.2488541917778891
1.0032957417591262,0.38301151602067063,0.11851031428749895,0.2324239377319079,0.0612306070507159,0.22971706461554253
1.0033428237842565,0.3514583105172215,0.10640206000324486,0.2047530276495091,0.051262756680809124,0.20233986072894508
1.003389905809387,0.3042863356687068,0.0906631822804104,0.16911475512504195,0.03952052935243425,0.1671296211089383
1.0034369878345173,0.2364892670841809,0.07198482087589972,0.12615890065588273,0.02648719193923019,0.12474398330795389
1.0034840698596477,0.14805992805189566,0.05127699641245054,0.07745804013496241,0.013522500740505443,0.07669351036986488
1.003531151884778,0.05937981673678241,0.035511763342772625,0.035632586371168055,0.004206517072422174,0.035376696991707354
1.0035782339099084,0.016571701488668728,0.030911261750674345,0.012038086514572617,0.0025520986645324955,0.01189456428999081
1.0036253159350388,0.04141534161646615,0.041580023167730254,0.014399178728297872,0.011836638916351465,0.013786787736630345
1.0036723979601692,0.0978579156313711,0.059954516841913365,0.03595348541122598,0.027534330372159684,0.03453888044435223
1.0037194799852995,0.14599333246590304,0.08133135331151285,0.06503465797160808,0.04733465679672709,0.0626565063614669
1.00376656201043,0.17300879075255565,0.09888455111257195,0.0922030709843016,0.06679772487200025,0.08896609623534851
1.0038136440355603,0.18229222765708752,0.11286530288905026,0.11374971918924169,0.08146779625467901,0.10994764676419594
1.0038607260606907,0.18262972424027749,0.12163101109914692,0.12736778710133306,0.09469910222047885,0.1231022872645136
1.003907808085821,0.18292620727983336,0.12517626737616347,0.13485525602086357,0.10610233777923361,0.13021308514617536
1.0039548901109514,0.18798821740501145,0.12673617387708708,0.13913083302593265,0.11148627147056343,0.1343288710820234
1.0040019721360818,0.19658928748535154,0.12566456336445556,0.1397247738744464,0.11216361588894963,0.13490379323379698
1.0040490541612122,0.20361099360789395,0.12451126361395648,0.1356935801867525,0.10907158961355398,0.13095194427852375
1.0040961361863425,0.20356945018764083,0.11975112885962828,0.1287855413388881,0.10392874330862897,0.12418458523626622
1.004143218211473,0.19261735903368254,0.10821451778031765,0.11776025800915435,0.09518745401934768,0.11342947674447038
1.0041903002366033,0.1692114287165738,0.09246989859163186,0.09836742477706704,0.08375788984497151,0.09441874299693477
1.0042373822617336,0.13469585530973552,0.07437986114219944,0.07519967777083232,0.07004803503455126,0.07178586702646911
1.004284464286864,0.094068350002802,0.05770864944769235,0.051842634052145065,0.053933973833385815,0.049146334917395895
1.0043315463119944,0.0558705414627791,0.04372909993882538,0.03082107495389939,0.037048690434278955,0.028941114459068266
1.0043786283371248,0.029785725493520713,0.0354420190927485,0.019809015244991575,0.022425906947577373,0.01866137870795265
1.0044257103622551,0.022326134922130727,0.03280213298614588,0.01684685304795892,0.011882056152496457,0.016229329888242564
1.0044727923873855,0.03362727707623793,0.034803100018361594,0.01768087969631584,0.007550404606794714,0.017279435002959996
1.004519874412516,0.057935866130881315,0.04076523126303048,0.0238553638180855,0.009006412182334464,0.02337354598502464
1.0045669564376463,0.08691312585069338,0.05089768767918004,0.038233159934289905,0.016677919167962536,0.037353023361387655
1.0046140384627766,0.11302745450084833,0.06340038153766364,0.05542672474865837,0.029775062495095792,0.053889799306401205
1.004661120487907,0.13143773576861661,0.07422248274661397,0.07126698378066398,0.04413511314263871,0.06904079408532676
1.0047082025130374,0.140315951549541,0.0822200488375274,0.0817840112464661,0.05758674269063191,0.07894304468711376
1.0047552845381678,0.14016084842095028,0.08517776601951439,0.0846685751900148,0.06846496022080029,0.08134381493227283
1.0048023665632981,0.13271042804166153,0.08294003022985856,0.08028160564993014,0.07502218973779055,0.07665690394419719
1.0048494485884285,0.1199532079956697,0.07770835236830126,0.06958311394397716,0.08003809718406422,0.06570740592554421
1.0048965306135589,0.10352759540252561,0.06986060191288791,0.05738407400153901,0.08112386778764089,0.0534259152175874
1.0049436126386893,0.08458770500586026,0.05971744053142804,0.04469505929439128,0.07882472645718562,0.0408117810707903
1.0049906946638196,0.06411017510052013,0.05023524551591908,0.03435472552873721,0.07416269762767423,0.030671625386161746
1.00503777668895,0.043500849939608656,0.04139575667235921,0.022887706523455283,0.06709790434238948,0.019530389589785317
1.0050848587140804,0.02497562650004661,0.03339968797041775,0.013888116903115118,0.05787657937693551,0.010978763423027052
1.0051319407392107,0.011013597455985432,0.029118739449670663,0.011624969459267675,0.048294212637171485,0.00919246018740232
1.0051790227643411,0.003334338693202587,0.02467802555969487,0.009001101837417943,0.037752268380817536,0.007096233672088278
1.0052261047894715,0.0027948227754708652,0.018739263994332234,0.005716764128480125,0.02772538281523533,0.004316815152473577
1.0052731868146019,0.010164673003053454,0.013249240781348232,0.005314070387151807,0.017470266788994906,0.004429399086195331
1.0053202688397322,0.026566180290056158,0.010002515386955652,0.008193549268036414,0.00804328396364599,0.0077789401049714706
1.0053673508648626,0.05291846997433676,0.009720305353702219,0.011498759854167706,0.0029708438711848134,0.011334872353480237
1.005414432889993,0.08828034555015178,0.013613901462138011,0.017065936640710815,0.0009059055114438458,0.01699880998732978
1.0054615149151234,0.12763762777320273,0.01823668154501979,0.025647230237824777,0.001477929526486431,0.02554056304237144
1.0055085969402537,0.16155770115500132,0.023955690184303192,0.038076850744054896,0.007158968451828311,0.0376704147246119
1.0055556789653841,0.18078890709766565,0.02962832755230148,0.05135766337998839,0.01708329493492071,0.05044432236595453
1.0056027609905145,0.18307418566708303,0.03352680013321346,0.06056084021799014,0.028825330570085413,0.05906694935419785
1.0056498430156449,0.1741533504439713,0.035777972214560735,0.06655908741414072,0.03701256019012328,0.06466982014598742
1.0056969250407752,0.16242605985016223,0.036750484118833956,0.07063087442771013,0.04333258640535862,0.06844229486688788
1.0057440070659056,0.15418810481596457,0.03643339927829148,0.07107575192890922,0.04671331580426234,0.06872868004435007
1.005791089091036,0.1523552110015489,0.0344246975192144,0.0660360559428213,0.04692689137363524,0.06367740597650592
1.0058381711161664,0.15691036178882456,0.033055144917080746,0.06130313889977103,0.04607949517501714,0.058983286221850235
1.0058852531412967,0.16538784679386007,0.0349984130792962,0.06307528196508604,0.045382186347321996,0.06078880222546389
1.005932335166427,0.17322460684996496,0.0342824568796005,0.06323184659303546,0.04335874123703598,0.06104123044591283
1.0059794171915575,0.17475929729964576,0.03160090606173384,0.05880087400333982,0.039256742562240855,0.05680584271024567
1.0060264992166879,0.16548577922015562,0.028225162541821062,0.05204155960234529,0.03373354607406008,0.050314486610445436
1.0060735812418182,0.1445721481217929,0.023983607965741095,0.04234591607178599,0.02639075150416466,0.0409828179933987
1.0061206632669486,0.11538472372115638,0.020674645333279517,0.03266210113426135,0.017652882843936384,0.031739290769938415
1.006167745292079,0.08342022676517998,0.016990996566265817,0.0259645785337829,0.009905409606174604,0.025435296012379052
1.0062148273172093,0.053714935068683495,0.015161221598724519,0.01794830890199036,0.004485315711972296,0.017700301497033173
1.0062619093423397,0.029620632829972474,0.013129082539240344,0.006428025048282717,0.0014986417176485526,0.006344529066442923
1.00630899136747,0.012907514843990737,0.012103782879399417,-0.004503164505502606,0.002570614995161123,-0.004626763958253955
1.0063560733926005,0.004292560353454192,0.012671838556183255,-0.010519166817943732,0.006873575187007699,-0.010851754031301654
1.0064031554177308,0.0038095921685766332,0.015825898080668702,-0.007972360122875525,0.012467285546897633,-0.008589906884648842
1.0064502374428612,0.010924293923755681,0.02404543221064076,0.0013341291502741227,0.023400249018237108,0.00015558711206937285
1.0064973194679916,0.02453035587728399,0.032139679356040965,0.011333716656649779,0.03540390972132913,0.009545037406128111
1.006544401493122,0.042966387475684646,0.03892500806373199,0.020787738978896356,0.047167597093519344,0.01841103442830372
1.0065914835182523,0.06411092062196938,0.044314025774391336,0.03329944681240632,0.054207366524880264,0.030580115613811847
1.0066385655433827,0.08556714248621351,0.04984364689056994,0.049462130528264495,0.05693833240095221,0.04662136982497472
1.006685647568513,0.10493697207975199,0.05463565216744149,0.06485229624100503,0.05680515909674254,0.06203055692616795
1.0067327295936435,0.12014720761669652,0.057235669546878754,0.07640706666955516,0.05446771678792144,0.07370339321014646
1.0067798116187738,0.12974860817624662,0.05792816947298989,0.08294186479002422,0.0498088408886337,0.0804567203057088
1.0068268936439042,0.1331160769266914,0.05842580542807706,0.08436945777741765,0.043481865673622624,0.0821764114350263
1.0068739756690346,0.13051634907150206,0.055314541261257545,0.08386978816652868,0.036185667785904915,0.08201652742845968
1.006921057694165,0.12301693370584733,0.04860617026559063,0.08185258015702256,0.02999511488738819,0.08029182152974394
1.0069681397192953,0.11219272060745543,0.040133186701200994,0.07585112215539112,0.023485162232937565,0.0746049716110145
1.0070152217444257,0.09964098937742749,0.03248500761435481,0.06985230351433948,0.01701619523745182,0.06892461239214304
1.007062303769556,0.08648287672211809,0.026126715766696954,0.06302251331950957,0.011519009907498419,0.06237126143900459
1.0071093857946865,0.07315337862299943,0.022105064276507342,0.053521194673379444,0.006797019970344698,0.05311448172847244
1.0071564678198168,0.05967551136841471,0.019549162475061752,0.042771215350936226,0.003001768483983332,0.04256681623910635
1.0072035498449472,0.046352747241279996,0.015374421754392204,0.029687677967592516,-0.00010934730426665943,0.029655632080806307
1.0072506318700776,0.03458526276589038,0.013014819112792017,0.01916866027493343,-0.0009379535839253854,0.019191566262711145
1.007297713895208,0.02727830692374265,0.012489964697263167,0.01473006896934623,-0.0007177400868011234,0.014747521521024466
1.0073447959203383,0.0280866607277734,0.015574500488005039,0.01711698325886342,0.0012720330677945361,0.01703139289832606
1.0073918779454687,0.03925806445151868,0.024236375520258775,0.028584290137595406,0.006655320979959527,0.028214449127941545
1.007438959970599,0.059562255279517966,0.0351394403600281,0.043832242766228824,0.013341164564472773,0.04311162175065018
1.0074860419957294,0.08449757331606145,0.04499572553287192,0.058037587268334905,0.020351589832693653,0.05695763977802643
1.0075331240208598,0.10858230355013457,0.05221371581294108,0.06858033205585247,0.028120970308244914,0.06711578668368179
1.0075802060459902,0.12742598805780986,0.05721000727105769,0.07621925524513734,0.03358190134752017,0.0744905010372467
1.0076272880711206,0.13840784538629322,0.0578645512907536,0.07904744927672683,0.03665361044596252,0.0771729321733372
1.007674370096251,0.14057521646913557,0.05485497150880565,0.0769603579802706,0.038674294623194584,0.0749910147614398
1.0077214521213813,0.1345761316442056,0.05061027350425201,0.07084930100861353,0.03808172832193648,0.06890852736687915
1.0077685341465117,0.12269802495893224,0.044009861544484545,0.062425783036096825,0.03503063089758483,0.06063230307539463
