freq,gls,usurper,pdc_unbiased,shape_periodogram,shift_periodogram
1.0,0.02176245538732735,0.021635116926399547,-0.007335655112181927,0.00280943557420534,-0.007414657921232312
1.0000470820251304,0.05134779247241603,0.02860174747724997,0.016081221596065367,0.006086096534148402,0.01589683134674266
1.0000941640502607,0.09689124580742478,0.035229748311080035,0.05094334186944231,0.014527726724367447,0.05050397110793105
1.0001412460753911,0.14848755125694818,0.0417488455172619,0.08456655871201842,0.024863868709975902,0.08383741341300543
1.0001883281005215,0.19664060203551523,0.04796750607937444,0.10917973127593883,0.03729507028656252,0.1081371626736875
1.0002354101256519,0.23592916525893703,0.0526351482738368,0.12678225514793529,0.046433957326391585,0.12553729423718493
1.0002824921507822,0.26363730657080775,0.05356551230302684,0.13936052532630389,0.050944886232547545,0.13803164399045548
1.0003295741759126,0.2780607972143743,0.05441274816130388,0.14663287491158739,0.053468548963085706,0.14526179153700045
1.000376656201043,0.27778293516045677,0.05530845270840129,0.14742341655727248,0.05455489140463756,0.14603123881548946
1.0004237382261734,0.2619162710265795,0.05343502727489008,0.139633635428265,0.05463198235737655,0.1382267804195481
1.0004708202513037,0.23107843684954268,0.04901883492429869,0.12167319492364326,0.052599837399121725,0.12028226989613604
1.0005179022764341,0.1884924826566669,0.043189288995060214,0.09811663264576473,0.04934771187368207,0.09677004272106443
1.0005649843015645,0.1401213853463462,0.039025215313990974,0.07552593926328457,0.04586618930413021,0.07424222842588844
1.0006120663266949,0.09311329616242185,0.03689086684544152,0.056936636782797936,0.04144389351446442,0.055754580800740874
1.0006591483518252,0.05338098213176131,0.03770036572165412,0.04656239048066332,0.035145228638716164,0.045546660265209024
1.0007062303769556,0.024158292773911582,0.03809905850654378,0.0379052596807291,0.02744871098449663,0.03710247010381241
1.000753312402086,0.006389706849983347,0.03842762666101672,0.024925530867037873,0.01823077868486487,0.024386576143852465
1.0008003944272164,4.4957735270936574e-05,0.04035070512892728,0.013623927240606612,0.009734402063693713,0.01333430023838662
1.0008474764523467,0.004476680458159687,0.04019104728538138,0.005279248516488982,0.007943393268804257,0.005044992380451804
1.000894558477477,0.016631009383087918,0.04355696428158568,0.00604487589630294,0.011327656108835502,0.0057115927502129306
1.0009416405026075,0.030279800796216314,0.05171621550848439,0.01614856324889533,0.019042189576215358,0.01558813737410521
1.0009887225277379,0.04019506929021177,0.06218746974760357,0.031662352407458065,0.0324789817702653,0.03071711863694051
1.0010358045528682,0.045271217739530065,0.07092620663152653,0.049643587368788454,0.048860363571474476,0.04825696673017802
1.0010828865779986,0.04665854735345898,0.07478365157903188,0.06394396252727896,0.065157522423821,0.06215522258699169
1.001129968603129,0.04557434040645729,0.07717061025208807,0.06951556918541625,0.0781117934479266,0.06742402241192846
1.0011770506282593,0.04281463251624272,0.07551791459583522,0.06676401531502141,0.08558221219389013,0.06448591706917278
1.0012241326533897,0.03911406922799136,0.06973986966501627,0.05756222886158259,0.08833254035939045,0.05518324107783987
1.00127121467852,0.035734840091298535,0.06167659191566641,0.04469056838221148,0.08777599497236854,0.04227613043626301
1.0013182967036505,0.034632288517627896,0.054092323075327235,0.03354469161607427,0.08662871800688468,0.031119225682768502
1.0013653787287808,0.03686446430802818,0.05207181288868812,0.03235087082016887,0.08547727893767287,0.029951883221140764
1.0014124607539112,0.040499198873267514,0.05492809984258927,0.04235422606047071,0.08565480287954469,0.03998570602386164
1.0014595427790416,0.04245011553894062,0.05878739286102771,0.05148956578485458,0.08555089314522459,0.04915638830809849
1.001506624804172,0.04142424671447975,0.05973457432157733,0.057489670337512934,0.08054240611289498,0.05530140011732371
1.0015537068293023,0.03772147907862947,0.058489190825011375,0.05838903434484734,0.07148279708924288,0.056429065718345196
1.0016007888544327,0.032149333674356434,0.05548763728663408,0.05286952532393206,0.05837515460163432,0.05123487103319577
1.001647870879563,0.025799799790141527,0.05122732594216033,0.040386054375886556,0.041522424707805414,0.03919183829897084
1.0016949529046935,0.020580986012262138,0.043483560658960176,0.02276083148008517,0.02449693337510744,0.022042267122778233
1.0017420349298238,0.01993155776046648,0.03856489651968222,0.008396000375120035,0.011353097452557526,0.00806113890608092
1.0017891169549542,0.027489951613850306,0.038212497649729144,0.00883020356959996,0.008637786392636265,0.008574314981816607
1.0018361989800846,0.042074300128446054,0.03856984635491083,0.022145335055818467,0.012996135375449807,0.0217581391084836
1.001883281005215,0.05845891480384451,0.04294684483202118,0.04104344236602053,0.022597863158519162,0.04037738184869422
1.0019303630303453,0.07582159493280267,0.04944671446166636,0.05832937685591873,0.0333458458575485,0.057366592241981776
1.0019774450554757,0.09824195100672209,0.05440334472000136,0.07041397317164165,0.045053843278259405,0.06914667940510039
1.002024527080606,0.1303669711588208,0.05217020926916451,0.07896421651578898,0.05427581308266459,0.07747234067933305
1.0020716091057364,0.17464242099810953,0.046226883797982884,0.08832693698111686,0.06044020684802291,0.08670047811465652
1.0021186911308668,0.22917237164395338,0.04674058499110025,0.11355266104308831,0.06519587928176485,0.11187037370610656
1.0021657731559972,0.2864808872447173,0.051400386782055205,0.14880372324738836,0.06986591102760242,0.1471177689275475
1.0022128551811276,0.335488571803669,0.05635198399366272,0.17945522269565434,0.0739537688528987,0.1777933431411666
1.002259937206258,0.3667004160945303,0.059542505680019446,0.20044309409803335,0.07623452519303359,0.19881997305275187
1.0023070192313883,0.37630521047742305,0.06053957334682416,0.20989430295355302,0.07616743748290702,0.20830527496534929
1.0023541012565187,0.3658732131217113,0.059276751561120146,0.20800353236518512,0.07386432031145564,0.20643673477111746
1.002401183281649,0.3393357840705059,0.05750234027521494,0.19716291122807472,0.06926502985595864,0.19562507126134002
1.0024482653067794,0.30043566038503033,0.05535699244959149,0.1783931936762516,0.06106784763436241,0.17693809421124368
1.0024953473319098,0.25183659939415354,0.05131935598160827,0.15384153094853617,0.04827281964071942,0.15258951311160426
1.0025424293570402,0.1956066522565673,0.04314121681213217,0.12081929242955049,0.03223744035047106,0.11990800412101517
1.0025895113821706,0.13475970805500284,0.03263587684542871,0.07564140824241966,0.014758948867497993,0.07518971918532122
1.002636593407301,0.07582916802294695,0.023878481902570796,0.025728531183742454,0.001274820942476507,0.025680343844954663
1.0026836754324313,0.03145358980808763,0.023532302567506887,-0.0040036080406334615,-0.0014151398686098663,-0.0039605409092053675
1.0027307574575617,0.01779891286180085,0.030628781227083793,-0.006351274616742859,0.0094486609189071,-0.006625004674440478
1.002777839482692,0.04358985242398123,0.031093246759320778,0.006591376950054447,0.029494836127518544,0.005729028649655837
1.0028249215078224,0.1037077589167159,0.03430964734060186,0.04281328660270074,0.04528936449664362,0.041517364298101135
1.0028720035329528,0.18101238562213362,0.04404542606117932,0.0979436666785688,0.05580815031049359,0.0964429896974673
1.0029190855580832,0.25636899888384335,0.05870940591073644,0.15380629462607742,0.06034449330180369,0.15231102013354694
1.0029661675832136,0.31832235074100634,0.07145160638676108,0.19704252226634572,0.058864883798242194,0.19566577488872128
1.003013249608344,0.36361141655314383,0.0775404069837598,0.228525784613192,0.05842069147996203,0.22722482614043185
1.0030603316334743,0.39341420767750745,0.08014378618143474,0.24979870354304085,0.05717930142646216,0.24856192214690823
1.0031074136586047,0.4102870696014962,0.08011035585468686,0.26258314989231946,0.05468463693401808,0.2614062781316759
1.003154495683735,0.41662904201390033,0.07884912145888734,0.266777273312063,0.05152299920009088,0.2656504382213504
1.0032015777088654,0.41405085665469693,0.07626723246598736,0.26326150551395927,0.047415518060118615,0.2621863996507331
1.0032486597339958,0.4030953535584088,0.07235092636171535,0.251751202986526,0.04209895491893976,0.2507428449882855
1.0032957417591262,0.38301151602067063,0.06700945443999501,0.2324239377319079,0.03562580072002575,0.23151064573768412
1.0033428237842565,0.3514583105172215,0.060084818986718656,0.2047530276495091,0.02790366310405631,0.2039802906306893
1.003389905809387,0.3042863356687068,0.0513917014694141,0.16911475512504195,0.019410851647886435,0.1685321481983791
1.0034369878345173,0.2364892670841809,0.04134895890660217,0.12615890065588273,0.010330083169809238,0.12581769580621255
1.0034840698596477,0.14805992805189566,0.03078743156463274,0.07745804013496241,0.0014462920645693228,0.07738333391497433
1.003531151884778,0.05937981673678241,0.023815964815191003,0.035632586371168055,-0.004714580348382018,0.03575531373901488
1.0035782339099084,0.016571701488668728,0.023945255159668898,0.012038086514572617,-0.005482083676676345,0.012193322316423711
1.0036253159350388,0.04141534161646615,0.032999608809079914,0.014399178728297872,0.002252397739576658,0.014327251972017051
1.0036723979601692,0.0978579156313711,0.04709840431138059,0.03595348541122598,0.01646754539151908,0.03546255453362012
1.0037194799852995,0.14599333246590304,0.0636808319175043,0.06503465797160808,0.03328862275822343,0.06407546824557676
1.00376656201043,0.17300879075255565,0.07555643700186296,0.0922030709843016,0.05033508443202584,0.09082541796461438
1.0038136440355603,0.18229222765708752,0.08411390274201286,0.11374971918924169,0.06133194251588177,0.11215174725656857
1.0038607260606907,0.18262972424027749,0.08888945001282748,0.12736778710133306,0.069616261986494,0.12562802158288958
1.003907808085821,0.18292620727983336,0.08957186264499985,0.13485525602086357,0.07850142764794356,0.13296860266123978
1.0039548901109514,0.18798821740501145,0.09013822564842706,0.13913083302593265,0.08373416971971584,0.13716732374317905
1.0040019721360818,0.19658928748535154,0.08917395699438882,0.1397247738744464,0.08569115048916554,0.1377303840350398
1.0040490541612122,0.20361099360789395,0.08660776394644432,0.1356935801867525,0.08417861533023512,0.1337088433623044
1.0040961361863425,0.20356945018764083,0.08034245600612362,0.1287855413388881,0.08150895322971666,0.12682224465056907
1.004143218211473,0.19261735903368254,0.07049883011335638,0.11776025800915435,0.0768957932667256,0.11584724937372326
1.0041903002366033,0.1692114287165738,0.05894714968998316,0.09836742477706704,0.06842242624301195,0.09657854831529737
1.0042373822617336,0.13469585530973552,0.046338156562354606,0.07519967777083232,0.057045815526590216,0.07363346145916366
1.004284464286864,0.094068350002802,0.03464906969007061,0.051842634052145065,0.04352751796931861,0.05060115700031542
1.0043315463119944,0.0558705414627791,0.024834710090884643,0.03082107495389939,0.02822958505123579,0.029995913517740818
1.0043786283371248,0.029785725493520713,0.019007201099091427,0.019809015244991575,0.013585248259887607,0.019405505460403174
1.0044257103622551,0.022326134922130727,0.016881296832475506,0.01684685304795892,0.0019526340433115338,0.016782642304185295
1.0044727923873855,0.03362727707623793,0.018183087433357004,0.01768087969631584,-0.004270828585075931,0.01779825927710292
1.004519874412516,0.057935866130881315,0.02227932641457337,0.0238553638180855,-0.004995373445657826,0.023991356411101197
1.0045669564376463,0.08691312585069338,0.02902496225652014,0.038233159934289905,0.000710097018143381,0.03819614986988813
1.0046140384627766,0.11302745450084833,0.03697481746573848,0.05542672474865837,0.012172304055942152,0.05505303858817268
1.004661120487907,0.13143773576861661,0.04414971065613552,0.07126698378066398,0.0256895015452053,0.07051464436108672
1.0047082025130374,0.140315951549541,0.04966285030294132,0.0817840112464661,0.03978637034187102,0.08066135654496923
1.0047552845381678,0.14016084842095028,0.05069584988984557,0.0846685751900148,0.051832874393098166,0.08324478040504636
1.0048023665632981,0.13271042804166153,0.04851803767672192,0.08028160564993014,0.05995474620954516,0.07865232529425342
1.0048494485884285,0.1199532079956697,0.04483709117164658,0.06958311394397716,0.0669253862555246,0.06776245214859579
1.0048965306135589,0.10352759540252561,0.040652788694464335,0.05738407400153901,0.07074612213669783,0.05544019705682566
1.0049436126386893,0.08458770500586026,0.033964517314385906,0.04469505929439128,0.07073699681801886,0.042721232119950915
1.0049906946638196,0.06411017510052013,0.02910128249669327,0.03435472552873721,0.06740204462872351,0.032447039685867804
1.00503777668895,0.043500849939608656,0.02415723690184252,0.022887706523455283,0.06181697734604339,0.021112818752881134
1.0050848587140804,0.02497562650004661,0.019625802127433006,0.013888116903115118,0.052955809107760876,0.012352122838496397
1.0051319407392107,0.011013597455985432,0.016971267272653263,0.011624969459267675,0.042035913840965326,0.010400795258032785
1.0051790227643411,0.003334338693202587,0.015770248716355264,0.009001101837417943,0.030169004996706793,0.008119270572845168
1.0052261047894715,0.0027948227754708652,0.011386530534604143,0.005716764128480125,0.01893067845467496,0.0051619662690360665
1.0052731868146019,0.010164673003053454,0.007291782742458875,0.005314070387151807,0.00945552245251116,0.005035670692415768
1.0053202688397322,0.026566180290056158,0.0057372526822150015,0.008193549268036414,-0.00012884237949632512,0.008193814477194658
1.0053673508648626,0.05291846997433676,0.006309622788867928,0.011498759854167706,-0.00531103948201879,0.011649211865342231
1.005414432889993,0.08828034555015178,0.009221793231228391,0.017065936640710815,-0.006333623438320959,0.017244030711448317
1.0054615149151234,0.12763762777320273,0.012413926392770886,0.025647230237824777,-0.004090310790468351,0.02575592859648267
1.0055085969402537,0.16155770115500132,0.015066078224122145,0.038076850744054896,0.0029662644840737257,0.03797426366095287
1.0055556789653841,0.18078890709766565,0.017950649544726482,0.05135766337998839,0.013217648422580925,0.05095540935614744
1.0056027609905145,0.18307418566708303,0.01927579450447908,0.06056084021799014,0.024265092369985256,0.059847250599860485
1.0056498430156449,0.1741533504439713,0.02023384596118579,0.06655908741414072,0.03333844143568395,0.06559904013987737
1.0056969250407752,0.16242605985016223,0.02014468415147596,0.07063087442771013,0.04107716174721212,0.06946741222363825
1.0057440070659056,0.15418810481596457,0.018656001177917676,0.07107575192890922,0.04472202292400566,0.06981762564232326
1.005791089091036,0.1523552110015489,0.01607233363005517,0.0660360559428213,0.044874474606340975,0.0647697454755409
1.0058381711161664,0.15691036178882456,0.014975730746667276,0.06130313889977103,0.044225231186696724,0.060050097974178554
1.0058852531412967,0.16538784679386007,0.015566289972990739,0.06307528196508604,0.042697635805880416,0.06186396715256
1.005932335166427,0.17322460684996496,0.014385823538240458,0.06323184659303546,0.03890415221056744,0.062121385016485904
1.0059794171915575,0.17475929729964576,0.012140579742732676,0.05880087400333982,0.03312904886451226,0.057844121970463326
1.0060264992166879,0.16548577922015562,0.010218256966773084,0.05204155960234529,0.02717667105917728,0.05124711935914333
1.0060735812418182,0.1445721481217929,0.008732789443246694,0.04234591607178599,0.020215902596818453,0.04174706940679401
1.0061206632669486,0.11538472372115638,0.007394500775006381,0.03266210113426135,0.012435884076464204,0.03228775502031631
1.006167745292079,0.08342022676517998,0.006158608295921818,0.0259645785337829,0.00557705294353172,0.025791051790149584
1.0062148273172093,0.053714935068683495,0.006873430464363525,0.01794830890199036,0.001090100179436706,0.017908807933205845
1.0062619093423397,0.029620632829972474,0.008027165186998685,0.006428025048282717,-0.0012870197296144335,0.006462898901198784
1.00630899136747,0.012907514843990737,0.010115112079997334,-0.004503164505502606,-0.00042410895932097506,-0.004488845604883154
1.0063560733926005,0.004292560353454192,0.012936072598819917,-0.010519166817943732,0.0025195597466185536,-0.010588336133385832
1.0064031554177308,0.0038095921685766332,0.017768338344001152,-0.007972360122875525,0.005789418908198269,-0.008138287152932872
1.0064502374428612,0.010924293923755681,0.026294481709467306,0.0013341291502741227,0.014283909515468861,0.000916163882059511
1.0064973194679916,0.02453035587728399,0.032847489145636996,0.011333716656649779,0.02396045654731908,0.010631738497961231
1.006544401493122,0.042966387475684646,0.03775028079788019,0.020787738978896356,0.033109173080786175,0.01982260967369749
1.0065914835182523,0.06411092062196938,0.039487987417003045,0.03329944681240632,0.03905818513102028,0.03216999976172331
1.0066385655433827,0.08556714248621351,0.04241105313634497,0.049462130528264495,0.042430202674366195,0.048248684193209455
1.006685647568513,0.10493697207975199,0.04428686743586616,0.06485229624100503,0.04304806700864274,0.0636330187804915
1.0067327295936435,0.12014720761669652,0.044457299173773356,0.07640706666955516,0.04183532122925352,0.07522785563900647
1.0067798116187738,0.12974860817624662,0.04195875995250452,0.08294186479002422,0.03924440103160946,0.08183390441612977
1.0068268936439042,0.1331160769266914,0.04071597317594177,0.08436945777741765,0.03493220888549639,0.08337394634479205
1.0068739756690346,0.13051634907150206,0.036257038534542256,0.08386978816652868,0.03065564837763346,0.08298627117565967
1.006921057694165,0.12301693370584733,0.029657904671743084,0.08185258015702256,0.0256716295804847,0.0811015217669472
1.0069681397192953,0.11219272060745543,0.021889696528760567,0.07585112215539112,0.019365378748886716,0.07527176531849317
1.0070152217444257,0.09964098937742749,0.014836478265224802,0.06985230351433948,0.01325320605390013,0.06944412539299281
1.007062303769556,0.08648287672211809,0.009089853501226557,0.06302251331950957,0.007971150243022758,0.06276608135923946
1.0071093857946865,0.07315337862299943,0.005915387008255734,0.053521194673379444,0.0035138639416685174,0.05339645976027092
1.0071564678198168,0.05967551136841471,0.0032961332296827725,0.042771215350936226,-0.0007426637155278326,0.04277463449625055
1.0072035498449472,0.046352747241279996,0.00045039566405277666,0.029687677967592516,-0.0037978823713048387,0.02978607757177687
1.0072506318700776,0.03458526276589038,-0.0009444441746384103,0.01916866027493343,-0.00505349499433755,0.019308341746535604
1.007297713895208,0.02727830692374265,-0.0008813449517767094,0.01473006896934623,-0.005628046076948058,0.01488845520570222
1.0073447959203383,0.0280866607277734,0.00111074945387031,0.01711698325886342,-0.004502133400961156,0.01724137718644341
1.0073918779454687,0.03925806445151868,0.006904765930307019,0.028584290137595406,-0.00019268899539675915,0.02857771363641574
1.007438959970599,0.059562255279517966,0.014030894164928363,0.043832242766228824,0.005611620100613632,0.04365069240828238
1.0074860419957294,0.08449757331606145,0.02000071940948101,0.058037587268334905,0.011949279045953715,0.057669477112024845
1.0075331240208598,0.10858230355013457,0.0243430252450736,0.06858033205585247,0.018392300993770237,0.06802881032236269
1.0075802060459902,0.12742598805780986,0.027780505761628434,0.07621925524513734,0.022773512827286718,0.07554647616345843
1.0076272880711206,0.13840784538629322,0.029344270959791214,0.07904744927672683,0.02537694480017432,0.0783041064837695
1.007674370096251,0.14057521646913557,0.028412462964510648,0.0769603579802706,0.026969245021855586,0.07617387963721733
1.0077214521213813,0.1345761316442056,0.026557338984205054,0.07084930100861353,0.02666063064800744,0.07007052426386341
