freq,gls,usurper,pdc_unbiased,shape_periodogram,shift_periodogram
1.0,0.02176245538732735,0.005330747027719888,-0.007335655112181927,0.012528305296950839,-0.007324197983161272
1.0000470820251304,0.05134779247241603,0.006735076842538555,0.016081221596065367,0.010569132658594337,0.01609225717926862
1.0000941640502607,0.09689124580742478,0.010077160323117514,0.05094334186944231,0.008924162417455443,0.05095387773658997
1.0001412460753911,0.14848755125694818,0.012704371069128768,0.08456655871201842,0.010064515469150007,0.08458033354909295
1.0001883281005215,0.19664060203551523,0.014920589263002609,0.10917973127593883,0.016142891384766864,0.10920896615103175
1.0002354101256519,0.23592916525893703,0.017929658691394863,0.12678225514793529,0.022700592058725787,0.12683562981287091
1.0002824921507822,0.26363730657080775,0.022180162888999884,0.13936052532630389,0.02758923719720452,0.13943823153069293
1.0003295741759126,0.2780607972143743,0.02439771161517777,0.14663287491158739,0.02964658444492937,0.1467234674734527
1.000376656201043,0.27778293516045677,0.023848924709175837,0.14742341655727248,0.031596980053079475,0.1475247637302044
1.0004237382261734,0.2619162710265795,0.02250934241726462,0.139633635428265,0.03193321058229554,0.139733214439964
1.0004708202513037,0.23107843684954268,0.02005300594272843,0.12167319492364326,0.03095635406480323,0.12175969612482723
1.0005179022764341,0.1884924826566669,0.016468538238306053,0.09811663264576473,0.029564080836621837,0.09818707117253928
1.0005649843015645,0.1401213853463462,0.01359363405392029,0.07552593926328457,0.02859146540429421,0.07558384686129832
1.0006120663266949,0.09311329616242185,0.011808795280997255,0.056936636782797936,0.027812950240960907,0.05698515986152573
1.0006591483518252,0.05338098213176131,0.012086974400254436,0.04656239048066332,0.026100384267946742,0.04660319077920933
1.0007062303769556,0.024158292773911582,0.012538931353006226,0.0379052596807291,0.022950897810422817,0.037937210396019244
1.000753312402086,0.006389706849983347,0.014444192411496226,0.024925530867037873,0.019494848352645526,0.024948959028938993
1.0008003944272164,4.4957735270936574e-05,0.016143772617662668,0.013623927240606612,0.016228370468435872,0.013641294945776683
1.0008474764523467,0.004476680458159687,0.01669976118569848,0.005279248516488982,0.016475780680840504,0.005295784039595385
1.000894558477477,0.016631009383087918,0.01987481458166867,0.00604487589630294,0.018648048197619744,0.006063832125182006
1.0009416405026075,0.030279800796216314,0.024030533733279073,0.01614856324889533,0.023521411833071635,0.016175605976655554
1.0009887225277379,0.04019506929021177,0.028516731207065153,0.031662352407458065,0.029421310084099112,0.03170425625461055
1.0010358045528682,0.045271217739530065,0.030906550226293496,0.049643587368788454,0.03719745671196762,0.04971346898263891
1.0010828865779986,0.04665854735345898,0.03494748333443956,0.06394396252727896,0.04266422054350899,0.06404272174187428
1.001129968603129,0.04557434040645729,0.03693184145695038,0.06951556918541625,0.04711507944728636,0.0696374089765242
1.0011770506282593,0.04281463251624272,0.03704083759330181,0.06676401531502141,0.048664687355263345,0.06688929788278265
1.0012241326533897,0.03911406922799136,0.03620123718548722,0.05756222886158259,0.04700555478720496,0.05767064804257136
1.00127121467852,0.035734840091298535,0.03340840779151619,0.04469056838221148,0.043363314887112446,0.04477409147089569
1.0013182967036505,0.034632288517627896,0.030530265356891458,0.03354469161607427,0.04001498517207094,0.03360992159560178
1.0013653787287808,0.03686446430802818,0.027600669968874048,0.03235087082016887,0.037560415993687646,0.032409709887083804
1.0014124607539112,0.040499198873267514,0.025259236675285242,0.04235422606047071,0.037422965021765925,0.04241970379059477
1.0014595427790416,0.04245011553894062,0.024933722455444663,0.05148956578485458,0.039490286446695506,0.05156742744289859
1.001506624804172,0.04142424671447975,0.025817083164505636,0.057489670337512934,0.04010364048576273,0.05757412358857091
1.0015537068293023,0.03772147907862947,0.027710505985171194,0.05838903434484734,0.03817879843957492,0.05846796087892899
1.0016007888544327,0.032149333674356434,0.027169465970922915,0.05286952532393206,0.033894152512178116,0.052932237511778224
1.001647870879563,0.025799799790141527,0.02341808275491877,0.040386054375886556,0.02733758653223754,0.04042730541542765
1.0016949529046935,0.020580986012262138,0.01817982688257086,0.02276083148008517,0.019776824808923187,0.022784249503972533
1.0017420349298238,0.01993155776046648,0.01584700051446318,0.008396000375120035,0.014419149768576,0.008410714434845278
1.0017891169549542,0.027489951613850306,0.016094690053619017,0.00883020356959996,0.01706853833490915,0.008847875395158068
1.0018361989800846,0.042074300128446054,0.01716146763291657,0.022145335055818467,0.021868531059394618,0.022171606876753763
1.001883281005215,0.05845891480384451,0.02204724183437043,0.04104344236602053,0.02868156391559371,0.04108776853129313
1.0019303630303453,0.07582159493280267,0.023159056467187716,0.05832937685591873,0.03611641703976374,0.05840182374908825
1.0019774450554757,0.09824195100672209,0.020976977968405867,0.07041397317164165,0.044614481372425026,0.07052633651920073
1.002024527080606,0.1303669711588208,0.01706575110623455,0.07896421651578898,0.04656912088197823,0.0790937528056089
1.0020716091057364,0.17464242099810953,0.014129873279631139,0.08832693698111686,0.046616574874179015,0.08846655848153019
1.0021186911308668,0.22917237164395338,0.013947063701811964,0.11355266104308831,0.04686207298032881,0.1137200611172932
1.0021657731559972,0.2864808872447173,0.016038787718412866,0.14880372324738836,0.047814350337893545,0.14901470881636092
1.0022128551811276,0.335488571803669,0.01814700842362487,0.17945522269565434,0.04874323072381329,0.1797064250465945
1.002259937206258,0.3667004160945303,0.019198093579016497,0.20044309409803335,0.049017319246517636,0.20071883729693307
1.0023070192313883,0.37630521047742305,0.019001638935883566,0.20989430295355302,0.04797017354270361,0.2101685431274795
1.0023541012565187,0.3658732131217113,0.018200333711435687,0.20800353236518512,0.0460042006799292,0.20825572041315113
1.002401183281649,0.3393357840705059,0.01684762451767297,0.19716291122807472,0.04395036305152178,0.1973858973805728
1.0024482653067794,0.30043566038503033,0.015507939588487767,0.1783931936762516,0.039327478726248866,0.1785628281870788
1.0024953473319098,0.25183659939415354,0.015348018245096648,0.15384153094853617,0.030406054243400937,0.1539391181114823
1.0025424293570402,0.1956066522565673,0.013526219547966421,0.12081929242955049,0.0190522086230757,0.12085874876739021
1.0025895113821706,0.13475970805500284,0.012399845302440241,0.07564140824241966,0.004649111004199083,0.07564661217372928
1.002636593407301,0.07582916802294695,0.011092676126558466,0.025728531183742454,-0.007595496381028834,0.02572197496898438
1.0026836754324313,0.03145358980808763,0.005508574713453986,-0.0040036080406334615,-0.0072646118402233525,-0.004010687238106724
1.0027307574575617,0.01779891286180085,0.00293058241715073,-0.006351274616742859,0.0067097245289685055,-0.006344972315943948
1.002777839482692,0.04358985242398123,0.007616046164563246,0.006591376950054447,0.023384718269292785,0.006615635159461252
1.0028249215078224,0.1037077589167159,0.01935168664801284,0.04281328660270074,0.03697370566248633,0.04287793532137111
1.0028720035329528,0.18101238562213362,0.03245469789537377,0.0979436666785688,0.04174414027559596,0.09806778986907694
1.0029190855580832,0.25636899888384335,0.04036827399621789,0.15380629462607742,0.043552914060634614,0.1539892258399643
1.0029661675832136,0.31832235074100634,0.04050842350039204,0.19704252226634572,0.046909391087115664,0.19729362889327617
1.003013249608344,0.36361141655314383,0.04289847689286171,0.228525784613192,0.04597879420992839,0.22879574272798206
1.0030603316334743,0.39341420767750745,0.04369760731683375,0.24979870354304085,0.04159910534466446,0.25003778039028257
1.0031074136586047,0.4102870696014962,0.04280217522657423,0.26258314989231946,0.03871421288742766,0.26279985447547854
1.003154495683735,0.41662904201390033,0.040969841107089074,0.266777273312063,0.035757437695516564,0.2669664617209363
1.0032015777088654,0.41405085665469693,0.038387203967265554,0.26326150551395927,0.032440849077246245,0.2634183947451088
1.0032486597339958,0.4030953535584088,0.03510381287950837,0.251751202986526,0.02828545813276238,0.2518700998519261
1.0032957417591262,0.38301151602067063,0.031131106375444986,0.2324239377319079,0.023709995024521136,0.23250661315734403
1.0033428237842565,0.3514583105172215,0.0265101402693419,0.2047530276495091,0.018471914182358693,0.20480304825816592
1.003389905809387,0.3042863356687068,0.020908671423939075,0.16911475512504195,0.012820015571889493,0.1691399669582259
1.0034369878345173,0.2364892670841809,0.014797483249648639,0.12615890065588273,0.007130401107397493,0.12616868348566482
1.0034840698596477,0.14805992805189566,0.00922702526626821,0.07745804013496241,0.001635154412434606,0.07745966351832516
1.003531151884778,0.05937981673678241,0.006157978989725589,0.035632586371168055,-0.002541108272593717,0.03563024956465978
1.0035782339099084,0.016571701488668728,0.0075513661895791,0.012038086514572617,-0.0036342351213745714,0.012034671645596235
1.0036253159350388,0.04141534161646615,0.0139901353921443,0.014399178728297872,0.0015951846266850783,0.014400721608214926
1.0036723979601692,0.0978579156313711,0.025232069534416594,0.03595348541122598,0.013930889428378956,0.03597030519591503
1.0037194799852995,0.14599333246590304,0.039274996951925496,0.06503465797160808,0.024622717401821276,0.06507776770770482
1.00376656201043,0.17300879075255565,0.050565367582408254,0.0922030709843016,0.03305258161192321,0.09228435528386542
1.0038136440355603,0.18229222765708752,0.056463670548758525,0.11374971918924169,0.03828178295826013,0.11386809984531342
1.0038607260606907,0.18262972424027749,0.0568122361875203,0.12736778710133306,0.04077685291250531,0.12751026442543206
1.003907808085821,0.18292620727983336,0.05801212079012731,0.13485525602086357,0.04065284284584586,0.1350027399825664
1.0039548901109514,0.18798821740501145,0.05808451940606878,0.13913083302593265,0.04166518627588633,0.13928823035332805
1.0040019721360818,0.19658928748535154,0.05299874142015821,0.1397247738744464,0.04144646016337413,0.13988119436813826
1.0040490541612122,0.20361099360789395,0.04677846568610995,0.1356935801867525,0.04264366902248428,0.13585464169367273
1.0040961361863425,0.20356945018764083,0.039605950239471124,0.1287855413388881,0.04025138976863318,0.12892592291453803
1.004143218211473,0.19261735903368254,0.03321998661703276,0.11776025800915435,0.03801677813990603,0.11787998322522389
1.0041903002366033,0.1692114287165738,0.025601801059164608,0.09836742477706704,0.03410071529897899,0.0984563561360624
1.0042373822617336,0.13469585530973552,0.017827323544620792,0.07519967777083232,0.027026131602227273,0.07525270570992815
1.004284464286864,0.094068350002802,0.009986316390407651,0.051842634052145065,0.01909700117772317,0.05187030684647764
1.0043315463119944,0.0558705414627791,0.002666036515914802,0.03082107495389939,0.010228779963596385,0.03083247977549356
1.0043786283371248,0.029785725493520713,-0.0013460305150355793,0.019809015244991575,0.0025961637601680508,0.019811564189938097
1.0044257103622551,0.022326134922130727,-0.0026303096215513294,0.01684685304795892,-0.0024245661148654257,0.01684456773664599
1.0044727923873855,0.03362727707623793,-0.0022572347974096144,0.01768087969631584,-0.004317544976696434,0.017676892553029375
1.004519874412516,0.057935866130881315,-0.00019678861660126407,0.0238553638180855,-0.0030987660712237836,0.023852494429356975
1.0045669564376463,0.08691312585069338,0.0031157932190654263,0.038233159934289905,0.0013115062246270071,0.03823443169978014
1.0046140384627766,0.11302745450084833,0.0066956953552024774,0.05542672474865837,0.00981071085393874,0.05543873585754094
1.004661120487907,0.13143773576861661,0.010230005101218702,0.07126698378066398,0.02035179372454166,0.07130103663908444
1.0047082025130374,0.140315951549541,0.01473085062116328,0.0817840112464661,0.030264538587022122,0.08184998472925328
1.0047552845381678,0.14016084842095028,0.015281634934888738,0.0846685751900148,0.038407846314692476,0.08476711589410418
1.0048023665632981,0.13271042804166153,0.014379190682249908,0.08028160564993014,0.0452298823387644,0.0804063348163782
1.0048494485884285,0.1199532079956697,0.011041413404185131,0.06958311394397716,0.04986950015604054,0.06971694344256452
1.0048965306135589,0.10352759540252561,0.010347122535013518,0.05738407400153901,0.051485438726918825,0.05750925922321864
1.0049436126386893,0.08458770500586026,0.009981631545036212,0.04469505929439128,0.048772208515227615,0.04479493115978561
1.0049906946638196,0.06411017510052013,0.008545852429314441,0.03435472552873721,0.04348101456966607,0.03442890807985767
1.00503777668895,0.043500849939608656,0.005501575272090482,0.022887706523455283,0.03804773249800854,0.02294080231554427
1.0050848587140804,0.02497562650004661,0.00165131521917451,0.013888116903115118,0.03188804579024129,0.013925800722632413
1.0051319407392107,0.011013597455985432,-0.0034231415573582145,0.011624969459267675,0.02578662486066449,0.01165359368024679
1.0051790227643411,0.003334338693202587,-0.00637226608737812,0.009001101837417943,0.017588602410815665,0.009019379072977403
1.0052261047894715,0.0027948227754708652,-0.00922175974807408,0.005716764128480125,0.006766355646266393,0.005723389151627224
1.0052731868146019,0.010164673003053454,-0.009039665452895916,0.005314070387151807,-0.0027350869672367532,0.005311461722132738
1.0053202688397322,0.026566180290056158,-0.00754353819407703,0.008193549268036414,-0.0075124959765262705,0.00818656382466644
1.0053673508648626,0.05291846997433676,-0.0061921322860099565,0.011498759854167706,-0.008589697072918514,0.011490932348991262
1.005414432889993,0.08828034555015178,-0.006707321102694695,0.017065936640710815,-0.008079972536496612,0.017058730580094182
1.0054615149151234,0.12763762777320273,-0.006237372150175356,0.025647230237824777,-0.005991470274477313,0.02564193111453559
1.0055085969402537,0.16155770115500132,-0.00421911660255082,0.038076850744054896,-0.0012839455662965137,0.03807563440876186
1.0055556789653841,0.18078890709766565,-0.0018849630778742302,0.05135766337998839,0.005980111515242057,0.05136427510586502
1.0056027609905145,0.18307418566708303,-0.0012660460005124716,0.06056084021799014,0.013639148226705892,0.06057945080153902
1.0056498430156449,0.1741533504439713,0.0008884042325719455,0.06655908741414072,0.021095070572574193,0.06659393074214796
1.0056969250407752,0.16242605985016223,0.0024113853288807406,0.07063087442771013,0.027112032359272245,0.0706825330675646
1.0057440070659056,0.15418810481596457,0.0020689300148887028,0.07107575192890922,0.031593824304247516,0.0711411603378025
1.005791089091036,0.1523552110015489,0.000742998510466955,0.0660360559428213,0.03340010681038325,0.06610460762604109
1.0058381711161664,0.15691036178882456,0.0009217518278019021,0.06130313889977103,0.032982048032598375,0.06136786311237941
1.0058852531412967,0.16538784679386007,0.00227010652334195,0.06307528196508604,0.03025802725899481,0.06313292515363157
1.005932335166427,0.17322460684996496,0.004314020716562432,0.06323184659303546,0.025688323429900566,0.06327713314663562
1.0059794171915575,0.17475929729964576,0.0029303910251965355,0.05880087400333982,0.020627977207327536,0.058833026158242735
1.0060264992166879,0.16548577922015562,0.0006529191005763253,0.05204155960234529,0.01648143386605396,0.052064349290933704
1.0060735812418182,0.1445721481217929,-0.0018562474373645488,0.04234591607178599,0.013018050836087843,0.04236194596613329
1.0061206632669486,0.11538472372115638,-0.004076985699979767,0.03266210113426135,0.011246057932173648,0.03267493124395496
1.006167745292079,0.08342022676517998,-0.004076102697673178,0.0259645785337829,0.010248688154354533,0.02597576057381148
1.0062148273172093,0.053714935068683495,-0.001868131811706687,0.01794830890199036,0.010367247388362652,0.01795921514775156
1.0062619093423397,0.029620632829972474,0.0008468295821638894,0.006428025048282717,0.013481874453322523,0.006441551804867917
1.00630899136747,0.012907514843990737,0.0027038682149473745,-0.004503164505502606,0.014363945851166052,-0.004489833977536011
1.0063560733926005,0.004292560353454192,0.004913161584774832,-0.010519166817943732,0.014261040515738678,-0.01050653931669086
1.0064031554177308,0.0038095921685766332,0.006862670625670654,-0.007972360122875525,0.014635898946283456,-0.00795915705234712
1.0064502374428612,0.010924293923755681,0.009767227900666326,0.0013341291502741227,0.015231189980229482,0.0013489097494696508
1.0064973194679916,0.02453035587728399,0.014392893355801994,0.011333716656649779,0.016540271821728965,0.011351142741801665
1.006544401493122,0.042966387475684646,0.018335332816977072,0.020787738978896356,0.017688984535731176,0.020807957354407127
1.0065914835182523,0.06411092062196938,0.02249916708918535,0.03329944681240632,0.01932113673826098,0.03332416623823374
1.0066385655433827,0.08556714248621351,0.027131584554424007,0.049462130528264495,0.021630517230434382,0.04949435259208228
1.006685647568513,0.10493697207975199,0.02933136315669789,0.06485229624100503,0.024540027823163883,0.06489514194154088
1.0067327295936435,0.12014720761669652,0.029107568594902263,0.07640706666955516,0.027121347845872674,0.07646080727974484
1.0067798116187738,0.12974860817624662,0.027041580638572683,0.08294186479002422,0.02712614817482994,0.08299793602329275
1.0068268936439042,0.1331160769266914,0.024096757309736632,0.08436945777741765,0.02465605335520014,0.08441832209244207
1.0068739756690346,0.13051634907150206,0.021742130952585873,0.08386978816652868,0.02177003727283827,0.08391017919856775
1.006921057694165,0.12301693370584733,0.018506998132486,0.08185258015702256,0.015064069496216803,0.08187609001687836
1.0069681397192953,0.11219272060745543,0.013948453194365605,0.07585112215539112,0.0089595145653293,0.07586264344433225
1.0070152217444257,0.09964098937742749,0.008456880665766718,0.06985230351433948,0.004217263969990591,0.06985690941179391
1.007062303769556,0.08648287672211809,0.004421960451716482,0.06302251331950957,0.001144857623189716,0.06302361825499683
1.0071093857946865,0.07315337862299943,0.0005614333850467432,0.053521194673379444,-1.3185734148816907e-05,0.05352115747015268
1.0071564678198168,0.05967551136841471,-0.0036702576536420174,0.042771215350936226,-0.00022979230188689543,0.04277097675934069
1.0072035498449472,0.046352747241279996,-0.005916325107707811,0.029687677967592516,0.0014018602499831865,0.029689037708868514
1.0072506318700776,0.03458526276589038,-0.007816996523822365,0.01916866027493343,0.0028096303579292084,0.019171423365374633
1.007297713895208,0.02727830692374265,-0.007958541206699784,0.01473006896934623,0.00377274394565452,0.014733788373090036
1.0073447959203383,0.0280866607277734,-0.0065404425951335506,0.01711698325886342,0.005951744333252015,0.01712299083110566
1.0073918779454687,0.03925806445151868,-0.003392957139051335,0.028584290137595406,0.009848702796002562,0.02859510768768393
1.007438959970599,0.059562255279517966,0.00196532524520391,0.043832242766228824,0.013675955318150142,0.04384940915037259
1.0074860419957294,0.08449757331606145,0.00679115052316886,0.058037587268334905,0.019437716170512775,0.05806706382601488
1.0075331240208598,0.10858230355013457,0.010026354873791549,0.06858033205585247,0.02411552071689961,0.06862315590638401
1.0075802060459902,0.12742598805780986,0.010886259587028355,0.07621925524513734,0.027143605387651683,0.07627299617443362
1.0076272880711206,0.13840784538629322,0.011391797039877435,0.07904744927672683,0.029427227124269494,0.07910945019362221
1.007674370096251,0.14057521646913557,0.0100010117107932,0.0769603579802706,0.03103646210271703,0.07702674642907371
1.0077214521213813,0.1345761316442056,0.0062589621174625075,0.07084930100861353,0.031167873321050303,0.07091324942917134
