freq,gls,usurper,pdc_unbiased,shape_periodogram,shift_periodogram
1.0,0.02176245538732735,0.0395452743562632,-0.007335655112181927,0.015567590348623086,-0.008752341417974631
1.0000470820251304,0.05134779247241603,0.07183603211313343,0.016081221596065367,0.04180946416866254,0.012135704594083231
1.0000941640502607,0.09689124580742478,0.10451383389338986,0.05094334186944231,0.07554132011430438,0.0438475974902768
1.0001412460753911,0.14848755125694818,0.13733492726147353,0.08456655871201842,0.1071761557167465,0.07475917866126065
1.0001883281005215,0.19664060203551523,0.1635523934869516,0.10917973127593883,0.13380503904360572,0.09733373272849141
1.0002354101256519,0.23592916525893703,0.18041527247272054,0.12678225514793529,0.15321575207521074,0.11362288426120401
1.0002824921507822,0.26363730657080775,0.19111911068531792,0.13936052532630389,0.16523610733740243,0.12549843949554323
1.0003295741759126,0.2780607972143743,0.1971192554953615,0.14663287491158739,0.17247666313653293,0.1323813440629552
1.000376656201043,0.27778293516045677,0.19915886113466766,0.14742341655727248,0.17577760195365405,0.1329593512490452
1.0004237382261734,0.2619162710265795,0.19545090653117825,0.139633635428265,0.1745235442852204,0.12512058144609925
1.0004708202513037,0.23107843684954268,0.18417194532149464,0.12167319492364326,0.1680992149348189,0.10733480187320141
1.0005179022764341,0.1884924826566669,0.16875178710880256,0.09811663264576473,0.15869734635534272,0.08417953014367952
1.0005649843015645,0.1401213853463462,0.15792778310647212,0.07552593926328457,0.1525356543829878,0.061837099222897415
1.0006120663266949,0.09311329616242185,0.1535375359410788,0.056936636782797936,0.1500287579798516,0.04328145260974655
1.0006591483518252,0.05338098213176131,0.15677464507280942,0.04656239048066332,0.14991942224409657,0.032824281671493497
1.0007062303769556,0.024158292773911582,0.1605306205610004,0.0379052596807291,0.1488827278147451,0.024186950869125045
1.000753312402086,0.006389706849983347,0.15797143371730657,0.024925530867037873,0.1436920754206928,0.01158354883285481
1.0008003944272164,4.4957735270936574e-05,0.15634088378021038,0.013623927240606612,0.13715004134742018,0.0008210821848988512
1.0008474764523467,0.004476680458159687,0.1544756548222642,0.005279248516488982,0.1365006874172923,-0.007506055661303239
1.000894558477477,0.016631009383087918,0.16073317910501378,0.00604487589630294,0.14399712671426895,-0.007448133638504911
1.0009416405026075,0.030279800796216314,0.17954153601509704,0.01614856324889533,0.16044799703705243,0.0011767538448927686
1.0009887225277379,0.04019506929021177,0.20701825815589014,0.031662352407458065,0.1844471197499576,0.014639897089807235
1.0010358045528682,0.045271217739530065,0.23528583996415106,0.049643587368788454,0.21062185113287415,0.03057687644459368
1.0010828865779986,0.04665854735345898,0.2522614560817504,0.06394396252727896,0.2336486036671575,0.043228976535348455
1.001129968603129,0.04557434040645729,0.25813183877506246,0.06951556918541625,0.2478499128933777,0.0477737309219499
1.0011770506282593,0.04281463251624272,0.2510988323865999,0.06676401531502141,0.2512737492592955,0.04464818276631172
1.0012241326533897,0.03911406922799136,0.23588254091742183,0.05756222886158259,0.24619383314656143,0.03558935502037177
1.00127121467852,0.035734840091298535,0.21657582225480673,0.04469056838221148,0.23548305474363493,0.023294081005486758
1.0013182967036505,0.034632288517627896,0.20193776435634558,0.03354469161607427,0.22768920229747336,0.01257593796600898
1.0013653787287808,0.03686446430802818,0.20458379877394475,0.03235087082016887,0.22876819757596936,0.011253404301492263
1.0014124607539112,0.040499198873267514,0.2202225071023478,0.04235422606047071,0.23820715377231308,0.020649135355040735
1.0014595427790416,0.04245011553894062,0.2379648961363187,0.05148956578485458,0.2500914013852593,0.028989357224218627
1.001506624804172,0.04142424671447975,0.25010452181836085,0.057489670337512934,0.25605757095339626,0.034661436351386396
1.0015537068293023,0.03772147907862947,0.2511348428289209,0.05838903434484734,0.25259359620343574,0.035889537763737
1.0016007888544327,0.032149333674356434,0.24155967272521592,0.05286952532393206,0.23723852246329777,0.03153983930788012
1.001647870879563,0.025799799790141527,0.22071329912866866,0.040386054375886556,0.21144308368350564,0.021054443982424623
1.0016949529046935,0.020580986012262138,0.19219768841033208,0.02276083148008517,0.1796742803940963,0.006059662256939225
1.0017420349298238,0.01993155776046648,0.1671727299215854,0.008396000375120035,0.15320278878564247,-0.0059557808967072605
1.0017891169549542,0.027489951613850306,0.1564890390802009,0.00883020356959996,0.14237258775121334,-0.004491877451177929
1.0018361989800846,0.042074300128446054,0.15705387906439944,0.022145335055818467,0.14587986210335213,0.008581715529040823
1.001883281005215,0.05845891480384451,0.166754760010494,0.04104344236602053,0.15841571965055387,0.02649525125828997
1.0019303630303453,0.07582159493280267,0.17992149411930589,0.05832937685591873,0.17072016821214464,0.04289212232477552
1.0019774450554757,0.09824195100672209,0.1873282577262828,0.07041397317164165,0.17548399788645985,0.05473451364823318
1.002024527080606,0.1303669711588208,0.18005906221125617,0.07896421651578898,0.17006178792882307,0.06385674032106119
1.0020716091057364,0.17464242099810953,0.1655964282005658,0.08832693698111686,0.1601730196274662,0.07415103140862456
1.0021186911308668,0.22917237164395338,0.16694051147424765,0.11355266104308831,0.1573615301002852,0.09991315344549437
1.0021657731559972,0.2864808872447173,0.18090198092557253,0.14880372324738836,0.1624625344544579,0.13527939707201717
1.0022128551811276,0.335488571803669,0.19553667007361525,0.17945522269565434,0.16883354635871087,0.16600809478482872
1.002259937206258,0.3667004160945303,0.20424675339743503,0.20044309409803335,0.17107826240830823,0.1872402226069732
1.0023070192313883,0.37630521047742305,0.20524794827313722,0.20989430295355302,0.16760918590617022,0.1970632370522999
1.0023541012565187,0.3658732131217113,0.19873730960185418,0.20800353236518512,0.15883544555404439,0.19564155515860412
1.002401183281649,0.3393357840705059,0.1853869489945684,0.19716291122807472,0.14556602105341357,0.1854407860413296
1.0024482653067794,0.30043566038503033,0.16725547083301132,0.1783931936762516,0.1282712019325556,0.16758875445765065
1.0024953473319098,0.25183659939415354,0.14551333102710448,0.15384153094853617,0.10699006987007299,0.14438072846907912
1.0025424293570402,0.1956066522565673,0.11780186671352211,0.12081929242955049,0.08302556006331176,0.11312569866297903
1.0025895113821706,0.13475970805500284,0.08096875359318625,0.07564140824241966,0.054738567295970944,0.07037111678421058
1.002636593407301,0.07582916802294695,0.04321342432396946,0.025728531183742454,0.029471507631422426,0.022889097870747024
1.0026836754324313,0.03145358980808763,0.026646655687089037,-0.0040036080406334615,0.017061968257704306,-0.005573519124540952
1.0027307574575617,0.01779891286180085,0.034564169755405605,-0.006351274616742859,0.023327309399903323,-0.00849497064904024
1.002777839482692,0.04358985242398123,0.046919690247464736,0.006591376950054447,0.04279043429078493,0.0025864728829633776
1.0028249215078224,0.1037077589167159,0.0702356365804855,0.04281328660270074,0.06894881009694871,0.036318257654982755
1.0028720035329528,0.18101238562213362,0.10820547312462091,0.0979436666785688,0.10120481895769663,0.08868629588735859
1.0029190855580832,0.25636899888384335,0.14969684247265885,0.15380629462607742,0.12968572874202972,0.14266808619681293
1.0029661675832136,0.31832235074100634,0.18581995459550624,0.19704252226634572,0.1444581161434421,0.18538820526812025
1.003013249608344,0.36361141655314383,0.206146487155741,0.228525784613192,0.15280765116627737,0.21683563155227412
1.0030603316334743,0.39341420767750745,0.2191878902573825,0.24979870354304085,0.1581015082467301,0.23818480113916748
1.0031074136586047,0.4102870696014962,0.22550923983479793,0.26258314989231946,0.15974030810476733,0.25111829028932714
1.003154495683735,0.41662904201390033,0.2269778678478923,0.266777273312063,0.15872235346268687,0.25543595434878436
1.0032015777088654,0.41405085665469693,0.2241312401634277,0.26326150551395927,0.154725895927604,0.2520461735565447
1.0032486597339958,0.4030953535584088,0.21685348373227042,0.251751202986526,0.14757631122246254,0.24070409316526525
1.0032957417591262,0.38301151602067063,0.20497176417492322,0.2324239377319079,0.13729661788115047,0.22166411507084008
1.0033428237842565,0.3514583105172215,0.18791266482604677,0.2047530276495091,0.12361975929534924,0.19451714164748976
1.003389905809387,0.3042863356687068,0.1654213615107909,0.16911475512504195,0.10691886801655558,0.15975037481659554
1.0034369878345173,0.2364892670841809,0.13806281243143767,0.12615890065588273,0.08767680629415733,0.11809719048568
1.0034840698596477,0.14805992805189566,0.10758338893430623,0.07745804013496241,0.06809643714704681,0.07100848942363003
1.003531151884778,0.05937981673678241,0.0855120972729104,0.035632586371168055,0.05622384651724347,0.030306837806477353
1.0035782339099084,0.016571701488668728,0.08313939871219098,0.012038086514572617,0.060559740001935286,0.006367236932945566
1.0036253159350388,0.04141534161646615,0.10741586827445236,0.014399178728297872,0.08645036106770192,0.006323279103588498
1.0036723979601692,0.0978579156313711,0.14668093844324398,0.03595348541122598,0.12483398546339074,0.024396877562457255
1.0037194799852995,0.14599333246590304,0.19078658059554562,0.06503465797160808,0.1693491717862713,0.049801760545849116
1.00376656201043,0.17300879075255565,0.22906706458917422,0.0922030709843016,0.20920265529352627,0.07418481645196606
1.0038136440355603,0.18229222765708752,0.2572399928334589,0.11374971918924169,0.2387610972974822,0.09411012210113233
1.0038607260606907,0.18262972424027749,0.275028181083627,0.12736778710133306,0.26080180468298914,0.10670811605808293
1.003907808085821,0.18292620727983336,0.2840222560700622,0.13485525602086357,0.2750951487136615,0.11360065479636797
1.0039548901109514,0.18798821740501145,0.2878972522325919,0.13913083302593265,0.28008302187199907,0.11776651059166499
1.0040019721360818,0.19658928748535154,0.2857494520916033,0.1397247738744464,0.27840892460989447,0.11848722942548634
1.0040490541612122,0.20361099360789395,0.28088732348189993,0.1356935801867525,0.27020436665285785,0.11477631183544945
1.0040961361863425,0.20356945018764083,0.2703751110224681,0.1287855413388881,0.25630065481102915,0.10847333218247111
1.004143218211473,0.19261735903368254,0.24995172527163384,0.11776025800915435,0.23590566170511798,0.09844759920722508
1.0041903002366033,0.1692114287165738,0.2208119949228993,0.09836742477706704,0.20951295575021867,0.08046701803180303
1.0042373822617336,0.13469585530973552,0.18692334890797005,0.07519967777083232,0.17948203217695144,0.059257068823742126
1.004284464286864,0.094068350002802,0.15506324724557802,0.051842634052145065,0.14872666307612376,0.03825600609460693
1.0043315463119944,0.0558705414627791,0.1274194366473768,0.03082107495389939,0.11978292026977742,0.019702223014134282
1.0043786283371248,0.029785725493520713,0.10967749909210955,0.019809015244991575,0.09809260577614058,0.010656757712131577
1.0044257103622551,0.022326134922130727,0.1018418958426068,0.01684685304795892,0.084962350232148,0.008907915404424135
1.0044727923873855,0.03362727707623793,0.10221950384094836,0.01768087969631584,0.08145323528840705,0.010066075865885982
1.004519874412516,0.057935866130881315,0.10967847098079589,0.0238553638180855,0.0863045048018588,0.01579074210303512
1.0045669564376463,0.08691312585069338,0.12485602785996368,0.038233159934289905,0.09976818018413965,0.028950833261861784
1.0046140384627766,0.11302745450084833,0.1444041183472525,0.05542672474865837,0.11969332233501767,0.044417681292071076
1.004661120487907,0.13143773576861661,0.162013618065514,0.07126698378066398,0.140379243269148,0.05856623740637455
1.0047082025130374,0.140315951549541,0.17540889843135157,0.0817840112464661,0.1579894270220149,0.0677093938490862
1.0047552845381678,0.14016084842095028,0.18099751616879925,0.0846685751900148,0.1700359592417062,0.06964194175568604
1.0048023665632981,0.13271042804166153,0.17793494375123853,0.08028160564993014,0.17408918305566157,0.06486068163135829
1.0048494485884285,0.1199532079956697,0.16837662772051643,0.06958311394397716,0.173062945407525,0.05409593721735532
1.0048965306135589,0.10352759540252561,0.15302841699308972,0.05738407400153901,0.16481815396961533,0.04244695790103501
1.0049436126386893,0.08458770500586026,0.13384478664512936,0.04469505929439128,0.1514218504669845,0.030806805697377922
1.0049906946638196,0.06411017510052013,0.11449441410499149,0.03435472552873721,0.13621196949504247,0.02175816544325393
1.00503777668895,0.043500849939608656,0.09668479598491146,0.022887706523455283,0.11976671812091559,0.011741773773049208
1.0050848587140804,0.02497562650004661,0.079795331566164,0.013888116903115118,0.10185133741481629,0.004381421264440679
1.0051319407392107,0.011013597455985432,0.06825110563922027,0.011624969459267675,0.0861360676443258,0.003579341869614266
1.0051790227643411,0.003334338693202587,0.057347953260436305,0.009001101837417943,0.0711312834770991,0.002354313210174488
1.0052261047894715,0.0027948227754708652,0.045417050114015665,0.005716764128480125,0.05589658309815485,0.0004953440810752552
1.0052731868146019,0.010164673003053454,0.034937014649742,0.005314070387151807,0.040084580211639194,0.0015651306205597966
1.0053202688397322,0.026566180290056158,0.02808960009838891,0.008193549268036414,0.02750442532307888,0.005602869524561984
1.0053673508648626,0.05291846997433676,0.024536616737858098,0.011498759854167706,0.019432401401161595,0.009644158128198228
1.005414432889993,0.08828034555015178,0.025365224024765574,0.017065936640710815,0.014444671062632515,0.015651058543252255
1.0054615149151234,0.12763762777320273,0.028630656602270974,0.025647230237824777,0.012648983531836088,0.02436307327105221
1.0055085969402537,0.16155770115500132,0.035003210336425734,0.038076850744054896,0.01681679217084889,0.036356787945590274
1.0055556789653841,0.18078890709766565,0.04200645221117393,0.05135766337998839,0.025485592906993707,0.04879065187328153
1.0056027609905145,0.18307418566708303,0.04679893136203291,0.06056084021799014,0.03556872224051927,0.05704511333156589
1.0056498430156449,0.1741533504439713,0.04933688270290908,0.06655908741414072,0.04184471879724003,0.062459714918078425
1.0056969250407752,0.16242605985016223,0.05092780455320784,0.07063087442771013,0.046712109672471594,0.06608495737322231
1.0057440070659056,0.15418810481596457,0.05170830225631447,0.07107575192890922,0.05008288028579885,0.06622788866081843
1.005791089091036,0.1523552110015489,0.05069068314375406,0.0660360559428213,0.05107243476958732,0.06111031335310418
1.0058381711161664,0.15691036178882456,0.04984460702965851,0.06130313889977103,0.05140368066183145,0.05635772364592943
1.0058852531412967,0.16538784679386007,0.0531511785249492,0.06307528196508604,0.052786473121988475,0.0580021743406742
1.005932335166427,0.17322460684996496,0.05414404219485846,0.06323184659303546,0.05354518275410333,0.058090475713821234
1.0059794171915575,0.17475929729964576,0.052012848868307746,0.05880087400333982,0.05173488587273557,0.05383107898065489
1.0060264992166879,0.16548577922015562,0.04801071982612889,0.05204155960234529,0.047476352903631724,0.047471844200034655
1.0060735812418182,0.1445721481217929,0.04219454868560375,0.04234591607178599,0.040901082687957335,0.038400950717706155
1.0061206632669486,0.11538472372115638,0.03796507589962921,0.03266210113426135,0.033329930046944664,0.02944238127060148
1.006167745292079,0.08342022676517998,0.03337097513912066,0.0259645785337829,0.02641503884694509,0.02340637112190463
1.0062148273172093,0.053714935068683495,0.030928311892291255,0.01794830890199036,0.021969709318087262,0.01583242100126365
1.0062619093423397,0.029620632829972474,0.028338479749723682,0.006428025048282717,0.01974111665708531,0.004565531034079342
1.00630899136747,0.012907514843990737,0.02631063739643175,-0.004503164505502606,0.021123507994089016,-0.006449165462772028
1.0063560733926005,0.004292560353454192,0.027706031168997804,-0.010519166817943732,0.026834733457588623,-0.012972969134562924
1.0064031554177308,0.0038095921685766332,0.03326733279487806,-0.007972360122875525,0.03576564720268014,-0.01127022119337058
1.0064502374428612,0.010924293923755681,0.046675838175738504,0.0013341291502741227,0.0525149671327035,-0.003559620713385736
1.0064973194679916,0.02453035587728399,0.06183302073995221,0.011333716656649779,0.07088026008892319,0.004706353383593738
1.006544401493122,0.042966387475684646,0.07574580473207417,0.020787738978896356,0.08860075960235973,0.01251187779624792
1.0065914835182523,0.06411092062196938,0.08868900887725403,0.03329944681240632,0.10116556076819459,0.023882487371933964
1.0066385655433827,0.08556714248621351,0.10120436490893295,0.049462130528264495,0.10936681889370027,0.03934446927927035
1.006685647568513,0.10493697207975199,0.1116840930173088,0.06485229624100503,0.11416606786353173,0.05436733080919747
1.0067327295936435,0.12014720761669652,0.1176861905646436,0.07640706666955516,0.11474563527035962,0.06592217036351183
1.0067798116187738,0.12974860817624662,0.11972317100593934,0.08294186479002422,0.11017945801348625,0.07287364910177391
1.0068268936439042,0.1331160769266914,0.11811725243763413,0.08436945777741765,0.10158137457625328,0.0750361179976876
1.0068739756690346,0.13051634907150206,0.11175710108301479,0.08386978816652868,0.09009029007347374,0.075516385124932
1.006921057694165,0.12301693370584733,0.10020806063555658,0.08185258015702256,0.07791461196987357,0.07454674068723204
1.0069681397192953,0.11219272060745543,0.08563165400396777,0.07585112215539112,0.0646880654881103,0.06970211151247897
1.0070152217444257,0.09964098937742749,0.07104923732032353,0.06985230351433948,0.050876742642846313,0.0649361529382452
1.007062303769556,0.08648287672211809,0.05811572366134199,0.06302251331950957,0.03882143325306191,0.05920533540363631
1.0071093857946865,0.07315337862299943,0.047974617851924105,0.053521194673379444,0.028673817921529954,0.05065532255460628
1.0071564678198168,0.05967551136841471,0.040803669417524675,0.042771215350936226,0.021189321946858446,0.040630189320119706
1.0072035498449472,0.046352747241279996,0.03288891728194662,0.029687677967592516,0.015336696958664806,0.028138180887074024
1.0072506318700776,0.03458526276589038,0.027972925094248455,0.01916866027493343,0.013141263094112132,0.0178658766202697
1.007297713895208,0.02727830692374265,0.02675760502162735,0.01473006896934623,0.013778181874272209,0.013386755883081136
1.0073447959203383,0.0280866607277734,0.03126669813458515,0.01711698325886342,0.0178903442380687,0.015382437987121878
1.0073918779454687,0.03925806445151868,0.04417069017470686,0.028584290137595406,0.027618401031279417,0.02590518757104511
1.007438959970599,0.059562255279517966,0.060936540154572935,0.043832242766228824,0.03963226824412133,0.039998552770261694
1.0074860419957294,0.08449757331606145,0.07704521838801714,0.058037587268334905,0.05191884937172584,0.05305289259903957
1.0075331240208598,0.10858230355013457,0.08945811445659353,0.06858033205585247,0.06394597058668897,0.0625040887227745
1.0075802060459902,0.12742598805780986,0.09718466389915223,0.07621925524513734,0.07182598831021479,0.06944347353720422
1.0076272880711206,0.13840784538629322,0.09830555072767597,0.07904744927672683,0.07488723312404626,0.0720040039171672
1.007674370096251,0.14057521646913557,0.09402779766485887,0.0769603579802706,0.07556685239479394,0.06985746843340618
1.0077214521213813,0.1345761316442056,0.08653942897313656,0.07084930100861353,0.07220613389801563,0.06404178677653495
1.0077685341465117,0.12269802495893224,0.07533190358833941,0.062425783036096825,0.06478592470599161,0.05628177188969587
1.007815616171642,0.10844877640211482,0.06362800964143088,0.054884533548136764,0.055410104952262514,0.049592144663974366
