freq,gls,usurper,pdc_unbiased,shape_periodogram,shift_periodogram
1.0,0.02176245538732735,0.018622759274782845,-0.007335655112181927,0.008485067859666615,-0.007621985683078374
1.0000470820251304,0.05134779247241603,0.028422503319237867,0.016081221596065367,0.013548033459821975,0.01560976857609292
1.0000941640502607,0.09689124580742478,0.041750460869697935,0.05094334186944231,0.025363268757552553,0.05006497530773377
1.0001412460753911,0.14848755125694818,0.056081801096399736,0.08456655871201842,0.04243962591953355,0.08315467722222881
1.0001883281005215,0.19664060203551523,0.07051219800971667,0.10917973127593883,0.06345418437707537,0.10719647382448987
1.0002354101256519,0.23592916525893703,0.0823695795244053,0.12678225514793529,0.08050148780208408,0.12441651893544033
1.0002824921507822,0.26363730657080775,0.0898682443557858,0.13936052532630389,0.0913666779677856,0.13680387057458201
1.0003295741759126,0.2780607972143743,0.09488444064374926,0.14663287491158739,0.09800762811765411,0.14397880949735345
1.000376656201043,0.27778293516045677,0.09677572261025857,0.14742341655727248,0.10195207440249224,0.14469867184679902
1.0004237382261734,0.2619162710265795,0.09442848474078351,0.139633635428265,0.10257271533725897,0.13685116948927623
1.0004708202513037,0.23107843684954268,0.0882730183405385,0.12167319492364326,0.09916640298416035,0.11885992709733519
1.0005179022764341,0.1884924826566669,0.07977273632456226,0.09811663264576473,0.09352844978138083,0.09531760537241243
1.0005649843015645,0.1401213853463462,0.07267525026586037,0.07552593926328457,0.08756604407725015,0.07278796294509886
1.0006120663266949,0.09311329616242185,0.06673428028823732,0.056936636782797936,0.08020913103396571,0.05434574281264333
1.0006591483518252,0.05338098213176131,0.06241401326423672,0.04656239048066332,0.07012150496818448,0.044251579668983944
1.0007062303769556,0.024158292773911582,0.05644055417866822,0.0379052596807291,0.05680818947585525,0.03600102632577307
1.000753312402086,0.006389706849983347,0.049970551171051085,0.024925530867037873,0.04107818694383265,0.023526239054844564
1.0008003944272164,4.4957735270936574e-05,0.04547279566910477,0.013623927240606612,0.027290391499667343,0.01268697977277753
1.0008474764523467,0.004476680458159687,0.04166084971284491,0.005279248516488982,0.021657582539835112,0.004536078211112837
1.000894558477477,0.016631009383087918,0.04485462047211444,0.00604487589630294,0.02343526646288516,0.005240807938851972
1.0009416405026075,0.030279800796216314,0.05425636229341393,0.01614856324889533,0.03197632727572929,0.015052903490799477
1.0009887225277379,0.04019506929021177,0.06695588824232121,0.031662352407458065,0.046910935264706764,0.030073801954325224
1.0010358045528682,0.045271217739530065,0.07797366867004593,0.049643587368788454,0.06516969540366468,0.04749293456577163
1.0010828865779986,0.04665854735345898,0.08672064916782549,0.06394396252727896,0.08220516579919623,0.06131665296725649
1.001129968603129,0.04557434040645729,0.09227062308088063,0.06951556918541625,0.09476215888482684,0.06655263873856763
1.0011770506282593,0.04281463251624272,0.09242897768516384,0.06676401531502141,0.10008540903771466,0.06363991128283276
1.0012241326533897,0.03911406922799136,0.0874343303578352,0.05756222886158259,0.09929333618450284,0.05441459269622871
1.00127121467852,0.035734840091298535,0.07926524930044072,0.04469056838221148,0.09519976403157965,0.04160418995862897
1.0013182967036505,0.034632288517627896,0.07204545515417457,0.03354469161607427,0.09148048042012347,0.030527092648939727
1.0013653787287808,0.03686446430802818,0.06932278536795014,0.03235087082016887,0.08985777533062266,0.029379944669016587
1.0014124607539112,0.040499198873267514,0.07135052150864869,0.04235422606047071,0.09148702388519855,0.03937124397968194
1.0014595427790416,0.04245011553894062,0.07583892967700488,0.05148956578485458,0.09503168913481598,0.04843812035372588
1.001506624804172,0.04142424671447975,0.0781841339235642,0.057489670337512934,0.09420442922045229,0.054488911611579816
1.0015537068293023,0.03772147907862947,0.07784204464644548,0.05838903434484734,0.08740854156767572,0.05559025905455696
1.0016007888544327,0.032149333674356434,0.07275358341273949,0.05286952532393206,0.07501698064031898,0.050423354961894665
1.001647870879563,0.025799799790141527,0.062781963363765,0.040386054375886556,0.05685203922283692,0.03848351683867545
1.0016949529046935,0.020580986012262138,0.04884446622154603,0.02276083148008517,0.037063012424629393,0.021494822818622018
1.0017420349298238,0.01993155776046648,0.04032197947696871,0.008396000375120035,0.022602263129128514,0.0076196057854320326
1.0017891169549542,0.027489951613850306,0.039506575777879305,0.00883020356959996,0.021062327759677184,0.008106109389520597
1.0018361989800846,0.042074300128446054,0.042650892660663034,0.022145335055818467,0.02811633457359785,0.021179214607070996
1.001883281005215,0.05845891480384451,0.052694523598290285,0.04104344236602053,0.0422493784171441,0.039612413161235045
1.0019303630303453,0.07582159493280267,0.06371102009951075,0.05832937685591873,0.059317553742364436,0.056374289503537345
1.0019774450554757,0.09824195100672209,0.07202492399551748,0.07041397317164165,0.0778712393378962,0.06793238509344843
1.002024527080606,0.1303669711588208,0.0734851447418965,0.07896421651578898,0.09089427069032542,0.07614895091577578
1.0020716091057364,0.17464242099810953,0.07198861010559808,0.08832693698111686,0.09957157818453927,0.08532728597543482
1.0021186911308668,0.22917237164395338,0.07530389294250521,0.11355266104308831,0.10621766953103037,0.11053758178535546
1.0021657731559972,0.2864808872447173,0.08191445372931651,0.14880372324738836,0.112676231939458,0.14589604674126516
1.0022128551811276,0.335488571803669,0.08800772102973684,0.17945522269565434,0.11817338829743794,0.17669867284788313
1.002259937206258,0.3667004160945303,0.09126142622687866,0.20044309409803335,0.12087307281598768,0.1978299748739887
1.0023070192313883,0.37630521047742305,0.0912278420224204,0.20989430295355302,0.11994955495321587,0.20736846491034808
1.0023541012565187,0.3658732131217113,0.08828192795807027,0.20800353236518512,0.1156814173843107,0.20549943201782667
1.002401183281649,0.3393357840705059,0.08406584772463062,0.19716291122807472,0.10864507052633034,0.19465347096441651
1.0024482653067794,0.30043566038503033,0.0785559569636911,0.1783931936762516,0.0962941841282117,0.17594227582178495
1.0024953473319098,0.25183659939415354,0.06998171508721326,0.15384153094853617,0.07734279298068686,0.151642317410315
1.0025424293570402,0.1956066522565673,0.05560076675409803,0.12081929242955049,0.05336957757315503,0.1191297246701304
1.0025895113821706,0.13475970805500284,0.03874817794887619,0.07564140824241966,0.024738153812786295,0.07478068661339846
1.002636593407301,0.07582916802294695,0.02586819445951846,0.025728531183742454,0.0021714142101732442,0.025639294130409232
1.0026836754324313,0.03145358980808763,0.021960038986907397,-0.0040036080406334615,-0.00026590345650792457,-0.003992163542905656
1.0027307574575617,0.01779891286180085,0.029726673779872453,-0.006351274616742859,0.0193679185441795,-0.007011636886153467
1.002777839482692,0.04358985242398123,0.042221087817059647,0.006591376950054447,0.050174849744290845,0.004876652934827906
1.0028249215078224,0.1037077589167159,0.062407768961196944,0.04281328660270074,0.07787088572864384,0.040252247467171966
1.0028720035329528,0.18101238562213362,0.08451116079401229,0.0979436666785688,0.0951789450600562,0.0951026804742316
1.0029190855580832,0.25636899888384335,0.10276887933060641,0.15380629462607742,0.1042483332117124,0.15107819348843443
1.0029661675832136,0.31832235074100634,0.11370513323838587,0.19704252226634572,0.10806007946991392,0.19453925124268967
1.003013249608344,0.36361141655314383,0.11961234802103932,0.228525784613192,0.10954561505993239,0.22622761028246163
1.0030603316334743,0.39341420767750745,0.12159570021784227,0.24979870354304085,0.10816793099804942,0.24766064265832732
1.0031074136586047,0.4102870696014962,0.1204973815792357,0.26258314989231946,0.10545591351892286,0.26054789279340274
1.003154495683735,0.41662904201390033,0.11760063313670988,0.266777273312063,0.10112317807643383,0.26479260827988926
1.0032015777088654,0.41405085665469693,0.11289174487590876,0.26326150551395927,0.09508420750388624,0.2612959334305908
1.0032486597339958,0.4030953535584088,0.10634727077863129,0.251751202986526,0.08716992529936579,0.2497976055314897
1.0032957417591262,0.38301151602067063,0.09777479183970197,0.2324239377319079,0.07734349748960469,0.23051139127863515
1.0033428237842565,0.3514583105172215,0.08683482803379204,0.2047530276495091,0.06542379049068046,0.2029538833593376
1.003389905809387,0.3042863356687068,0.07304364392717154,0.16911475512504195,0.05165650667334072,0.16754261087068575
1.0034369878345173,0.2364892670841809,0.057095063020640165,0.12615890065588273,0.036434257683056,0.12495031758101337
1.0034840698596477,0.14805992805189566,0.04073655935748776,0.07745804013496241,0.02105034597436321,0.07671585879112154
1.003531151884778,0.05937981673678241,0.029392832637370726,0.035632586371168055,0.009351407678892223,0.03529386038287886
1.0035782339099084,0.016571701488668728,0.027432357395851183,0.012038086514572617,0.0048203245144587585,0.011866247587848211
1.0036253159350388,0.04141534161646615,0.03713461635930059,0.014399178728297872,0.011732724357184072,0.013990311292754253
1.0036723979601692,0.0978579156313711,0.05489603290993582,0.03595348541122598,0.028559055982152536,0.03497118931392126
1.0037194799852995,0.14599333246590304,0.07760589135385174,0.06503465797160808,0.047492260908346795,0.06345278518572323
1.00376656201043,0.17300879075255565,0.09503943661744282,0.0922030709843016,0.0648944096802774,0.090144732051291
1.0038136440355603,0.18229222765708752,0.1057313383188468,0.11374971918924169,0.07560951329157059,0.11146043540919036
1.0038607260606907,0.18262972424027749,0.11036945002244854,0.12736778710133306,0.08248197762037998,0.12495771943535885
1.003907808085821,0.18292620727983336,0.11249091042094168,0.13485525602086357,0.08843912820570464,0.13234097900298866
1.0039548901109514,0.18798821740501145,0.1141847107337474,0.13913083302593265,0.09278995012709342,0.13654325913405305
1.0040019721360818,0.19658928748535154,0.11272469924197212,0.1397247738744464,0.0949553142987988,0.13709532376797967
1.0040490541612122,0.20361099360789395,0.108351842426688,0.1356935801867525,0.09597893528575352,0.13302237469770817
1.0040961361863425,0.20356945018764083,0.10076944510750002,0.1287855413388881,0.09441548129853088,0.12611273993055142
1.004143218211473,0.19261735903368254,0.09162662122033222,0.11776025800915435,0.09135576686098199,0.11510390400602767
1.0041903002366033,0.1692114287165738,0.07961678119165642,0.09836742477706704,0.08389974596901148,0.0958142142699824
1.0042373822617336,0.13469585530973552,0.06545682329046988,0.07519967777083232,0.0718527939567567,0.072904502047613
1.004284464286864,0.094068350002802,0.05018092726268725,0.051842634052145065,0.05699900338227086,0.049950285255587375
1.0043315463119944,0.0558705414627791,0.035707478786284164,0.03082107495389939,0.03989658350158145,0.029462987949004017
1.0043786283371248,0.029785725493520713,0.025845530655438407,0.019809015244991575,0.023800876309673726,0.018988736380243305
1.0044257103622551,0.022326134922130727,0.02104373274339642,0.01684685304795892,0.011773197914388335,0.016435389818281354
1.0044727923873855,0.03362727707623793,0.021014827016053214,0.01768087969631584,0.00609446872994139,0.01746238134874032
1.004519874412516,0.057935866130881315,0.025288823546760954,0.0238553638180855,0.006801403563097609,0.023609382200132624
1.0045669564376463,0.08691312585069338,0.03345572102678423,0.038233159934289905,0.014958329800442038,0.037704209793977456
1.0046140384627766,0.11302745450084833,0.04432582410371891,0.05542672474865837,0.030592618957102188,0.054377515540386945
1.004661120487907,0.13143773576861661,0.05539022540238055,0.07126698378066398,0.04909594098577403,0.06964133201513532
1.0047082025130374,0.140315951549541,0.06601501407198741,0.0817840112464661,0.06763241514379513,0.0796255802291092
1.0047552845381678,0.14016084842095028,0.07102556825538812,0.0846685751900148,0.0829066125249455,0.08209223946375747
1.0048023665632981,0.13271042804166153,0.07185389610112763,0.08028160564993014,0.09372322579003027,0.07739583674345632
1.0048494485884285,0.1199532079956697,0.06964953157922603,0.06958311394397716,0.10130928791681966,0.06643976749634255
1.0048965306135589,0.10352759540252561,0.06788004784879073,0.05738407400153901,0.10475226446526904,0.054078982100249876
1.0049436126386893,0.08458770500586026,0.0643789856040053,0.04469505929439128,0.10322653054055801,0.04136666628835496
1.0049906946638196,0.06411017510052013,0.06084048458267915,0.03435472552873721,0.0975067250473063,0.031151379934021523
1.00503777668895,0.043500849939608656,0.05481403186927734,0.022887706523455283,0.08885141628875556,0.019914437512134398
1.0050848587140804,0.02497562650004661,0.04681507781431706,0.013888116903115118,0.07710690053791452,0.011275411746073934
1.0051319407392107,0.011013597455985432,0.03858283006831531,0.011624969459267675,0.06337851252180039,0.009468609400837642
1.0051790227643411,0.003334338693202587,0.031342162286120474,0.009001101837417943,0.04699075916165563,0.007396037732194256
1.0052261047894715,0.0027948227754708652,0.021558038427187027,0.005716764128480125,0.028823534533055244,0.004729017859258402
1.0052731868146019,0.010164673003053454,0.013911918766278692,0.005314070387151807,0.013312240384952429,0.00485583235917986
1.0053202688397322,0.026566180290056158,0.009715442296496438,0.008193549268036414,0.0018570634634427969,0.008125217894572387
1.0053673508648626,0.05291846997433676,0.00879848598934735,0.011498759854167706,-0.0037240678664478316,0.011619525963300572
1.005414432889993,0.08828034555015178,0.00920675659424393,0.017065936640710815,-0.004694471011637832,0.017216716932989668
1.0054615149151234,0.12763762777320273,0.01160624889534886,0.025647230237824777,-0.0013557629646449073,0.025678592165549758
1.0055085969402537,0.16155770115500132,0.016416431089777913,0.038076850744054896,0.008701449067810696,0.03775886640427985
1.0055556789653841,0.18078890709766565,0.0232093417985693,0.05135766337998839,0.022936029402661574,0.05055905916107196
1.0056027609905145,0.18307418566708303,0.028262492327805908,0.06056084021799014,0.038387559496610234,0.059262377620667155
1.0056498430156449,0.1741533504439713,0.03389480648507902,0.06655908741414072,0.052577420606340595,0.06482185577613125
1.0056969250407752,0.16242605985016223,0.03801231971378256,0.07063087442771013,0.06468420187042905,0.06853494821511173
1.0057440070659056,0.15418810481596457,0.038732026599640604,0.07107575192890922,0.07188869376742486,0.06876920158283599
1.005791089091036,0.1523552110015489,0.03659565103882389,0.0660360559428213,0.07435930931007495,0.06364427720105255
1.0058381711161664,0.15691036178882456,0.03538451132122089,0.06130313889977103,0.07397538463158566,0.05891028604389303
1.0058852531412967,0.16538784679386007,0.03573865120089979,0.06307528196508604,0.07086555877939536,0.060779452953422124
1.005932335166427,0.17322460684996496,0.034422774460916926,0.06323184659303546,0.06492499593985135,0.061114384307492046
1.0059794171915575,0.17475929729964576,0.030412153215848545,0.05880087400333982,0.056315466510744996,0.05693903655597955
1.0060264992166879,0.16548577922015562,0.025673789580173037,0.05204155960234529,0.047340315588439964,0.05045386395128818
1.0060735812418182,0.1445721481217929,0.020881004440077282,0.04234591607178599,0.03718548383875257,0.041080269581211325
1.0061206632669486,0.11538472372115638,0.01672300930244554,0.03266210113426135,0.027693625242572618,0.03170887503473795
1.006167745292079,0.08342022676517998,0.01520002063584352,0.0259645785337829,0.020386741132006884,0.02525763395365861
1.0062148273172093,0.053714935068683495,0.01675083467732439,0.01794830890199036,0.015755360673407794,0.017401028627370394
1.0062619093423397,0.029620632829972474,0.019581365868867443,0.006428025048282717,0.014136876279685032,0.005941087269513125
1.00630899136747,0.012907514843990737,0.022105319628451848,-0.004503164505502606,0.013932676481414705,-0.0049777999131770225
1.0063560733926005,0.004292560353454192,0.025670593925754354,-0.010519166817943732,0.015389829100137923,-0.011040894446448183
1.0064031554177308,0.0038095921685766332,0.029827150498755277,-0.007972360122875525,0.016941926884001195,-0.008548647130760643
1.0064502374428612,0.010924293923755681,0.03724375166219549,0.0013341291502741227,0.0229112653268995,0.0005494204929351302
1.0064973194679916,0.02453035587728399,0.04460580505249454,0.011333716656649779,0.03094340631317901,0.010273233507530294
1.006544401493122,0.042966387475684646,0.05063981224956506,0.020787738978896356,0.03869785262568666,0.019466624209340994
1.0065914835182523,0.06411092062196938,0.05458950528031889,0.03329944681240632,0.0449445246830465,0.031776382226680944
1.0066385655433827,0.08556714248621351,0.059589922249560105,0.049462130528264495,0.050025164853000646,0.04778701330615554
1.006685647568513,0.10493697207975199,0.06200758132306623,0.06485229624100503,0.05301435355558458,0.0630996913680435
1.0067327295936435,0.12014720761669652,0.061797741182965826,0.07640706666955516,0.053733557737975765,0.07464661784888466
1.0067798116187738,0.12974860817624662,0.05802833765704391,0.08294186479002422,0.051730926393057194,0.08124917760735212
1.0068268936439042,0.1331160769266914,0.05422507851817821,0.08436945777741765,0.04733821478087396,0.08280949690928191
1.0068739756690346,0.13051634907150206,0.04902355745977832,0.08386978816652868,0.04230142981065779,0.08246164348564179
1.006921057694165,0.12301693370584733,0.04209962585918782,0.08185258015702256,0.03500249734198943,0.08066803685788256
1.0069681397192953,0.11219272060745543,0.0337918105901956,0.07585112215539112,0.026962511555207624,0.0749191644897028
1.0070152217444257,0.09964098937742749,0.02556652407135008,0.06985230351433948,0.019646779675135805,0.06915737944737527
1.007062303769556,0.08648287672211809,0.019636174041325862,0.06302251331950957,0.014532186151056226,0.062497929218790126
1.0071093857946865,0.07315337862299943,0.015689836076935845,0.053521194673379444,0.010972984385058875,0.053119203689911736
1.0071564678198168,0.05967551136841471,0.012220647480009724,0.042771215350936226,0.008134334849913773,0.04246999385484727
1.0072035498449472,0.046352747241279996,0.010036785440717228,0.029687677967592516,0.0074470711059686345,0.02941659764054775
1.0072506318700776,0.03458526276589038,0.009586644029304668,0.01916866027493343,0.008620063956815598,0.01886329982816373
1.007297713895208,0.02727830692374265,0.011143380596282969,0.01473006896934623,0.009984407974574972,0.014380580086135932
1.0073447959203383,0.0280866607277734,0.01521411986517133,0.01711698325886342,0.013626390116909647,0.016642379587459746
1.0073918779454687,0.03925806445151868,0.023997964224421246,0.028584290137595406,0.021392717633362462,0.02784269618825708
1.007438959970599,0.059562255279517966,0.03538156691739909,0.043832242766228824,0.03076003853323588,0.04277710496493832
1.0074860419957294,0.08449757331606145,0.04631947993178463,0.058037587268334905,0.04196035745632401,0.056624507855874265
1.0075331240208598,0.10858230355013457,0.0551114897630225,0.06858033205585247,0.052034427040318805,0.06686200818882575
1.0075802060459902,0.12742598805780986,0.06072522935872653,0.07621925524513734,0.059195573761587794,0.07429578460179634
1.0076272880711206,0.13840784538629322,0.06349109113597856,0.07904744927672683,0.06325490545860932,0.07700971626139559
1.007674370096251,0.14057521646913557,0.0618498344097451,0.0769603579802706,0.0641839783681451,0.07489150689228614
1.0077214521213813,0.1345761316442056,0.05654095170756235,0.07084930100861353,0.06177036108257423,0.0688403452322782
1.0077685341465117,0.12269802495893224,0.0488363059965821,0.062425783036096825,0.054758567739907504,0.060616626349009994
