freq,gls,usurper,pdc_unbiased,shape_periodogram,shift_periodogram
1.0,0.02176245538732735,0.007050448006578321,-0.007335655112181927,0.010693750660078334,-0.007556116456161321
1.0000470820251304,0.05134779247241603,0.009011290659982081,0.016081221596065367,0.007961527887741236,0.01591333706907907
1.0000941640502607,0.09689124580742478,0.01455531109620815,0.05094334186944231,0.006311217514772031,0.05080314817572475
1.0001412460753911,0.14848755125694818,0.021848247925346283,0.08456655871201842,0.009752362118602673,0.08435255341742251
1.0001883281005215,0.19664060203551523,0.028996665889808995,0.10917973127593883,0.018083620240182972,0.10880602397602615
1.0002354101256519,0.23592916525893703,0.034949749948393324,0.12678225514793529,0.02445634806533339,0.12629790835503213
1.0002824921507822,0.26363730657080775,0.03614399267256087,0.13936052532630389,0.027538050408378586,0.1388285698299983
1.0003295741759126,0.2780607972143743,0.036992287348884545,0.14663287491158739,0.02938362293024189,0.14607427286568525
1.000376656201043,0.27778293516045677,0.037586316570973166,0.14742341655727248,0.030981895646737114,0.1468400501902537
1.0004237382261734,0.2619162710265795,0.03531327870283308,0.139633635428265,0.032212824618630294,0.1390267220240729
1.0004708202513037,0.23107843684954268,0.03100478067458487,0.12167319492364326,0.03192903811977682,0.12106111092800075
1.0005179022764341,0.1884924826566669,0.025328978941790762,0.09811663264576473,0.0314270489963525,0.09750147171796797
1.0005649843015645,0.1401213853463462,0.02121037296566943,0.07552593926328457,0.02955902546474163,0.07493496303914032
1.0006120663266949,0.09311329616242185,0.019108050704835067,0.056936636782797936,0.026962801240887964,0.0563887789512337
1.0006591483518252,0.05338098213176131,0.019532715524813647,0.04656239048066332,0.022702134513215757,0.04609528810821883
1.0007062303769556,0.024158292773911582,0.019968993493616107,0.0379052596807291,0.016997064984207097,0.03755104224780257
1.000753312402086,0.006389706849983347,0.022127005647329324,0.024925530867037873,0.010746727944213498,0.024699090699194532
1.0008003944272164,4.4957735270936574e-05,0.025722806553373737,0.013623927240606612,0.005711092107455276,0.013502894687001468
1.0008474764523467,0.004476680458159687,0.025961162750655863,0.005279248516488982,0.006406619088550049,0.005145451390633001
1.000894558477477,0.016631009383087918,0.02847025958048472,0.00604487589630294,0.010585031224665272,0.005824545512294711
1.0009416405026075,0.030279800796216314,0.03275767053826279,0.01614856324889533,0.01698132120943282,0.015795577225800907
1.0009887225277379,0.04019506929021177,0.038173006698665385,0.031662352407458065,0.02492980473695688,0.031149335399320435
1.0010358045528682,0.045271217739530065,0.042011630540487815,0.049643587368788454,0.035732855274054176,0.04892626898148514
1.0010828865779986,0.04665854735345898,0.04487705319272274,0.06394396252727896,0.04620577500331787,0.06304553793652277
1.001129968603129,0.04557434040645729,0.047007136356085465,0.06951556918541625,0.055114179413319385,0.06847021026894794
1.0011770506282593,0.04281463251624272,0.04690695586897446,0.06676401531502141,0.05955706760189488,0.06563955198501926
1.0012241326533897,0.03911406922799136,0.04173268421609804,0.05756222886158259,0.059950381968793195,0.05641464560872666
1.00127121467852,0.035734840091298535,0.032621310823171046,0.04469056838221148,0.05847639447446059,0.04354699924120053
1.0013182967036505,0.034632288517627896,0.0249740439582898,0.03354469161607427,0.05612673514656744,0.03242725152750833
1.0013653787287808,0.03686446430802818,0.02268551369285938,0.03235087082016887,0.05367675223458162,0.031278237036052224
1.0014124607539112,0.040499198873267514,0.02504107430437313,0.04235422606047071,0.052657945428150894,0.04131391358532194
1.0014595427790416,0.04245011553894062,0.029842855373213663,0.05148956578485458,0.05238124682782971,0.05046628705045242
1.001506624804172,0.04142424671447975,0.031093900973136517,0.057489670337512934,0.048744300805561476,0.0565390690433824
1.0015537068293023,0.03772147907862947,0.030156819550906093,0.05838903434484734,0.04175382654442017,0.0575655970998836
1.0016007888544327,0.032149333674356434,0.02803193582876816,0.05286952532393206,0.032645480709850884,0.05221219012667465
1.001647870879563,0.025799799790141527,0.025801367077093643,0.040386054375886556,0.021467640212503986,0.039942753388766364
1.0016949529046935,0.020580986012262138,0.020436829340518957,0.02276083148008517,0.010396334624880498,0.022541869529329902
1.0017420349298238,0.01993155776046648,0.01850484685942789,0.008396000375120035,0.003078213406391758,0.008330448803454772
1.0017891169549542,0.027489951613850306,0.01950182502964119,0.00883020356959996,0.004487427942371815,0.008735405971956425
1.0018361989800846,0.042074300128446054,0.020934796739680298,0.022145335055818467,0.009454622751180442,0.02194576148238414
1.001883281005215,0.05845891480384451,0.02646961128194362,0.04104344236602053,0.01909252034939977,0.040647344449722386
1.0019303630303453,0.07582159493280267,0.028896139728828173,0.05832937685591873,0.029482575487536425,0.05773397420564539
1.0019774450554757,0.09824195100672209,0.028463150618653683,0.07041397317164165,0.04066280514809771,0.06961969141518362
1.002024527080606,0.1303669711588208,0.024289743249321052,0.07896421651578898,0.04691396312765226,0.07806949386885324
1.0020716091057364,0.17464242099810953,0.01997711025530511,0.08832693698111686,0.05131070214115356,0.08737120483380684
1.0021186911308668,0.22917237164395338,0.02157018844029269,0.11355266104308831,0.054242076942961986,0.11258955432340854
1.0021657731559972,0.2864808872447173,0.026291720630662877,0.14880372324738836,0.05696491045691925,0.1478654488642323
1.0022128551811276,0.335488571803669,0.03096453549261129,0.17945522269565434,0.059758033188147056,0.17854733069795065
1.002259937206258,0.3667004160945303,0.03401065639852826,0.20044309409803335,0.061762775105968025,0.19956350727174008
1.0023070192313883,0.37630521047742305,0.03536657768288896,0.20989430295355302,0.0621178562724064,0.20903355379727204
1.0023541012565187,0.3658732131217113,0.03504298748829201,0.20800353236518512,0.06088671401203058,0.20714732971621377
1.002401183281649,0.3393357840705059,0.035315163282970685,0.19716291122807472,0.057683524958167094,0.19630965809699413
1.0024482653067794,0.30043566038503033,0.034033062232223805,0.1783931936762516,0.05004603757416342,0.17758326442178538
1.0024953473319098,0.25183659939415354,0.02712262585762514,0.15384153094853617,0.03810292299907499,0.15315593661838886
1.0025424293570402,0.1956066522565673,0.0172291704435636,0.12081929242955049,0.02277430618788865,0.12036275416192461
1.0025895113821706,0.13475970805500284,0.008962637471214535,0.07564140824241966,0.006448700209114893,0.07549431243997606
1.002636593407301,0.07582916802294695,0.004102405805097051,0.025728531183742454,-0.0051950077157686125,0.025830914202950882
1.0026836754324313,0.03145358980808763,0.004674500060610582,-0.0040036080406334615,-0.0058467411346253325,-0.0038816462589421463
1.0027307574575617,0.01779891286180085,0.011074772504751683,-0.006351274616742859,0.005835843146215925,-0.006470958527467393
1.002777839482692,0.04358985242398123,0.00994331092649149,0.006591376950054447,0.023744359018459057,0.006099619526041561
1.0028249215078224,0.1037077589167159,0.014749664980537761,0.04281328660270074,0.03752949458096678,0.04205800101099376
1.0028720035329528,0.18101238562213362,0.029216343390055667,0.0979436666785688,0.03844133534862817,0.09720866589167476
1.0029190855580832,0.25636899888384335,0.04560728750807135,0.15380629462607742,0.04019885979486152,0.15309100755897073
1.0029661675832136,0.31832235074100634,0.05267165213573307,0.19704252226634572,0.041855960758515845,0.19634964292001256
1.003013249608344,0.36361141655314383,0.057282569897916774,0.228525784613192,0.03989088903151176,0.22788819749318356
1.0030603316334743,0.39341420767750745,0.05964428860217572,0.24979870354304085,0.036391920508761534,0.24921829828147246
1.0031074136586047,0.4102870696014962,0.05969689119139922,0.26258314989231946,0.033750785849836006,0.26204110384832413
1.003154495683735,0.41662904201390033,0.058840510295552685,0.266777273312063,0.03102132823252721,0.26626744658488544
1.0032015777088654,0.41405085665469693,0.05659196221429888,0.26326150551395927,0.027882229385553355,0.26278503185445945
1.0032486597339958,0.4030953535584088,0.053051882261311425,0.251751202986526,0.023891524986440506,0.25131884420342177
1.0032957417591262,0.38301151602067063,0.04826427245785556,0.2324239377319079,0.019338283623701238,0.23204896476214884
1.0033428237842565,0.3514583105172215,0.041991233948456254,0.2047530276495091,0.01384617206971489,0.20446054425415466
1.003389905809387,0.3042863356687068,0.03388325882027087,0.16911475512504195,0.00793300239621732,0.1689272207211377
1.0034369878345173,0.2364892670841809,0.024450690104542695,0.12615890065588273,0.0014055792377023495,0.12610392062487705
1.0034840698596477,0.14805992805189566,0.015119580614508072,0.07745804013496241,-0.004852926575402271,0.07754208152398354
1.003531151884778,0.05937981673678241,0.009501421218504206,0.035632586371168055,-0.009491699142254555,0.035822889464989426
1.0035782339099084,0.016571701488668728,0.010099590646080157,0.012038086514572617,-0.011670148223429568,0.012278142356688575
1.0036253159350388,0.04141534161646615,0.017989516383882808,0.014399178728297872,-0.00917660609793839,0.01458682196191902
1.0036723979601692,0.0978579156313711,0.028872262183603694,0.03595348541122598,0.0006000794303929821,0.03593336759562117
1.0037194799852995,0.14599333246590304,0.04188960726443237,0.06503465797160808,0.0113811449135875,0.06479054750773046
1.00376656201043,0.17300879075255565,0.0494621882220748,0.0922030709843016,0.022055174560081225,0.09175426911525224
1.0038136440355603,0.18229222765708752,0.05590396832668731,0.11374971918924169,0.029120942273533634,0.11318108213000873
1.0038607260606907,0.18262972424027749,0.060558435016220866,0.12736778710133306,0.033848805650618985,0.12672773079395133
1.003907808085821,0.18292620727983336,0.06394743255820962,0.13485525602086357,0.03861469912935182,0.1341463951587035
1.0039548901109514,0.18798821740501145,0.06537160137627339,0.13913083302593265,0.043728344246416556,0.13835109873075557
1.0040019721360818,0.19658928748535154,0.06250140582530961,0.1397247738744464,0.047230808976506396,0.13889685546783728
1.0040490541612122,0.20361099360789395,0.05671252679739685,0.1356935801867525,0.04922385725381396,0.13483314290183387
1.0040961361863425,0.20356945018764083,0.04859538274506043,0.1287855413388881,0.048913036877705915,0.12792016573499962
1.004143218211473,0.19261735903368254,0.04000513834407128,0.11776025800915435,0.04794384692483218,0.11689471196299014
1.0041903002366033,0.1692114287165738,0.030395141063513636,0.09836742477706704,0.04419045541463839,0.09753818594754542
1.0042373822617336,0.13469585530973552,0.020711740352627888,0.07519967777083232,0.03719513138699224,0.07447047268095765
1.004284464286864,0.094068350002802,0.011196807470635716,0.051842634052145065,0.02842788938390113,0.051265384658347075
1.0043315463119944,0.0558705414627791,0.003145416665380799,0.03082107495389939,0.01750550252674044,0.030456841137588127
1.0043786283371248,0.029785725493520713,-0.0013547918745649072,0.019809015244991575,0.005569339585306999,0.01968971309324981
1.0044257103622551,0.022326134922130727,-0.0024006274587968003,0.01684685304795892,-0.004330208788648416,0.0169330977170623
1.0044727923873855,0.03362727707623793,-0.001134266100444944,0.01768087969631584,-0.009510339146020726,0.017874895664472732
1.004519874412516,0.057935866130881315,0.002090387891374523,0.0238553638180855,-0.009791711959673363,0.024054149880448693
1.0045669564376463,0.08691312585069338,0.006943304329208773,0.038233159934289905,-0.004748044095752495,0.03832357663557332
1.0046140384627766,0.11302745450084833,0.012403850352382787,0.05542672474865837,0.00548782135301342,0.055302476928801546
1.004661120487907,0.13143773576861661,0.018414364810932345,0.07126698378066398,0.01768478587110705,0.07089905113112742
1.0047082025130374,0.140315951549541,0.0233712578020523,0.0817840112464661,0.02969298082436916,0.08119286986685603
1.0047552845381678,0.14016084842095028,0.024568453862484546,0.0846685751900148,0.039844346422662776,0.08389969562138049
1.0048023665632981,0.13271042804166153,0.024014648481553814,0.08028160564993014,0.047740386118742394,0.07937444117101664
1.0048494485884285,0.1199532079956697,0.02116894331675223,0.06958311394397716,0.05453024915462629,0.0685477021489761
1.0048965306135589,0.10352759540252561,0.019460427866439728,0.05738407400153901,0.0583337651391094,0.056264196354287616
1.0049436126386893,0.08458770500586026,0.015254013213680629,0.04469505929439128,0.057930400465648256,0.04356141378531768
1.0049906946638196,0.06411017510052013,0.012474440829834963,0.03435472552873721,0.05368657828038409,0.033284579579351777
1.00503777668895,0.043500849939608656,0.006832894033069065,0.022887706523455283,0.0491880893365942,0.02189064297329143
1.0050848587140804,0.02497562650004661,0.003054389027736451,0.013888116903115118,0.04320751382689018,0.01300206125262175
1.0051319407392107,0.011013597455985432,0.0018541599917842417,0.011624969459267675,0.034184043129991744,0.010920540752279138
1.0051790227643411,0.003334338693202587,0.0020101418248235983,0.009001101837417943,0.024076507976921225,0.008502715865666628
1.0052261047894715,0.0027948227754708652,-0.0024442437302304933,0.005716764128480125,0.013449259360757809,0.005437311248703628
1.0052731868146019,0.010164673003053454,-0.006534593510736911,0.005314070387151807,0.004338376703482648,0.0052230710673103805
1.0053202688397322,0.026566180290056158,-0.00885935156801844,0.008193549268036414,-0.0026980411012459413,0.008247729644586501
1.0053673508648626,0.05291846997433676,-0.009564725213376507,0.011498759854167706,-0.00554437503542108,0.01161135063645414
1.005414432889993,0.08828034555015178,-0.00840971042002374,0.017065936640710815,-0.004291017031269173,0.017151320568388865
1.0054615149151234,0.12763762777320273,-0.006601004747941757,0.025647230237824777,0.0001248463889273259,0.025639140801300905
1.0055085969402537,0.16155770115500132,-0.004913887865923697,0.038076850744054896,0.0075215601964198076,0.03791421192993566
1.0055556789653841,0.18078890709766565,-0.002447554810682276,0.05135766337998839,0.017012548346344327,0.05100283067015818
1.0056027609905145,0.18307418566708303,-0.0016049753282105974,0.06056084021799014,0.026737202181845315,0.06001816049670816
1.0056498430156449,0.1741533504439713,0.0001762122848248768,0.06655908741414072,0.03494482305829379,0.06586544647992945
1.0056969250407752,0.16242605985016223,0.001327430828888106,0.07063087442771013,0.04192037746266006,0.06981448202920652
1.0057440070659056,0.15418810481596457,0.0012227073659646474,0.07107575192890922,0.04529408166499646,0.07020056521818449
1.005791089091036,0.1523552110015489,-0.00012567791477564337,0.0660360559428213,0.04546945110706171,0.06515276860648062
1.0058381711161664,0.15691036178882456,1.4667965051161119e-05,0.06130313889977103,0.04362529047391517,0.06044826167920114
1.0058852531412967,0.16538784679386007,0.0025837560627440075,0.06307528196508604,0.04033492969832752,0.06228126879660694
1.005932335166427,0.17322460684996496,0.005099174930027045,0.06323184659303546,0.03406685994767553,0.06255264766379615
1.0059794171915575,0.17475929729964576,0.005654062232419767,0.05880087400333982,0.026502674614017067,0.05826224679262783
1.0060264992166879,0.16548577922015562,0.004822598192913408,0.05204155960234529,0.019695678708891412,0.05163386114338807
1.0060735812418182,0.1445721481217929,0.0025869081870542442,0.04234591607178599,0.013745353714711262,0.042056697756272535
1.0061206632669486,0.11538472372115638,-0.0003040711740757153,0.03266210113426135,0.008357409292976839,0.032483298755829206
1.006167745292079,0.08342022676517998,-0.002195247558314528,0.0259645785337829,0.0037145478331421246,0.025882279385047793
1.0062148273172093,0.053714935068683495,-0.002143484937308531,0.01794830890199036,0.001569450883738018,0.017911966836083874
1.0062619093423397,0.029620632829972474,-0.0012716071626837663,0.006428025048282717,0.0007546581457272092,0.0064110073570074365
1.00630899136747,0.012907514843990737,-0.0003018321053571188,-0.004503164505502606,0.0016769361700577352,-0.00453695641421305
1.0063560733926005,0.004292560353454192,0.0015476550543238887,-0.010519166817943732,0.0034674173208606635,-0.010588820108289015
1.0064031554177308,0.0038095921685766332,0.004952068313797629,-0.007972360122875525,0.004270637732028507,-0.008059219965431056
1.0064502374428612,0.010924293923755681,0.0105512142762017,0.0013341291502741227,0.007308135877493368,0.0011824167129745264
1.0064973194679916,0.02453035587728399,0.014088069255947239,0.011333716656649779,0.011511389898964112,0.011093494296764641
1.006544401493122,0.042966387475684646,0.016216976047455003,0.020787738978896356,0.015001178468435003,0.020474884866622904
1.0065914835182523,0.06411092062196938,0.016264932265193047,0.03329944681240632,0.0170690393100478,0.032943930661513236
1.0066385655433827,0.08556714248621351,0.018380820260231436,0.049462130528264495,0.01857955479204759,0.04907633184187901
1.006685647568513,0.10493697207975199,0.020529522219088176,0.06485229624100503,0.0191682408138732,0.06445545319552752
1.0067327295936435,0.12014720761669652,0.02135526089006152,0.07640706666955516,0.018986186162534054,0.07601431626143836
1.0067798116187738,0.12974860817624662,0.01958144162347177,0.08294186479002422,0.017851666866543794,0.08257106661013792
1.0068268936439042,0.1331160769266914,0.018806720733038334,0.08436945777741765,0.01526182027231977,0.08404824884803064
1.0068739756690346,0.13051634907150206,0.016847452345660624,0.08386978816652868,0.013049842341533294,0.0835913560536714
1.006921057694165,0.12301693370584733,0.013462395698330527,0.08185258015702256,0.008376764434232586,0.08166609678048854
1.0069681397192953,0.11219272060745543,0.008445669756579044,0.07585112215539112,0.0028539608002022135,0.07577659368537312
1.0070152217444257,0.09964098937742749,0.0031966560655063442,0.06985230351433948,-0.0025770038929389984,0.0698906217003896
1.007062303769556,0.08648287672211809,-0.0010694329191235404,0.06302251331950957,-0.006821477856671416,0.06315102387810578
1.0071093857946865,0.07315337862299943,-0.0040166917361256545,0.053521194673379444,-0.009632809497458731,0.053710992968294353
1.0071564678198168,0.05967551136841471,-0.006761256067853197,0.042771215350936226,-0.011107094686907576,0.04299424818476179
1.0072035498449472,0.046352747241279996,-0.008750439521742707,0.029687677967592516,-0.01122708694105502,0.029915557646251992
1.0072506318700776,0.03458526276589038,-0.009714879982208196,0.01916866027493343,-0.01039430724861432,0.019380888759800177
1.007297713895208,0.02727830692374265,-0.009547137066198787,0.01473006896934623,-0.00917029395536078,0.014917520693641937
1.0073447959203383,0.0280866607277734,-0.008414438397348206,0.01711698325886342,-0.006663463314170865,0.01725172703525757
1.0073918779454687,0.03925806445151868,-0.004146332998338285,0.028584290137595406,-0.002979779104713445,0.028639961743112622
1.007438959970599,0.059562255279517966,0.0019640948801001915,0.043832242766228824,0.001312053340884443,0.04379577086110539
1.0074860419957294,0.08449757331606145,0.007671347420979629,0.058037587268334905,0.006050091514286602,0.05790146620888972
1.0075331240208598,0.10858230355013457,0.011038095957674438,0.06858033205585247,0.010381111667242026,0.06835570480764395
1.0075802060459902,0.12742598805780986,0.013812452310170649,0.07621925524513734,0.014750481410737985,0.07590814220689421
1.0076272880711206,0.13840784538629322,0.015360241264931077,0.07904744927672683,0.01834249527212773,0.07866712968227561
1.007674370096251,0.14057521646913557,0.014925333097484384,0.0769603579802706,0.02084182472749921,0.07653232461606162
