freq,gls,usurper,pdc_unbiased,shape_periodogram,shift_periodogram
1.0,0.02176245538732735,0.03426382022638233,-0.007335655112181927,0.017857808062636954,-0.008683457255912694
1.0000470820251304,0.05134779247241603,0.05765367595467109,0.016081221596065367,0.0335406495302237,0.013472803870916547
1.0000941640502607,0.09689124580742478,0.08336767677905452,0.05094334186944231,0.057624718492316894,0.04647200742355449
1.0001412460753911,0.14848755125694818,0.10987816893286331,0.08456655871201842,0.08466332633158491,0.07817654841914867
1.0001883281005215,0.19664060203551523,0.1337719399422065,0.10917973127593883,0.11230801132732776,0.10103232838282611
1.0002354101256519,0.23592916525893703,0.15113072241181696,0.12678225514793529,0.13353895184920997,0.11744815371383249
1.0002824921507822,0.26363730657080775,0.16143792304884985,0.13936052532630389,0.1473052945121069,0.12936198522637793
1.0003295741759126,0.2780607972143743,0.1680017337197324,0.14663287491158739,0.15608371627981965,0.13624488483222894
1.000376656201043,0.27778293516045677,0.1705784734607708,0.14742341655727248,0.16041447166807715,0.13681432638443902
1.0004237382261734,0.2619162710265795,0.1668430199596045,0.139633635428265,0.16053313013733447,0.12890347789206866
1.0004708202513037,0.23107843684954268,0.15670059469647898,0.12167319492364326,0.15492141673357487,0.11101316491400232
1.0005179022764341,0.1884924826566669,0.1428937913567774,0.09811663264576473,0.1461429079225883,0.08771241768777532
1.0005649843015645,0.1401213853463462,0.13239060032376482,0.07552593926328457,0.1388205600470204,0.06537867343460317
1.0006120663266949,0.09311329616242185,0.12583445980856592,0.056936636782797936,0.13262295181181002,0.04706514142361108
1.0006591483518252,0.05338098213176131,0.12404064847916013,0.04656239048066332,0.12608810577538201,0.03708686079101998
1.0007062303769556,0.024158292773911582,0.1213588692308727,0.0379052596807291,0.11718388930627253,0.029031307965952744
1.000753312402086,0.006389706849983347,0.11579025806701104,0.024925530867037873,0.10429960437005519,0.01695955998151152
1.0008003944272164,4.4957735270936574e-05,0.11183411279498678,0.013623927240606612,0.09204312567911566,0.006561330756540624
1.0008474764523467,0.004476680458159687,0.10890413322950163,0.005279248516488982,0.08863604436768763,-0.0015327334237817906
1.000894558477477,0.016631009383087918,0.11500825716955561,0.00604487589630294,0.094775481401867,-0.001239214966408005
1.0009416405026075,0.030279800796216314,0.13134834528396108,0.01614856324889533,0.11037143542871339,0.007694303734512308
1.0009887225277379,0.04019506929021177,0.15407971816786895,0.031662352407458065,0.13406287859316024,0.021503611917217207
1.0010358045528682,0.045271217739530065,0.17474508828509341,0.049643587368788454,0.1607695943470119,0.037706048384899916
1.0010828865779986,0.04665854735345898,0.18887743190422243,0.06394396252727896,0.1841775948716098,0.05057825656267144
1.001129968603129,0.04557434040645729,0.1958450707490906,0.06951556918541625,0.19900714064488878,0.055255545199347895
1.0011770506282593,0.04281463251624272,0.19278382891679144,0.06676401531502141,0.20271655283280438,0.05220033623330857
1.0012241326533897,0.03911406922799136,0.18103997639540215,0.05756222886158259,0.1972359152614767,0.04318672695785503
1.00127121467852,0.035734840091298535,0.1646846667401071,0.04469056838221148,0.18657590845765493,0.030837062704699818
1.0013182967036505,0.034632288517627896,0.15155888745589194,0.03354469161607427,0.1781420111601615,0.020135326359172336
1.0013653787287808,0.03686446430802818,0.1499198022855943,0.03235087082016887,0.17613314218002596,0.019073698932847872
1.0014124607539112,0.040499198873267514,0.15869176754645814,0.04235422606047071,0.1814663166571675,0.028832239736696432
1.0014595427790416,0.04245011553894062,0.1705518568383612,0.05148956578485458,0.19005996889463367,0.03750339011716199
1.001506624804172,0.04142424671447975,0.17795137860307617,0.057489670337512934,0.19314754053980837,0.04339541631783687
1.0015537068293023,0.03772147907862947,0.17843295392822722,0.05838903434484734,0.18738519736507278,0.0447091269112625
1.0016007888544327,0.032149333674356434,0.170519664566888,0.05286952532393206,0.17186186886551233,0.04018737527388048
1.001647870879563,0.025799799790141527,0.15389419078355232,0.040386054375886556,0.14692014801266992,0.029350508079629675
1.0016949529046935,0.020580986012262138,0.13049127998646073,0.02276083148008517,0.11807139756050553,0.013749117016521142
1.0017420349298238,0.01993155776046648,0.11290850628770913,0.008396000375120035,0.09542607435745375,0.001065782190448336
1.0017891169549542,0.027489951613850306,0.10801577668596564,0.00883020356959996,0.08984997923409538,0.0019288835953857873
1.0018361989800846,0.042074300128446054,0.11151593169128417,0.022145335055818467,0.0976812033307549,0.01467078607044583
1.001883281005215,0.05845891480384451,0.12410621703842367,0.04104344236602053,0.1150894330959442,0.03233827002155872
1.0019303630303453,0.07582159493280267,0.13919261140731365,0.05832937685591873,0.13439271411878162,0.04834364714962052
1.0019774450554757,0.09824195100672209,0.14818105574241186,0.07041397317164165,0.15115044133323727,0.05938039367232166
1.002024527080606,0.1303669711588208,0.14477456654992366,0.07896421651578898,0.15796124323012578,0.06757266387871243
1.0020716091057364,0.17464242099810953,0.13655240221027448,0.08832693698111686,0.15919394561280478,0.07697236128342476
1.0021186911308668,0.22917237164395338,0.13937254463001442,0.11355266104308831,0.16317682617272566,0.10229369256891838
1.0021657731559972,0.2864808872447173,0.1504342466953105,0.14880372324738836,0.1713469490803999,0.13764222737058276
1.0022128551811276,0.335488571803669,0.16151204131081706,0.17945522269565434,0.17943762148747947,0.1684647848823708
1.002259937206258,0.3667004160945303,0.16767659656220438,0.20044309409803335,0.18317785548208745,0.18972059557058563
1.0023070192313883,0.37630521047742305,0.16774694597631656,0.20989430295355302,0.18107043052906444,0.19944851381656875
1.0023541012565187,0.3658732131217113,0.16210758080990487,0.20800353236518512,0.17352782506693307,0.19780960555706675
1.002401183281649,0.3393357840705059,0.1530591778751798,0.19716291122807472,0.16145614259916113,0.18727831973534506
1.0024482653067794,0.30043566038503033,0.14101684976971113,0.1783931936762516,0.143421318020263,0.1690843555047323
1.0024953473319098,0.25183659939415354,0.12415546858105671,0.15384153094853617,0.11821778098057396,0.14564321433600702
1.0025424293570402,0.1956066522565673,0.09949204323984913,0.12081929242955049,0.08678660943483789,0.11438309794471631
1.0025895113821706,0.13475970805500284,0.06849122557095244,0.07564140824241966,0.049063456809117084,0.07177803183460117
1.002636593407301,0.07582916802294695,0.04046196567270871,0.025728531183742454,0.01685153571075508,0.024366619753369585
1.0026836754324313,0.03145358980808763,0.02877004634736649,-0.0040036080406334615,0.005797852085143997,-0.004436084622102646
1.0027307574575617,0.01779891286180085,0.0366892252648766,-0.006351274616742859,0.020987149742125417,-0.007942084680062482
1.002777839482692,0.04358985242398123,0.05020972478612555,0.006591376950054447,0.05211922278705819,0.0025827362769808068
1.0028249215078224,0.1037077589167159,0.07602386716504428,0.04281328660270074,0.08629142066538012,0.03622717472415629
1.0028720035329528,0.18101238562213362,0.11180741732444748,0.0979436666785688,0.11759089808599557,0.08938225853324477
1.0029190855580832,0.25636899888384335,0.14560904924799312,0.15380629462607742,0.14103097242516308,0.14432715082995168
1.0029661675832136,0.31832235074100634,0.17071419265004967,0.19704252226634572,0.1535534780763813,0.1875063515121415
1.003013249608344,0.36361141655314383,0.18478131983157756,0.228525784613192,0.16049920775361248,0.21920022746848772
1.0030603316334743,0.39341420767750745,0.19224501986602238,0.24979870354304085,0.1631178456095621,0.24074886054625289
1.0031074136586047,0.4102870696014962,0.19445169782372126,0.26258314989231946,0.1625977923935291,0.25377807463854807
1.003154495683735,0.41662904201390033,0.19317627063974008,0.266777273312063,0.15940441107941572,0.25814388986467945
1.0032015777088654,0.41405085665469693,0.18858150573245627,0.26326150551395927,0.15340813442072196,0.25475879678951135
1.0032486597339958,0.4030953535584088,0.18055763726199248,0.251751202986526,0.14431541142086335,0.24338965091368622
1.0032957417591262,0.38301151602067063,0.1688345938571094,0.2324239377319079,0.13203618892058233,0.22430091265354699
1.0033428237842565,0.3514583105172215,0.1529604380398003,0.2047530276495091,0.1163541900944316,0.19707894797843528
1.003389905809387,0.3042863356687068,0.13256041222934198,0.16911475512504195,0.09768958885673182,0.1622071030877053
1.0034369878345173,0.2364892670841809,0.10837841766037133,0.12615890065588273,0.07651545788148295,0.12041236713753807
1.0034840698596477,0.14805992805189566,0.08250354099362864,0.07745804013496241,0.05475556078613289,0.07318156645490569
1.003531151884778,0.05937981673678241,0.06453377612756973,0.035632586371168055,0.03965543325845039,0.03252077502072579
1.0035782339099084,0.016571701488668728,0.06315361549416006,0.012038086514572617,0.038397048933015904,0.009068249696935595
1.0036253159350388,0.04141534161646615,0.08314676256779252,0.014399178728297872,0.056495717841191784,0.010045685574602054
1.0036723979601692,0.0978579156313711,0.11681188563516687,0.03595348541122598,0.08864341493474581,0.029182431903663944
1.0037194799852995,0.14599333246590304,0.15611094468884795,0.06503465797160808,0.1251984384228819,0.055741967202300964
1.00376656201043,0.17300879075255565,0.18729313428169445,0.0922030709843016,0.1579969026833243,0.08097469285487563
1.0038136440355603,0.18229222765708752,0.20833890583974443,0.11374971918924169,0.1794240800731108,0.10153929793446023
1.0038607260606907,0.18262972424027749,0.21910027345068964,0.12736778710133306,0.1935783613460072,0.11462799383687088
1.003907808085821,0.18292620727983336,0.22300522626474176,0.13485525602086357,0.20354889160294198,0.12175981570197546
1.0039548901109514,0.18798821740501145,0.22401459904318224,0.13913083302593265,0.2080827229116883,0.125910988261943
1.0040019721360818,0.19658928748535154,0.22062752232866023,0.1397247738744464,0.20746188659145762,0.12655036528923813
1.0040490541612122,0.20361099360789395,0.21335934598671571,0.1356935801867525,0.20287893555923608,0.12265203621787403
1.0040961361863425,0.20356945018764083,0.20091924505386588,0.1287855413388881,0.19450237633769202,0.11602626870973295
1.004143218211473,0.19261735903368254,0.18349257866230226,0.11776025800915435,0.18233314956277352,0.10545446857888405
1.0041903002366033,0.1692114287165738,0.1604385523598127,0.09836742477706704,0.16375556355179927,0.08685825007728985
1.0042373822617336,0.13469585530973552,0.1341045338367197,0.07519967777083232,0.14021240938546922,0.06495529919568334
1.004284464286864,0.094068350002802,0.1083905355029247,0.051842634052145065,0.11497863216769787,0.043197624703241455
1.0043315463119944,0.0558705414627791,0.08552577583439974,0.03082107495389939,0.08929403520643704,0.02399314512630118
1.0043786283371248,0.029785725493520713,0.07080131398611167,0.019809015244991575,0.06796083837978441,0.014580279340524234
1.0044257103622551,0.022326134922130727,0.06442774259143344,0.01684685304795892,0.053748251986802144,0.012699343967411498
1.0044727923873855,0.03362727707623793,0.0653158427732621,0.01768087969631584,0.048538710818709134,0.013928133826443761
1.004519874412516,0.057935866130881315,0.07239690340523032,0.0238553638180855,0.05166780647551219,0.019856306117565118
1.0045669564376463,0.08691312585069338,0.08609733902439977,0.038233159934289905,0.0645100203917472,0.033257404519370384
1.0046140384627766,0.11302745450084833,0.10416763986897937,0.05542672474865837,0.08603071207578702,0.04888094360563519
1.004661120487907,0.13143773576861661,0.12188001626066565,0.07126698378066398,0.11001536175166354,0.06306806023503142
1.0047082025130374,0.140315951549541,0.13677832984457775,0.0817840112464661,0.1325702251120862,0.07211129643717225
1.0047552845381678,0.14016084842095028,0.14383360532862577,0.0846685751900148,0.14966866944374765,0.07388970193341998
1.0048023665632981,0.13271042804166153,0.14314283534883043,0.08028160564993014,0.15934151238199554,0.06881531872758866
1.0048494485884285,0.1199532079956697,0.13697883543958994,0.06958311394397716,0.16387433007654065,0.057677434867818705
1.0048965306135589,0.10352759540252561,0.12882376979204713,0.05738407400153901,0.16199759817572465,0.0454530177004995
1.0049436126386893,0.08458770500586026,0.11713100799359395,0.04469505929439128,0.15422395551959012,0.03317183017859632
1.0049906946638196,0.06411017510052013,0.10605059166789473,0.03435472552873721,0.1425346641875937,0.023588592238137713
1.00503777668895,0.043500849939608656,0.09332092303111761,0.022887706523455283,0.12774174479044156,0.013146555489510318
1.0050848587140804,0.02497562650004661,0.07898838373881811,0.013888116903115118,0.10933993327471592,0.0055049006351568
1.0051319407392107,0.011013597455985432,0.06727809086065645,0.011624969459267675,0.09053725817849366,0.004674571696211311
1.0051790227643411,0.003334338693202587,0.056302530325004194,0.009001101837417943,0.07036425748568156,0.0035932083453588475
1.0052261047894715,0.0027948227754708652,0.04167565473332705,0.005716764128480125,0.04847760564572425,0.0019884650361850545
1.0052731868146019,0.010164673003053454,0.02855837758713363,0.005314070387151807,0.029076691242316665,0.003072213260698386
1.0053202688397322,0.026566180290056158,0.019678856431132506,0.008193549268036414,0.013827103880014749,0.007110932809720257
1.0053673508648626,0.05291846997433676,0.015179294017448202,0.011498759854167706,0.005171559347413953,0.011068994357309634
1.005414432889993,0.08828034555015178,0.014427252030449441,0.017065936640710815,0.0018951636653551974,0.01687069735110435
1.0054615149151234,0.12763762777320273,0.016625571200861163,0.025647230237824777,0.003770749211559511,0.02528348195138076
1.0055085969402537,0.16155770115500132,0.022571054777474175,0.038076850744054896,0.013770980397888514,0.036915808899507796
1.0055556789653841,0.18078890709766565,0.031065770606910088,0.05135766337998839,0.02902130248578136,0.04901272867103571
1.0056027609905145,0.18307418566708303,0.03779296556428936,0.06056084021799014,0.04560913921311423,0.056966441689155295
1.0056498430156449,0.1741533504439713,0.04385941705525097,0.06655908741414072,0.05968148459053737,0.06193019551331475
1.0056969250407752,0.16242605985016223,0.048554857998323715,0.07063087442771013,0.07189380952746569,0.06512209451334715
1.0057440070659056,0.15418810481596457,0.050152418210567096,0.07107575192890922,0.07975631671781008,0.06500605829956878
1.005791089091036,0.1523552110015489,0.04871599245833527,0.0660360559428213,0.08278489646791759,0.05974230052399434
1.0058381711161664,0.15691036178882456,0.0484052479492666,0.06130313889977103,0.08329657939361339,0.05496478890400021
1.0058852531412967,0.16538784679386007,0.05075655786133016,0.06307528196508604,0.08252393939331308,0.056795343706428816
1.005932335166427,0.17322460684996496,0.05106530555268708,0.06323184659303546,0.07913367712685715,0.05719578134134352
1.0059794171915575,0.17475929729964576,0.04807434911308853,0.05880087400333982,0.07217594459513228,0.05326359491840888
1.0060264992166879,0.16548577922015562,0.04350820177218616,0.05204155960234529,0.06353018923473608,0.047134775309621624
1.0060735812418182,0.1445721481217929,0.03803335058047765,0.04234591607178599,0.05279416563501454,0.03824012618523626
1.0061206632669486,0.11538472372115638,0.03344437488467722,0.03266210113426135,0.04198637875213377,0.02938009960316754
1.006167745292079,0.08342022676517998,0.030899605116340583,0.0259645785337829,0.0333748838877025,0.02334675712375462
1.0062148273172093,0.053714935068683495,0.03126195368793632,0.01794830890199036,0.027832955167041963,0.01577027717829767
1.0062619093423397,0.029620632829972474,0.031972321670556456,0.006428025048282717,0.02461079416679954,0.004525128971355508
1.00630899136747,0.012907514843990737,0.03208557453638428,-0.004503164505502606,0.023240064465365605,-0.0062719940575629435
1.0063560733926005,0.004292560353454192,0.034039262552608446,-0.010519166817943732,0.02482101545373585,-0.012393264894064067
1.0064031554177308,0.0038095921685766332,0.03832224418964197,-0.007972360122875525,0.02764878767755791,-0.010070727178502811
1.0064502374428612,0.010924293923755681,0.04922639827075446,0.0013341291502741227,0.03802714516780343,-0.0015842376493922599
1.0064973194679916,0.02453035587728399,0.060740002045208574,0.011333716656649779,0.05176940226655613,0.007344670917060993
1.006544401493122,0.042966387475684646,0.07096665686396626,0.020787738978896356,0.06569700113160877,0.015730042693050596
1.0065914835182523,0.06411092062196938,0.07886729181130087,0.03329944681240632,0.0764415698784339,0.027433698500061363
1.0066385655433827,0.08556714248621351,0.087893331322807,0.049462130528264495,0.08525484744782154,0.04296258874768969
1.006685647568513,0.10493697207975199,0.09412933627649807,0.06485229624100503,0.0911816479602489,0.05795683045720246
1.0067327295936435,0.12014720761669652,0.09678609945895207,0.07640706666955516,0.0936345506256095,0.06937040312911771
1.0067798116187738,0.12974860817624662,0.09502762673424087,0.08294186479002422,0.09179663123126375,0.07605252969951426
1.0068268936439042,0.1331160769266914,0.09179941811564711,0.08436945777741765,0.08594842470544187,0.07788964887268114
1.0068739756690346,0.13051634907150206,0.08494777834593019,0.08386978816652868,0.07838035016441013,0.07791699890241277
1.006921057694165,0.12301693370584733,0.07455923209151664,0.08185258015702256,0.06815757760818453,0.07661797894944637
1.0069681397192953,0.11219272060745543,0.06175432063991672,0.07585112215539112,0.05598008521242774,0.07148702432701472
1.0070152217444257,0.09964098937742749,0.04895985203427924,0.06985230351433948,0.04368612041352213,0.0663874474131114
1.007062303769556,0.08648287672211809,0.03870103786853475,0.06302251331950957,0.03371264732404421,0.0603040822912058
1.0071093857946865,0.07315337862299943,0.0314062459709227,0.053521194673379444,0.025739632816219667,0.05141750652396376
1.0071564678198168,0.05967551136841471,0.026101916649254726,0.042771215350936226,0.019510232678174796,0.041162797139731803
1.0072035498449472,0.046352747241279996,0.02174325505770733,0.029687677967592516,0.015765357789730934,0.028397751449283505
1.0072506318700776,0.03458526276589038,0.020238278257853036,0.01916866027493343,0.015164451543189962,0.017953241432546882
1.007297713895208,0.02727830692374265,0.021947442729863653,0.01473006896934623,0.016211296754765972,0.013446956907303308
1.0073447959203383,0.0280866607277734,0.028343521977367184,0.01711698325886342,0.02111588292077863,0.015453066516867873
1.0073918779454687,0.03925806445151868,0.04260868062416531,0.028584290137595406,0.0327556900412236,0.02600764221503782
1.007438959970599,0.059562255279517966,0.06065487556980109,0.043832242766228824,0.047405994438610405,0.040126444749593926
1.0074860419957294,0.08449757331606145,0.0778916985738003,0.058037587268334905,0.06348348688064177,0.05313334681816782
1.0075331240208598,0.10858230355013457,0.09194840736448807,0.06858033205585247,0.07833035039996053,0.06260884626048688
1.0075802060459902,0.12742598805780986,0.1009214836598928,0.07621925524513734,0.08820023625831597,0.06956267963421787
1.0076272880711206,0.13840784538629322,0.10361445113411781,0.07904744927672683,0.09258489881110156,0.07209188006884347
1.007674370096251,0.14057521646913557,0.09949705998992449,0.0769603579802706,0.09228961595044814,0.07001930820782153
1.0077214521213813,0.1345761316442056,0.09112689636831757,0.07084930100861353,0.08716959514756648,0.06425292368099102
1.0077685341465117,0.12269802495893224,0.07872538619806874,0.062425783036096825,0.077312539209965,0.056519895481778104
1.007815616171642,0.10844877640211482,0.06588718268429196,0.054884533548136764,0.06397892919034583,0.04994438282884183
