freq,gls,usurper,pdc_unbiased,shape_periodogram,shift_periodogram
1.0,0.02176245538732735,0.01560556852679232,-0.007335655112181927,0.007075512103274239,-0.007520601370687142
1.0000470820251304,0.05134779247241603,0.018710759587215818,0.016081221596065367,0.006982673782102934,0.015891155973566454
1.0000941640502607,0.09689124580742478,0.024411029287710294,0.05094334186944231,0.011105302614521204,0.05063573235447388
1.0001412460753911,0.14848755125694818,0.029260860675901515,0.08456655871201842,0.02019737972299276,0.08402504144703069
1.0001883281005215,0.19664060203551523,0.035058926969760054,0.10917973127593883,0.03361162072294918,0.10832815983382497
1.0002354101256519,0.23592916525893703,0.04134807088448207,0.12678225514793529,0.04523870835608577,0.12569582683412292
1.0002824921507822,0.26363730657080775,0.04602166547924606,0.13936052532630389,0.05247624070244903,0.13814973598336872
1.0003295741759126,0.2780607972143743,0.04915076569829446,0.14663287491158739,0.056073544206867554,0.14536888196372524
1.000376656201043,0.27778293516045677,0.04990477528883339,0.14742341655727248,0.058550014673858106,0.14611761912866406
1.0004237382261734,0.2619162710265795,0.04795469368471,0.139633635428265,0.058791972860834846,0.13830840172386996
1.0004708202513037,0.23107843684954268,0.04371808130407517,0.12167319492364326,0.05625206151579422,0.12036209154966251
1.0005179022764341,0.1884924826566669,0.038085380862366874,0.09811663264576473,0.05234096509991796,0.09684786452485794
1.0005649843015645,0.1401213853463462,0.03397914774949556,0.07552593926328457,0.04833636175485549,0.07431689532829058
1.0006120663266949,0.09311329616242185,0.031639547010025144,0.056936636782797936,0.04390852875313953,0.05581332244441292
1.0006591483518252,0.05338098213176131,0.03154117400038844,0.04656239048066332,0.03828013192673508,0.04556907224267688
1.0007062303769556,0.024158292773911582,0.03124280996964442,0.0379052596807291,0.031001154924085818,0.0370906735262446
1.000753312402086,0.006389706849983347,0.031942010517184684,0.024925530867037873,0.022575519457265877,0.024325782467181232
1.0008003944272164,4.4957735270936574e-05,0.032734893822404854,0.013623927240606612,0.015574173513934805,0.013208491846207144
1.0008474764523467,0.004476680458159687,0.03178179951530735,0.005279248516488982,0.013353842941190486,0.004924267706766265
1.000894558477477,0.016631009383087918,0.03618363877228797,0.00604487589630294,0.015887925253819577,0.0056228075910682756
1.0009416405026075,0.030279800796216314,0.0437902369549137,0.01614856324889533,0.022782550324273548,0.015543927660500036
1.0009887225277379,0.04019506929021177,0.05292746254906376,0.031662352407458065,0.034833198546060866,0.03074893817660448
1.0010358045528682,0.045271217739530065,0.05926247858545846,0.049643587368788454,0.04971397607858807,0.04837430706981662
1.0010828865779986,0.04665854735345898,0.06548006556557935,0.06394396252727896,0.06407108347874503,0.062362915804144776
1.001129968603129,0.04557434040645729,0.0698680122735613,0.06951556918541625,0.07517072185177534,0.06770562683466297
1.0011770506282593,0.04281463251624272,0.07112730000742284,0.06676401531502141,0.08033860200359973,0.06483595762572278
1.0012241326533897,0.03911406922799136,0.06811059278853764,0.05756222886158259,0.07974610558451523,0.05561728319601608
1.00127121467852,0.035734840091298535,0.061931932818835654,0.04469056838221148,0.07588904753022413,0.04279447207426216
1.0013182967036505,0.034632288517627896,0.05625043889859878,0.03354469161607427,0.07210131880416126,0.03170933304275386
1.0013653787287808,0.03686446430802818,0.05223218564489469,0.03235087082016887,0.06997219206030367,0.030564406043537034
1.0014124607539112,0.040499198873267514,0.05142729073230152,0.04235422606047071,0.07036959038957122,0.04058138650946986
1.0014595427790416,0.04245011553894062,0.053539846611949306,0.05148956578485458,0.07326890070208031,0.04967214720389053
1.001506624804172,0.04142424671447975,0.05479261662444282,0.057489670337512934,0.07263888161427019,0.05570215031515207
1.0015537068293023,0.03772147907862947,0.05565041406198741,0.05838903434484734,0.06700603524427172,0.05673032457161148
1.0016007888544327,0.032149333674356434,0.053084803871440024,0.05286952532393206,0.057403281989134115,0.05142186851482715
1.001647870879563,0.025799799790141527,0.04704204371989617,0.040386054375886556,0.04369271316876077,0.03925520069844794
1.0016949529046935,0.020580986012262138,0.03799882162479865,0.02276083148008517,0.029013210306240572,0.021994475482756796
1.0017420349298238,0.01993155776046648,0.03347004681501714,0.008396000375120035,0.018214294509833157,0.007912139737706781
1.0017891169549542,0.027489951613850306,0.03221778407003381,0.00883020356959996,0.015868591926599136,0.008408045044812866
1.0018361989800846,0.042074300128446054,0.03205562887703149,0.022145335055818467,0.01953776919883915,0.021624751178063856
1.001883281005215,0.05845891480384451,0.03727200601722278,0.04104344236602053,0.02853134322600861,0.04029187249410137
1.0019303630303453,0.07582159493280267,0.04239319528561373,0.05832937685591873,0.039654186976997456,0.05730921596501263
1.0019774450554757,0.09824195100672209,0.04444758390718382,0.07041397317164165,0.05236989581520633,0.06910723211502774
1.002024527080606,0.1303669711588208,0.04083699910775088,0.07896421651578898,0.06062236140591364,0.0774878904738243
1.0020716091057364,0.17464242099810953,0.0362587138544871,0.08832693698111686,0.06604361494794217,0.08675551200629349
1.0021186911308668,0.22917237164395338,0.03635303212556892,0.11355266104308831,0.07064115800866819,0.11195457748356412
1.0021657731559972,0.2864808872447173,0.04006508526518628,0.14880372324738836,0.07630625357021346,0.14721805371492838
1.0022128551811276,0.335488571803669,0.044184511428356874,0.17945522269565434,0.08207521529816188,0.17790534014454196
1.002259937206258,0.3667004160945303,0.046580528085712614,0.20044309409803335,0.08605856408792921,0.19894039495432864
1.0023070192313883,0.37630521047742305,0.0469788687425904,0.20989430295355302,0.08752009067886542,0.20842161177216756
1.0023541012565187,0.3658732131217113,0.045868065545684664,0.20800353236518512,0.08667475294222682,0.20652877040815654
1.002401183281649,0.3393357840705059,0.04512050879256932,0.19716291122807472,0.08414745106410179,0.19566314949310382
1.0024482653067794,0.30043566038503033,0.04425570089144739,0.1783931936762516,0.07656313084785114,0.1769033846643962
1.0024953473319098,0.25183659939415354,0.041060916326963647,0.15384153094853617,0.06270096719312677,0.15247968838932177
1.0025424293570402,0.1956066522565673,0.034737938803186444,0.12081929242955049,0.04488403142426231,0.11973371330009575
1.0025895113821706,0.13475970805500284,0.029080593227948537,0.07564140824241966,0.02351555374449393,0.07501831248594795
1.002636593407301,0.07582916802294695,0.026167059679011236,0.025728531183742454,0.00601702738471121,0.025560817395197544
1.0026836754324313,0.03145358980808763,0.0236081970968007,-0.0040036080406334615,0.004304731495833151,-0.004116220308709227
1.0027307574575617,0.01779891286180085,0.02424753866714433,-0.006351274616742859,0.019412916915247474,-0.00686432263945238
1.002777839482692,0.04358985242398123,0.02617147430987321,0.006591376950054447,0.04012036144446697,0.005531271856578417
1.0028249215078224,0.1037077589167159,0.03682955214640214,0.04281328660270074,0.05718852918989411,0.04135564766694255
1.0028720035329528,0.18101238562213362,0.05157616358990845,0.0979436666785688,0.06634081872940492,0.09638821630439698
1.0029190855580832,0.25636899888384335,0.06436667190467525,0.15380629462607742,0.07091610986793372,0.1523159702659501
1.0029661675832136,0.31832235074100634,0.07123734922302685,0.19704252226634572,0.07308700553606327,0.1956547423512291
1.003013249608344,0.36361141655314383,0.07569478922626484,0.228525784613192,0.07376309851569643,0.22723365053231612
1.0030603316334743,0.39341420767750745,0.07658681181286352,0.24979870354304085,0.07178194421701067,0.24859153077869164
1.0031074136586047,0.4102870696014962,0.07507404067302106,0.26258314989231946,0.0692864968143041,0.2614335085280487
1.003154495683735,0.41662904201390033,0.07255901240837849,0.266777273312063,0.06576895802650305,0.2656650846040236
1.0032015777088654,0.41405085665469693,0.06886419590851749,0.26326150551395927,0.0610464618178493,0.26217876614635416
1.0032486597339958,0.4030953535584088,0.0639012162869581,0.251751202986526,0.05500958489368043,0.2507032496776884
1.0032957417591262,0.38301151602067063,0.05767728343172968,0.2324239377319079,0.04769475240055098,0.23143365899351945
1.0033428237842565,0.3514583105172215,0.04994261640510828,0.2047530276495091,0.039061456477396624,0.20386311760529163
1.003389905809387,0.3042863356687068,0.040453852782951924,0.16911475512504195,0.029478825807508883,0.1683807983209508
1.0034369878345173,0.2364892670841809,0.029698688816105805,0.12615890065588273,0.019218789063634126,0.12564138206881692
1.0034840698596477,0.14805992805189566,0.01907491262962579,0.07745804013496241,0.008964768954465104,0.07719888573563088
1.003531151884778,0.05937981673678241,0.012541735925390644,0.035632586371168055,0.0014560854884812467,0.03558166606533759
1.0035782339099084,0.016571701488668728,0.013120070496373273,0.012038086514572617,-0.00044954433824764427,0.012045768189737186
1.0036253159350388,0.04141534161646615,0.02271667819935408,0.014399178728297872,0.007134267156996126,0.014205649766383895
1.0036723979601692,0.0978579156313711,0.03843558569240805,0.03595348541122598,0.022852639219268757,0.03534617632786671
1.0037194799852995,0.14599333246590304,0.05803481738962097,0.06503465797160808,0.038719565036597,0.06404095528777791
1.00376656201043,0.17300879075255565,0.07260511920439058,0.0922030709843016,0.052255985580100354,0.09092792915079682
1.0038136440355603,0.18229222765708752,0.08254094253014127,0.11374971918924169,0.06064240557585075,0.11233943267151346
1.0038607260606907,0.18262972424027749,0.08721557219665202,0.12736778710133306,0.06547270889007686,0.12589756427062243
1.003907808085821,0.18292620727983336,0.09063451747251101,0.13485525602086357,0.06951257195109796,0.13333438185107677
1.0039548901109514,0.18798821740501145,0.09322312125850037,0.13913083302593265,0.07322137910517593,0.1375617693793625
1.0040019721360818,0.19658928748535154,0.09260333053668351,0.1397247738744464,0.07515351479954581,0.13812718806533958
1.0040490541612122,0.20361099360789395,0.08741378150922202,0.1356935801867525,0.07609317220603715,0.13406839317617494
1.0040961361863425,0.20356945018764083,0.07883957341883267,0.1287855413388881,0.073581183019141,0.12717958662970857
1.004143218211473,0.19261735903368254,0.07001211871732953,0.11776025800915435,0.07084035189630264,0.11617002078060047
1.0041903002366033,0.1692114287165738,0.05893064522609859,0.09836742477706704,0.06430937270621753,0.09685331895806125
1.0042373822617336,0.13469585530973552,0.046478543189245325,0.07519967777083232,0.05337260839540366,0.07387672891156785
1.004284464286864,0.094068350002802,0.03346875919911376,0.051842634052145065,0.040991223988541166,0.05078599631493119
1.0043315463119944,0.0558705414627791,0.02187646005530515,0.03082107495389939,0.02725459642695197,0.030100807599878692
1.0043786283371248,0.029785725493520713,0.014616197678632988,0.019809015244991575,0.01445764574355087,0.019421513516270743
1.0044257103622551,0.022326134922130727,0.011416214939767437,0.01684685304795892,0.005067175974027712,0.016707050618727855
1.0044727923873855,0.03362727707623793,0.011871456896341814,0.01768087969631584,0.001107899312601245,0.017645372269884493
1.004519874412516,0.057935866130881315,0.015606206720082089,0.0238553638180855,0.002371682545494704,0.023784327713214624
1.0045669564376463,0.08691312585069338,0.021732507795044372,0.038233159934289905,0.009385471793433223,0.03797347739985593
1.0046140384627766,0.11302745450084833,0.028736864213487145,0.05542672474865837,0.02208348890331951,0.05483862112788369
1.004661120487907,0.13143773576861661,0.03578470327982096,0.07126698378066398,0.0368552335277505,0.07032113067713537
1.0047082025130374,0.140315951549541,0.041923201596965366,0.0817840112464661,0.051407173041909913,0.08051354018953322
1.0047552845381678,0.14016084842095028,0.04317403604130007,0.0846685751900148,0.06333266120814031,0.08314558600255383
1.0048023665632981,0.13271042804166153,0.0416489247734007,0.08028160564993014,0.07167542170511508,0.07857455000257983
1.0048494485884285,0.1199532079956697,0.037460547589104595,0.06958311394397716,0.07724586540899978,0.06772936549323463
1.0048965306135589,0.10352759540252561,0.03487279088535536,0.05738407400153901,0.07962396564318519,0.05544125072094923
1.0049436126386893,0.08458770500586026,0.03093368220550304,0.04469505929439128,0.07714387386564686,0.0427698685761079
1.0049906946638196,0.06411017510052013,0.027728909050498955,0.03435472552873721,0.07073873748731757,0.03255427778768383
1.00503777668895,0.043500849939608656,0.02347534979759999,0.022887706523455283,0.06270905134191603,0.02126231702026406
1.0050848587140804,0.02497562650004661,0.019111599702074863,0.013888116903115118,0.0534019165326868,0.012487457801364973
1.0051319407392107,0.011013597455985432,0.014986803194967745,0.011624969459267675,0.04323221284794054,0.010486205283983165
1.0051790227643411,0.003334338693202587,0.013427587039788268,0.009001101837417943,0.030811121895125172,0.008186106612725107
1.0052261047894715,0.0027948227754708652,0.010246383068779112,0.005716764128480125,0.01764344107622657,0.005248435164907249
1.0052731868146019,0.010164673003053454,0.009351965980401009,0.005314070387151807,0.007279666778002578,0.005119599941383062
1.0053202688397322,0.026566180290056158,0.010692656912599435,0.008193549268036414,0.0008996463553708529,0.008166861650861973
1.0053673508648626,0.05291846997433676,0.013300790855547577,0.011498759854167706,-0.0019405837533128735,0.011546123135030357
1.005414432889993,0.08828034555015178,0.014926753244019467,0.017065936640710815,-0.0013684946907896798,0.01709619014045153
1.0054615149151234,0.12763762777320273,0.017259724363739785,0.025647230237824777,0.0028734115788119027,0.025562342247730255
1.0055085969402537,0.16155770115500132,0.019829434190458378,0.038076850744054896,0.011422776254286568,0.03776418032818533
1.0055556789653841,0.18078890709766565,0.02331817950461345,0.05135766337998839,0.02192152381315495,0.050773704350401856
1.0056027609905145,0.18307418566708303,0.024413904594716252,0.06056084021799014,0.03289044946803679,0.059705715706571835
1.0056498430156449,0.1741533504439713,0.02614694313146111,0.06655908741414072,0.04298534528742089,0.06546536240573833
1.0056969250407752,0.16242605985016223,0.026035429185263748,0.07063087442771013,0.05165426239197687,0.06934067736970238
1.0057440070659056,0.15418810481596457,0.023774157769656506,0.07107575192890922,0.056635067052271025,0.06967377003857923
1.005791089091036,0.1523552110015489,0.019730639334263514,0.0660360559428213,0.05787557017545037,0.06459818171825799
1.0058381711161664,0.15691036178882456,0.017469169416492788,0.06130313889977103,0.05689442767907407,0.05988019664942621
1.0058852531412967,0.16538784679386007,0.016372414795932672,0.06307528196508604,0.05391324685548056,0.061723484282219486
1.005932335166427,0.17322460684996496,0.015063655866885135,0.06323184659303546,0.049244879102062405,0.0619884287284982
1.0059794171915575,0.17475929729964576,0.012001519016191623,0.05880087400333982,0.04252964794144545,0.05771199488485695
1.0060264992166879,0.16548577922015562,0.008491586169037658,0.05204155960234529,0.0358257254524613,0.051111274180291065
1.0060735812418182,0.1445721481217929,0.0057049299959838415,0.04234591607178599,0.028347318815499616,0.04159918578596972
1.0061206632669486,0.11538472372115638,0.003056427104334741,0.03266210113426135,0.02114374660576069,0.032098866379768214
1.006167745292079,0.08342022676517998,0.0023376027241469493,0.0259645785337829,0.014917604721953906,0.025563729089494412
1.0062148273172093,0.053714935068683495,0.0042656537088628715,0.01794830890199036,0.011350939641597665,0.017642747180354357
1.0062619093423397,0.029620632829972474,0.00764026884360695,0.006428025048282717,0.010130253665101818,0.006157874673019319
1.00630899136747,0.012907514843990737,0.01127121923131253,-0.004503164505502606,0.010102623908892255,-0.004769317569808039
1.0063560733926005,0.004292560353454192,0.016501788504589436,-0.010519166817943732,0.012083083360029468,-0.010836151120848974
1.0064031554177308,0.0038095921685766332,0.022440741271661867,-0.007972360122875525,0.014078891201718484,-0.008343135442732198
1.0064502374428612,0.010924293923755681,0.030865640688024824,0.0013341291502741227,0.018756401490589623,0.0008371779068255623
1.0064973194679916,0.02453035587728399,0.03906901156937746,0.011333716656649779,0.025231664394228234,0.010665176248191384
1.006544401493122,0.042966387475684646,0.04560477210882005,0.020787738978896356,0.03102191469555997,0.019969174681677446
1.0065914835182523,0.06411092062196938,0.050125455030743414,0.03329944681240632,0.035915553656054894,0.03235920443268082
1.0066385655433827,0.08556714248621351,0.05548352060999998,0.049462130528264495,0.040231056389464843,0.04842252595065994
1.006685647568513,0.10493697207975199,0.05776470273306072,0.06485229624100503,0.04335962344765972,0.06374839312811557
1.0067327295936435,0.12014720761669652,0.057637610239574026,0.07640706666955516,0.044583833136900626,0.07528453858900527
1.0067798116187738,0.12974860817624662,0.05372360953711041,0.08294186479002422,0.04321743786463427,0.0818562616328493
1.0068268936439042,0.1331160769266914,0.04943090191037367,0.08436945777741765,0.03960417500111063,0.08336743384324324
1.0068739756690346,0.13051634907150206,0.043819921229674166,0.08386978816652868,0.035308902400794345,0.08296679207979407
1.006921057694165,0.12301693370584733,0.03696155235474795,0.08185258015702256,0.0284900529044103,0.08110991787763513
1.0069681397192953,0.11219272060745543,0.028739791704256102,0.07585112215539112,0.020821937497219386,0.07529430355363978
1.0070152217444257,0.09964098937742749,0.02001155365973874,0.06985230351433948,0.01354010605196913,0.06947836189772032
1.007062303769556,0.08648287672211809,0.013122053588940554,0.06302251331950957,0.008327292929527445,0.06278349035856419
1.0071093857946865,0.07315337862299943,0.007974460269180998,0.053521194673379444,0.0048193319386261434,0.05337604182332323
1.0071564678198168,0.05967551136841471,0.002846253124345253,0.042771215350936226,0.0017263862556114622,0.042710724506809336
1.0072035498449472,0.046352747241279996,-0.0005068346984582573,0.029687677967592516,0.000921256660239502,0.02965293028827703
1.0072506318700776,0.03458526276589038,-0.002230622374194365,0.01916866027493343,0.0022451887051864613,0.019102574849943266
1.007297713895208,0.02727830692374265,-0.0017825476740785068,0.01473006896934623,0.0035492921979523293,0.014631050091118094
1.0073447959203383,0.0280866607277734,0.0001478531450571546,0.01711698325886342,0.006088945609231016,0.016950145018581046
1.0073918779454687,0.03925806445151868,0.005378457691214914,0.028584290137595406,0.01129657832082017,0.0282773313090929
1.007438959970599,0.059562255279517966,0.012940947126733696,0.043832242766228824,0.01790437055263428,0.04335111886061558
1.0074860419957294,0.08449757331606145,0.019747217690297914,0.058037587268334905,0.02601241816507022,0.05735132778606192
1.0075331240208598,0.10858230355013457,0.02509142365877057,0.06858033205585247,0.03259362626274311,0.06773521229006815
1.0075802060459902,0.12742598805780986,0.028559888761645728,0.07621925524513734,0.03712446545651403,0.07526973898543216
1.0076272880711206,0.13840784538629322,0.03072146188437904,0.07904744927672683,0.03993109133015482,0.07803422920723392
1.007674370096251,0.14057521646913557,0.030446869494041948,0.0769603579802706,0.0409897251151868,0.07592113687997405
1.0077214521213813,0.1345761316442056,0.02781541262082725,0.07084930100861353,0.03957604240293398,0.06983889953598628
1.0077685341465117,0.12269802495893224,0.024002359528095384,0.062425783036096825,0.03436920660505612,0.061535405772404586
