freq,gls,usurper,pdc_unbiased,shape_periodogram,shift_periodogram
1.0,0.02176245538732735,0.04482147436990634,-0.007335655112181927,0.03862430261714226,-0.01588547607617242
1.0000470820251304,0.05134779247241603,0.0953352719105023,0.016081221596065367,0.08618442636273689,-0.0038258713613695916
1.0000941640502607,0.09689124580742478,0.1524998755773884,0.05094334186944231,0.14149328260651065,0.01788747755964635
1.0001412460753911,0.14848755125694818,0.20989287812410817,0.08456655871201842,0.19480129858075546,0.039371151490667756
1.0001883281005215,0.19664060203551523,0.2561136521827155,0.10917973127593883,0.2386026078585954,0.05456384932936304
1.0002354101256519,0.23592916525893703,0.28820156183223117,0.12678225514793529,0.26957690952573904,0.06587929934650319
1.0002824921507822,0.26363730657080775,0.31019852501045536,0.13936052532630389,0.28930527154523633,0.07469956089345267
1.0003295741759126,0.2780607972143743,0.32272048953353555,0.14663287491158739,0.30040920525374826,0.07995108884794944
1.000376656201043,0.27778293516045677,0.32649912654848395,0.14742341655727248,0.3040040900924023,0.08002871769547375
1.0004237382261734,0.2619162710265795,0.3195904934615039,0.139633635428265,0.2978840880899755,0.07317480929877025
1.0004708202513037,0.23107843684954268,0.29904016232624353,0.12167319492364326,0.2802575038507861,0.05831162792595225
1.0005179022764341,0.1884924826566669,0.2710847007864832,0.09811663264576473,0.25678027400160347,0.039293702049465494
1.0005649843015645,0.1401213853463462,0.2513241361348181,0.07552593926328457,0.2418060212606141,0.019712342819464154
1.0006120663266949,0.09311329616242185,0.24327255844888612,0.056936636782797936,0.2381072057203014,0.0017896315747138367
1.0006591483518252,0.05338098213176131,0.2474868943208264,0.04656239048066332,0.2443270818219436,-0.010120506514635358
1.0007062303769556,0.024158292773911582,0.2547936125802859,0.0379052596807291,0.25350435285437706,-0.02102663623557824
1.000753312402086,0.006389706849983347,0.25398097680176923,0.024925530867037873,0.25650276546850675,-0.03482968317827563
1.0008003944272164,4.4957735270936574e-05,0.25156841780552686,0.013623927240606612,0.25485035803595724,-0.04579239904909008
1.0008474764523467,0.004476680458159687,0.2514562746293245,0.005279248516488982,0.25812024822816687,-0.05497841738131094
1.000894558477477,0.016631009383087918,0.26413153399690464,0.00604487589630294,0.27275893721650835,-0.05785895417898254
1.0009416405026075,0.030279800796216314,0.2950410569559243,0.01614856324889533,0.3019639408094891,-0.055003091106060345
1.0009887225277379,0.04019506929021177,0.33853688637211266,0.031662352407458065,0.34205801325340257,-0.049372571073140775
1.0010358045528682,0.045271217739530065,0.38667663591805684,0.049643587368788454,0.38553838670216817,-0.04192506112479583
1.0010828865779986,0.04665854735345898,0.42226125773349127,0.06394396252727896,0.4215848321742342,-0.03622118411497406
1.001129968603129,0.04557434040645729,0.43824458821733103,0.06951556918541625,0.4401123960465494,-0.035158772293028016
1.0011770506282593,0.04281463251624272,0.432517704546308,0.06676401531502141,0.4388513533158841,-0.037815956440259806
1.0012241326533897,0.03911406922799136,0.4103246661288984,0.05756222886158259,0.42119585876450355,-0.04299343910479251
1.00127121467852,0.035734840091298535,0.3786849701638209,0.04469056838221148,0.39320206325117474,-0.04919909659419951
1.0013182967036505,0.034632288517627896,0.35473546271973977,0.03354469161607427,0.37222335009986424,-0.05532920152625184
1.0013653787287808,0.03686446430802818,0.35521431113648094,0.03235087082016887,0.371363017883319,-0.056348967691811164
1.0014124607539112,0.040499198873267514,0.37657505437171623,0.04235422606047071,0.3892406812439302,-0.0506095577590595
1.0014595427790416,0.04245011553894062,0.40567297589213175,0.05148956578485458,0.4159152480976636,-0.04808399360486421
1.001506624804172,0.04142424671447975,0.42704933190389527,0.057489670337512934,0.43483086535465637,-0.04679154423595834
1.0015537068293023,0.03772147907862947,0.43075229435247836,0.05838903434484734,0.4375530841095789,-0.046566020608875124
1.0016007888544327,0.032149333674356434,0.4143548016642739,0.05286952532393206,0.4199170433345582,-0.047692331817159525
1.001647870879563,0.025799799790141527,0.3772617583044192,0.040386054375886556,0.38292555024268304,-0.050998763939270206
1.0016949529046935,0.020580986012262138,0.3274619594862266,0.02276083148008517,0.33396520687576875,-0.05645941635282756
1.0017420349298238,0.01993155776046648,0.2844437586507271,0.008396000375120035,0.29234924627950387,-0.060429965631997255
1.0017891169549542,0.027489951613850306,0.2657212725710644,0.00883020356959996,0.27395566431380575,-0.055351361836183575
1.0018361989800846,0.042074300128446054,0.26892741567181905,0.022145335055818467,0.27781703705038485,-0.04286208842725511
1.001883281005215,0.05845891480384451,0.28696519607211274,0.04104344236602053,0.29551826263500003,-0.028016622065757908
1.0019303630303453,0.07582159493280267,0.3064199109417059,0.05832937685591873,0.311569105997487,-0.01420752832137848
1.0019774450554757,0.09824195100672209,0.31469460089852974,0.07041397317164165,0.31274019835280303,-0.0020221304374151952
1.002024527080606,0.1303669711588208,0.30105725106187464,0.07896421651578898,0.2938088991196908,0.011253271523134725
1.0020716091057364,0.17464242099810953,0.28014163537579817,0.08832693698111686,0.27024739971524936,0.026268294694840703
1.0021186911308668,0.22917237164395338,0.2848392863632575,0.11355266104308831,0.2683893144661563,0.05253246968757303
1.0021657731559972,0.2864808872447173,0.31218530718959686,0.14880372324738836,0.28769128685024875,0.08485661009728702
1.0022128551811276,0.335488571803669,0.3423127291609141,0.17945522269565434,0.311579476576884,0.11218266283997387
1.002259937206258,0.3667004160945303,0.3616760515719384,0.20044309409803335,0.3266893382597463,0.13159447120382786
1.0023070192313883,0.37630521047742305,0.3665930821533874,0.20989430295355302,0.3290923329072028,0.1412597417233801
1.0023541012565187,0.3658732131217113,0.3578313893589237,0.20800353236518512,0.3194562707337333,0.14099057757891573
1.002401183281649,0.3393357840705059,0.33767838102640524,0.19716291122807472,0.30037723513357123,0.13302276528873114
1.0024482653067794,0.30043566038503033,0.30881778239105906,0.1783931936762516,0.2740507858437959,0.11839731650324786
1.0024953473319098,0.25183659939415354,0.27247547123661564,0.15384153094853617,0.24047958870650568,0.09975679425484614
1.0025424293570402,0.1956066522565673,0.22341848883899337,0.12081929242955049,0.19712654410558134,0.0752754442856812
1.0025895113821706,0.13475970805500284,0.15647013580693583,0.07564140824241966,0.13992172685357063,0.04265283815723287
1.002636593407301,0.07582916802294695,0.08512358231357418,0.025728531183742454,0.08055613679071494,0.006886572641347433
1.0026836754324313,0.03145358980808763,0.04216145195943315,-0.0040036080406334615,0.04137276199975367,-0.013261013249241343
1.0027307574575617,0.01779891286180085,0.0375169375499847,-0.006351274616742859,0.033600787185123646,-0.013787744992201582
1.002777839482692,0.04358985242398123,0.05554312916591871,0.006591376950054447,0.052039484826249136,-0.0053478085895049135
1.0028249215078224,0.1037077589167159,0.09996072637677535,0.04281328660270074,0.09324802804440767,0.020754450666541666
1.0028720035329528,0.18101238562213362,0.172791638666778,0.0979436666785688,0.16022570949654,0.060327917396233624
1.0029190855580832,0.25636899888384335,0.24968486991479952,0.15380629462607742,0.22657435487777963,0.1025595940458451
1.0029661675832136,0.31832235074100634,0.31268979555669907,0.19704252226634572,0.2745425947243341,0.13775023417919136
1.003013249608344,0.36361141655314383,0.35344943072723145,0.228525784613192,0.3071075670832701,0.16504498666920583
1.0030603316334743,0.39341420767750745,0.3796051398725208,0.24979870354304085,0.3276669434808957,0.1843850948892331
1.0031074136586047,0.4102870696014962,0.39407666244423434,0.26258314989231946,0.33875028798258033,0.19647045084296955
1.003154495683735,0.41662904201390033,0.3989947039093656,0.266777273312063,0.34184256879336705,0.20055910977798475
1.0032015777088654,0.41405085665469693,0.3953774328946102,0.26326150551395927,0.3372305440199491,0.19744132059410788
1.0032486597339958,0.4030953535584088,0.38304148739589133,0.251751202986526,0.32473860690658035,0.18696193983608103
1.0032957417591262,0.38301151602067063,0.36162352060113134,0.2324239377319079,0.3042422252267749,0.16968744671993927
1.0033428237842565,0.3514583105172215,0.33040165920871944,0.2047530276495091,0.2754992838089164,0.1456328399952653
1.003389905809387,0.3042863356687068,0.28915460962275247,0.16911475512504195,0.23903793216336375,0.11571529426887935
1.0034369878345173,0.2364892670841809,0.23846375092824817,0.12615890065588273,0.19564514474342645,0.08096911203741929
1.0034840698596477,0.14805992805189566,0.18195791363757016,0.07745804013496241,0.1494245579047932,0.04234707611745776
1.003531151884778,0.05937981673678241,0.13967779988263027,0.035632586371168055,0.11779848816705185,0.008165217893059596
1.0035782339099084,0.016571701488668728,0.13288734409149963,0.012038086514572617,0.11972876202449721,-0.015442063376949111
1.0036253159350388,0.04141534161646615,0.17411880853998837,0.014399178728297872,0.1656187633000931,-0.023725003186411214
1.0036723979601692,0.0978579156313711,0.24650762767963322,0.03595348541122598,0.23984979423791616,-0.019735695708306446
1.0037194799852995,0.14599333246590304,0.3304558291556726,0.06503465797160808,0.3263249122724228,-0.010861396240388997
1.00376656201043,0.17300879075255565,0.4039671757214509,0.0922030709843016,0.4022352022577549,-0.0007742834117947632
1.0038136440355603,0.18229222765708752,0.457092097802059,0.11374971918924169,0.4572438886584967,0.009205532807016865
1.0038607260606907,0.18262972424027749,0.49079894185352513,0.12736778710133306,0.4930081434132925,0.01570407034762908
1.003907808085821,0.18292620727983336,0.5080897523035008,0.13485525602086357,0.5116190306052848,0.01971689016647792
1.0039548901109514,0.18798821740501145,0.5151446103658884,0.13913083302593265,0.5168629278530559,0.02340774089564932
1.0040019721360818,0.19658928748535154,0.5119667387336613,0.1397247738744464,0.5120471977379306,0.025288155125117888
1.0040490541612122,0.20361099360789395,0.49980298236115756,0.1356935801867525,0.4954065087275915,0.024683462255080463
1.0040961361863425,0.20356945018764083,0.4767535933098415,0.1287855413388881,0.46700859994909394,0.023693142155126915
1.004143218211473,0.19261735903368254,0.4395341600523483,0.11776025800915435,0.4270866755646839,0.020996845484940452
1.0041903002366033,0.1692114287165738,0.38627538934877725,0.09836742477706704,0.373756721113352,0.012737376529659552
1.0042373822617336,0.13469585530973552,0.3242351468545541,0.07519967777083232,0.31350347238690346,0.002744328169590244
1.004284464286864,0.094068350002802,0.26514585308221833,0.051842634052145065,0.2556871321933772,-0.007467457978805264
1.0043315463119944,0.0558705414627791,0.21338335558675905,0.03082107495389939,0.2049616624775295,-0.016637118466485586
1.0043786283371248,0.029785725493520713,0.17958910072286752,0.019809015244991575,0.17105412695852196,-0.019646035827815298
1.0044257103622551,0.022326134922130727,0.16381431336400018,0.01684685304795892,0.15442573324785558,-0.0187101642126357
1.0044727923873855,0.03362727707623793,0.16394114003032695,0.01768087969631584,0.15477372556094054,-0.017968457253414515
1.004519874412516,0.057935866130881315,0.17720641027779496,0.0238553638180855,0.16872711554998002,-0.015104672790988295
1.0045669564376463,0.08691312585069338,0.20458654513437322,0.038233159934289905,0.19628635545483417,-0.0072326766487359525
1.0046140384627766,0.11302745450084833,0.23971972512468293,0.05542672474865837,0.23238956774007394,0.0015962890701410903
1.004661120487907,0.13143773576861661,0.2735590482911587,0.07126698378066398,0.2689443927400091,0.009151772873322587
1.0047082025130374,0.140315951549541,0.29939882536610396,0.0817840112464661,0.2979355631925727,0.0131964753687067
1.0047552845381678,0.14016084842095028,0.31192336062347165,0.0846685751900148,0.3148254732293561,0.01224194243345237
1.0048023665632981,0.13271042804166153,0.3102012810994293,0.08028160564993014,0.3168868512111524,0.00720827896942383
1.0048494485884285,0.1199532079956697,0.2958214733658902,0.06958311394397716,0.3069588620065304,-0.0015018958252482598
1.0048965306135589,0.10352759540252561,0.2695706083963198,0.05738407400153901,0.28375007044973705,-0.00848830336309717
1.0049436126386893,0.08458770500586026,0.2352750562737669,0.04469505929439128,0.2511860472748343,-0.013624813172470057
1.0049906946638196,0.06411017510052013,0.2005059931925628,0.03435472552873721,0.21744427665240318,-0.016041502752829388
1.00503777668895,0.043500849939608656,0.1673747083351831,0.022887706523455283,0.18404129911070108,-0.019625932281845747
1.0050848587140804,0.02497562650004661,0.13520975869906643,0.013888116903115118,0.15011408507714435,-0.020627065857508804
1.0051319407392107,0.011013597455985432,0.11126084022274181,0.011624969459267675,0.12281706255962303,-0.016556409842166983
1.0051790227643411,0.003334338693202587,0.0922228774853711,0.009001101837417943,0.10173773589452456,-0.014298236757575748
1.0052261047894715,0.0027948227754708652,0.07212176777513181,0.005716764128480125,0.08003942700264005,-0.012560328715424915
1.0052731868146019,0.010164673003053454,0.05500324343883214,0.005314070387151807,0.05935646026401939,-0.008252962571784107
1.0053202688397322,0.026566180290056158,0.044841784200592136,0.008193549268036414,0.04599781977196744,-0.0024168518120762906
1.0053673508648626,0.05291846997433676,0.04043338385489724,0.011498759854167706,0.03948246005938501,0.0022801857063856406
1.005414432889993,0.08828034555015178,0.041162585983269134,0.017065936640710815,0.036656154293654666,0.008347317713203215
1.0054615149151234,0.12763762777320273,0.04644692027814438,0.025647230237824777,0.03783426844750015,0.016450328666032462
1.0055085969402537,0.16155770115500132,0.05782241781529512,0.038076850744054896,0.04617923000216699,0.02670037033075431
1.0055556789653841,0.18078890709766565,0.07089080209787371,0.05135766337998839,0.05853109764961644,0.03690422521428372
1.0056027609905145,0.18307418566708303,0.08084946162917071,0.06056084021799014,0.07046402849566512,0.04324358331533374
1.0056498430156449,0.1741533504439713,0.08652383803177392,0.06655908741414072,0.07741518247152644,0.04757309065498962
1.0056969250407752,0.16242605985016223,0.09021589514646844,0.07063087442771013,0.08232197290456648,0.05047680101622882
1.0057440070659056,0.15418810481596457,0.09383991784762193,0.07107575192890922,0.08698328244483648,0.04987994017428864
1.005791089091036,0.1523552110015489,0.09475092856192106,0.0660360559428213,0.08935922612551475,0.04440567639337988
1.0058381711161664,0.15691036178882456,0.09511356920270374,0.06130313889977103,0.09131839061107455,0.039324256373553294
1.0058852531412967,0.16538784679386007,0.1007832383115152,0.06307528196508604,0.09621597266839045,0.039973328750648546
1.005932335166427,0.17322460684996496,0.10555981192103718,0.06323184659303546,0.1016991059813585,0.03890626308867062
1.0059794171915575,0.17475929729964576,0.10500090055164708,0.05880087400333982,0.10252652242279021,0.03436721527325725
1.0060264992166879,0.16548577922015562,0.09957419079604106,0.05204155960234529,0.097975564740752,0.02874646433497177
1.0060735812418182,0.1445721481217929,0.08985601852487769,0.04234591607178599,0.089104970784537,0.021228014699741077
1.0061206632669486,0.11538472372115638,0.08149339631186725,0.03266210113426135,0.07978173291901476,0.013845034507760203
1.006167745292079,0.08342022676517998,0.0725693879116813,0.0259645785337829,0.06994975850134812,0.009514579898149732
1.0062148273172093,0.053714935068683495,0.06619077312715173,0.01794830890199036,0.06288647938805474,0.0032800148781522414
1.0062619093423397,0.029620632829972474,0.05843500002333985,0.006428025048282717,0.05590304041205361,-0.006382839334662242
1.00630899136747,0.012907514843990737,0.050725267851726125,-0.004503164505502606,0.0504808474246173,-0.01581420016921026
1.0063560733926005,0.004292560353454192,0.04865409350704174,-0.010519166817943732,0.05053968655769667,-0.021692790634308057
1.0064031554177308,0.0038095921685766332,0.0548934789429624,-0.007972360122875525,0.05841015058160236,-0.020998997060936397
1.0064502374428612,0.010924293923755681,0.07564713388183192,0.0013341291502741227,0.08094425026171331,-0.0170483138408256
1.0064973194679916,0.02453035587728399,0.1012673608037486,0.011333716656649779,0.10811862898384789,-0.013472816870741238
1.006544401493122,0.042966387475684646,0.12632803547944033,0.020787738978896356,0.13529600093777258,-0.010419679433328687
1.0065914835182523,0.06411092062196938,0.15046635646401693,0.03329944681240632,0.1586586681205591,-0.0034467561414199418
1.0066385655433827,0.08556714248621351,0.17518562933145782,0.049462130528264495,0.1801526026764469,0.007649419294552923
1.006685647568513,0.10493697207975199,0.1977956374792103,0.06485229624100503,0.19876640486130714,0.018754661430289192
1.0067327295936435,0.12014720761669652,0.21281529571647748,0.07640706666955516,0.2100174777628094,0.027790826219097172
1.0067798116187738,0.12974860817624662,0.2188924798034321,0.08294186479002422,0.21148863897365783,0.03402625183041132
1.0068268936439042,0.1331160769266914,0.21506347198167894,0.08436945777741765,0.20294675273374815,0.03736380396257287
1.0068739756690346,0.13051634907150206,0.20372382482771906,0.08386978816652868,0.18770349923065646,0.04024836584654814
1.006921057694165,0.12301693370584733,0.18430148888204131,0.08185258015702256,0.1669312640466291,0.04283666667604957
1.0069681397192953,0.11219272060745543,0.15946468894325708,0.07585112215539112,0.14221113535285862,0.0423531470247297
1.0070152217444257,0.09964098937742749,0.13220750267960252,0.06985230351433948,0.11447518226852466,0.04258008457236106
1.007062303769556,0.08648287672211809,0.10699615434329858,0.06302251331950957,0.08922383776574926,0.04147814725542998
1.0071093857946865,0.07315337862299943,0.08526930284795334,0.053521194673379444,0.06780879327076422,0.03694531596188396
1.0071564678198168,0.05967551136841471,0.06852964824134458,0.042771215350936226,0.05177772097905734,0.030026955273764297
1.0072035498449472,0.046352747241279996,0.05315845765941623,0.029687677967592516,0.03915929950722293,0.020093088749138285
1.0072506318700776,0.03458526276589038,0.043370038831098044,0.01916866027493343,0.032540422885673166,0.011326803501408625
1.007297713895208,0.02727830692374265,0.0402935778613938,0.01473006896934623,0.03179197969207157,0.007168514594410762
1.0073447959203383,0.0280866607277734,0.04701022392891296,0.01711698325886342,0.03880390391189469,0.007912038211496263
1.0073918779454687,0.03925806445151868,0.0679521143428914,0.028584290137595406,0.05784678823822127,0.014805080528346745
1.007438959970599,0.059562255279517966,0.09539771414339741,0.043832242766228824,0.08190059799006286,0.024303020824652397
1.0074860419957294,0.08449757331606145,0.12159635753722721,0.058037587268334905,0.10493743749223972,0.033078680029155025
1.0075331240208598,0.10858230355013457,0.14183221080740274,0.06858033205585247,0.12424046422119339,0.039157031800448515
1.0075802060459902,0.12742598805780986,0.15357715190043353,0.07621925524513734,0.13530527752236973,0.044246806494815
1.0076272880711206,0.13840784538629322,0.1559534129868917,0.07904744927672683,0.13795039047830188,0.04645962080897592
1.007674370096251,0.14057521646913557,0.15034031275585993,0.0769603579802706,0.13517634502412784,0.045008221958224515
1.0077214521213813,0.1345761316442056,0.13818738194876692,0.07084930100861353,0.12590943398229215,0.041024926740264006
1.0077685341465117,0.12269802495893224,0.11949914713950902,0.062425783036096825,0.10978635595306035,0.03631184609368044
1.007815616171642,0.10844877640211482,0.09981269773873856,0.054884533548136764,0.09171461111041626,0.03293738793252193
