freq,gls,usurper,pdc_unbiased,shape_periodogram,shift_periodogram
1.0,0.02176245538732735,0.04996732696087874,-0.007335655112181927,0.03734143111716738,-0.014691026113132112
1.0000470820251304,0.05134779247241603,0.10084441726505136,0.016081221596065367,0.08408036383881674,-0.0011261602115302067
1.0000941640502607,0.09689124580742478,0.1564532683467935,0.05094334186944231,0.1389899873569571,0.02228153567732809
1.0001412460753911,0.14848755125694818,0.2118618252041762,0.08456655871201842,0.19181796511147106,0.04543555835697129
1.0001883281005215,0.19664060203551523,0.2567302590421484,0.10917973127593883,0.23572428107720772,0.06191087317766452
1.0002354101256519,0.23592916525893703,0.2870825985242341,0.12678225514793529,0.26663190747580173,0.07417673615128499
1.0002824921507822,0.26363730657080775,0.3071563941419291,0.13936052532630389,0.2860225385208408,0.08366698047571469
1.0003295741759126,0.2780607972143743,0.31783809742648345,0.14663287491158739,0.29616935954094203,0.08943421195382699
1.000376656201043,0.27778293516045677,0.3202895863475467,0.14742341655727248,0.29843816095495435,0.08985682043761858
1.0004237382261734,0.2619162710265795,0.31260547799655763,0.139633635428265,0.2913952780993039,0.08297704644011032
1.0004708202513037,0.23107843684954268,0.2922713048305005,0.12167319492364326,0.27375783043048596,0.06756757363915414
1.0005179022764341,0.1884924826566669,0.2651498197420434,0.09811663264576473,0.25082473097105434,0.0477079793958467
1.0005649843015645,0.1401213853463462,0.24602012671146536,0.07552593926328457,0.23598317354448758,0.02759907522560844
1.0006120663266949,0.09311329616242185,0.23807930683253606,0.056936636782797936,0.2316453703751929,0.009629857602280778
1.0006591483518252,0.05338098213176131,0.24187254606382164,0.04656239048066332,0.23636358027170393,-0.0018349308513274476
1.0007062303769556,0.024158292773911582,0.2482977906620678,0.0379052596807291,0.24345850969123062,-0.012073314385355213
1.000753312402086,0.006389706849983347,0.2468513595561192,0.024925530867037873,0.2445014807226054,-0.025418415468924815
1.0008003944272164,4.4957735270936574e-05,0.244333977337527,0.013623927240606612,0.24154857773636218,-0.03618862967122681
1.0008474764523467,0.004476680458159687,0.24405850648778676,0.005279248516488982,0.24419755120527262,-0.04517055426767979
1.000894558477477,0.016631009383087918,0.2566690836893171,0.00604487589630294,0.25853586093695513,-0.04754026062142993
1.0009416405026075,0.030279800796216314,0.2872887634806497,0.01614856324889533,0.2874492428927547,-0.043683630160371634
1.0009887225277379,0.04019506929021177,0.330381615340964,0.031662352407458065,0.3271886751076179,-0.03663906570375305
1.0010358045528682,0.045271217739530065,0.37614240360374845,0.049643587368788454,0.3696138874916521,-0.027435548176340478
1.0010828865779986,0.04665854735345898,0.40913700003646797,0.06394396252727896,0.40492765866150415,-0.02024349015798505
1.001129968603129,0.04557434040645729,0.42354817311693965,0.06951556918541625,0.42348041799293906,-0.018478646792624526
1.0011770506282593,0.04281463251624272,0.41726528816556224,0.06676401531502141,0.4230478558955963,-0.021372674667504463
1.0012241326533897,0.03911406922799136,0.3956429584757444,0.05756222886158259,0.4070457846676215,-0.027606089778650967
1.00127121467852,0.035734840091298535,0.365413329713602,0.04469056838221148,0.38135747491159594,-0.03538151798341804
1.0013182967036505,0.034632288517627896,0.34268315785072834,0.03354469161607427,0.362450609620757,-0.04274735028442256
1.0013653787287808,0.03686446430802818,0.3440876164508314,0.03235087082016887,0.3626530229905004,-0.04404788156593225
1.0014124607539112,0.040499198873267514,0.36584752702250467,0.04235422606047071,0.3807219399268864,-0.03771109218975532
1.0014595427790416,0.04245011553894062,0.3941368879560873,0.05148956578485458,0.40651556148057705,-0.03401381568157029
1.001506624804172,0.04142424671447975,0.41434604970108446,0.057489670337512934,0.42405377733979127,-0.031686420188317556
1.0015537068293023,0.03772147907862947,0.4168638615721717,0.05838903434484734,0.4250371990122297,-0.030943477602531914
1.0016007888544327,0.032149333674356434,0.40014785272984055,0.05286952532393206,0.4059367320744271,-0.03239448303762094
1.001647870879563,0.025799799790141527,0.3637434713203485,0.040386054375886556,0.3679351788878801,-0.03682193198530841
1.0016949529046935,0.020580986012262138,0.3153249675351955,0.02276083148008517,0.31885365288531164,-0.043956694534443126
1.0017420349298238,0.01993155776046648,0.27358614585297025,0.008396000375120035,0.27729247897816334,-0.049313762201331934
1.0017891169549542,0.027489951613850306,0.2552433902247566,0.00883020356959996,0.2587371608744263,-0.04476857097511254
1.0018361989800846,0.042074300128446054,0.2577178006507995,0.022145335055818467,0.26220242777523267,-0.03203909906409819
1.001883281005215,0.05845891480384451,0.2747732713562547,0.04104344236602053,0.27956883702345015,-0.01653525514804563
1.0019303630303453,0.07582159493280267,0.29410733531357697,0.05832937685591873,0.29567107328727144,-0.0022116716082260994
1.0019774450554757,0.09824195100672209,0.3016649702345121,0.07041397317164165,0.29736930466200523,0.009906807363608655
1.002024527080606,0.1303669711588208,0.2874241596476885,0.07896421651578898,0.2793995400632561,0.022399864920911526
1.0020716091057364,0.17464242099810953,0.265864332046281,0.08832693698111686,0.2566681389852817,0.03654629708371501
1.0021186911308668,0.22917237164395338,0.2687177805419276,0.11355266104308831,0.25388160932259257,0.06294323900456947
1.0021657731559972,0.2864808872447173,0.2928267826460649,0.14880372324738836,0.27052536855861337,0.0962685186452223
1.0022128551811276,0.335488571803669,0.3195281722995957,0.17945522269565434,0.29137486359386794,0.12468567159333412
1.002259937206258,0.3667004160945303,0.33630436887384607,0.20044309409803335,0.3041563343847923,0.14476561333674856
1.0023070192313883,0.37630521047742305,0.33976504807027225,0.20989430295355302,0.30522929787397474,0.1546220431028745
1.0023541012565187,0.3658732131217113,0.33057479841606086,0.20800353236518512,0.29522788607108963,0.15415206419011396
1.002401183281649,0.3393357840705059,0.31084215657195774,0.19716291122807472,0.276487211835016,0.14568487733783053
1.0024482653067794,0.30043566038503033,0.28327625979474474,0.1783931936762516,0.2508928630369108,0.13033065367361482
1.0024953473319098,0.25183659939415354,0.2488586638178584,0.15384153094853617,0.21837665111879523,0.11069309181171431
1.0025424293570402,0.1956066522565673,0.2031145110195329,0.12081929242955049,0.17733521504750804,0.08467730609124065
1.0025895113821706,0.13475970805500284,0.14119869279879393,0.07564140824241966,0.12421985498913565,0.04970295877068228
1.002636593407301,0.07582916802294695,0.07622534175576497,0.025728531183742454,0.07076498576338296,0.011034967342801408
1.0026836754324313,0.03145358980808763,0.03906498015493909,-0.0040036080406334615,0.037362407248485316,-0.011429424188668246
1.0027307574575617,0.01779891286180085,0.038217925495691876,-0.006351274616742859,0.033545848870450874,-0.012962243734232713
1.002777839482692,0.04358985242398123,0.05630325263185442,0.006591376950054447,0.05323115531488685,-0.004234115219611093
1.0028249215078224,0.1037077589167159,0.09837738906145453,0.04281328660270074,0.09369654278602736,0.023267973277603566
1.0028720035329528,0.18101238562213362,0.16659338132040075,0.0979436666785688,0.1560903294429383,0.06574542128295963
1.0029190855580832,0.25636899888384335,0.23739223466296927,0.15380629462607742,0.21687973849757944,0.11092189070881199
1.0029661675832136,0.31832235074100634,0.29543233320318013,0.19704252226634572,0.2592916181794299,0.14831274886397322
1.003013249608344,0.36361141655314383,0.3319974974546943,0.228525784613192,0.2869742640077811,0.17707728216287086
1.0030603316334743,0.39341420767750745,0.35527148381248475,0.24979870354304085,0.30416985171135935,0.1972481401062655
1.0031074136586047,0.4102870696014962,0.36781417034421177,0.26258314989231946,0.31288100472578795,0.20978425177428198
1.003154495683735,0.41662904201390033,0.371729003664713,0.266777273312063,0.3145110506353958,0.21408122816479594
1.0032015777088654,0.41405085665469693,0.3679019401834559,0.26326150551395927,0.30921861704593434,0.21098086828244014
1.0032486597339958,0.4030953535584088,0.3561325747888996,0.251751202986526,0.2967971885770464,0.20032473644586588
1.0032957417591262,0.38301151602067063,0.33609196843891287,0.2324239377319079,0.27714215493024663,0.18262330568519156
1.0033428237842565,0.3514583105172215,0.30706672442091426,0.2047530276495091,0.24999207251387523,0.15781592113379314
1.003389905809387,0.3042863356687068,0.26886401290373346,0.16911475512504195,0.2159066122984359,0.12673623567761294
1.0034369878345173,0.2364892670841809,0.22209515256225798,0.12615890065588273,0.17568486239762554,0.09035982697984053
1.0034840698596477,0.14805992805189566,0.17015545111706273,0.07745804013496241,0.13325022209023293,0.04974419105043343
1.003531151884778,0.05937981673678241,0.13195740865777472,0.035632586371168055,0.10490974310597553,0.013945733789865966
1.0035782339099084,0.016571701488668728,0.1274466121281555,0.012038086514572617,0.10848311469832808,-0.010041504092525194
1.0036253159350388,0.04141534161646615,0.16848344238398727,0.014399178728297872,0.1539918392137648,-0.01700482378531476
1.0036723979601692,0.0978579156313711,0.23876644424729065,0.03595348541122598,0.22643549982519404,-0.010481383703755115
1.0037194799852995,0.14599333246590304,0.3198481512761985,0.06503465797160808,0.31072272482604646,0.0015489440390541703
1.00376656201043,0.17300879075255565,0.3909129593668039,0.0922030709843016,0.3853254809399845,0.014480083036124202
1.0038136440355603,0.18229222765708752,0.44282794235688017,0.11374971918924169,0.44000703917111517,0.026534629740391183
1.0038607260606907,0.18262972424027749,0.4749283908130432,0.12736778710133306,0.4760352402840089,0.034367524217036684
1.003907808085821,0.18292620727983336,0.49103242606045,0.13485525602086357,0.49558636018092067,0.03893767691578448
1.0039548901109514,0.18798821740501145,0.4968232524905465,0.13913083302593265,0.5008040156550551,0.042831412462004184
1.0040019721360818,0.19658928748535154,0.49237560467541563,0.1397247738744464,0.49489222844176,0.04471385511819086
1.0040490541612122,0.20361099360789395,0.4797428030089224,0.1356935801867525,0.4775305269615726,0.04356601653678827
1.0040961361863425,0.20356945018764083,0.4568458308771504,0.1287855413388881,0.4490639237019869,0.041463502073139744
1.004143218211473,0.19261735903368254,0.420471693960072,0.11776025800915435,0.40965406922759273,0.03717777167667152
1.0041903002366033,0.1692114287165738,0.36928920816185246,0.09836742477706704,0.3578526683956109,0.026763653178074928
1.0042373822617336,0.13469585530973552,0.31004017583555843,0.07519967777083232,0.2996535161352926,0.014386063857553422
1.004284464286864,0.094068350002802,0.2538207060904039,0.051842634052145065,0.24356447156386607,0.002024146561256862
1.0043315463119944,0.0558705414627791,0.20472069660763723,0.03082107495389939,0.19404444163681084,-0.00891303700694195
1.0043786283371248,0.029785725493520713,0.17270535978052434,0.019809015244991575,0.160394301695598,-0.012954217313598228
1.0044257103622551,0.022326134922130727,0.1578404322346915,0.01684685304795892,0.1433179996988697,-0.012390012729347363
1.0044727923873855,0.03362727707623793,0.1580467941193412,0.01768087969631584,0.14280665179785715,-0.011459695867914448
1.004519874412516,0.057935866130881315,0.17077494978826696,0.0238553638180855,0.15576501762872627,-0.007988728786741058
1.0045669564376463,0.08691312585069338,0.1970850983000098,0.038233159934289905,0.18233798655954814,0.0008952285857545078
1.0046140384627766,0.11302745450084833,0.23102088365330647,0.05542672474865837,0.21771574273532107,0.010940145741774255
1.004661120487907,0.13143773576861661,0.26385851812365396,0.07126698378066398,0.2538628132382298,0.019675359186202664
1.0047082025130374,0.140315951549541,0.28939895670330523,0.0817840112464661,0.2833056517229217,0.02451582150507108
1.0047552845381678,0.14016084842095028,0.3021536197377788,0.0846685751900148,0.3013248045892652,0.02385927770607391
1.0048023665632981,0.13271042804166153,0.30045308382549524,0.08028160564993014,0.30488819968516745,0.018581227383288105
1.0048494485884285,0.1199532079956697,0.2866204375721948,0.06958311394397716,0.2969999667584149,0.00912465086322568
1.0048965306135589,0.10352759540252561,0.2619976030514546,0.05738407400153901,0.2764186682924012,0.0008544518028571521
1.0049436126386893,0.08458770500586026,0.23016677025136764,0.04469505929439128,0.24710868946015252,-0.005959659180082523
1.0049906946638196,0.06411017510052013,0.19776881140203478,0.03435472552873721,0.21614705256155636,-0.009948236434750504
1.00503777668895,0.043500849939608656,0.16712041410656586,0.022887706523455283,0.18535317586638828,-0.015038585977601363
1.0050848587140804,0.02497562650004661,0.13716730915811506,0.013888116903115118,0.15373973541202557,-0.01745956485393869
1.0051319407392107,0.011013597455985432,0.1152749839378743,0.011624969459267675,0.12836945645147357,-0.014497915495557493
1.0051790227643411,0.003334338693202587,0.0963329391888296,0.009001101837417943,0.10678171475969468,-0.012688404972994933
1.0052261047894715,0.0027948227754708652,0.0752292032430822,0.005716764128480125,0.08344491115448041,-0.01118837169534397
1.0052731868146019,0.010164673003053454,0.05652023878207333,0.005314070387151807,0.06072817753282377,-0.006997202352757427
1.0053202688397322,0.026566180290056158,0.04405385883976594,0.008193549268036414,0.04438049661883035,-0.0008826691831250029
1.0053673508648626,0.05291846997433676,0.037423676905575694,0.011498759854167706,0.03487807222219324,0.004266660613584312
1.005414432889993,0.08828034555015178,0.03645405048237647,0.017065936640710815,0.02977473343881905,0.010748228162819513
1.0054615149151234,0.12763762777320273,0.04024995138782351,0.025647230237824777,0.029384833145062152,0.019239552872859302
1.0055085969402537,0.16155770115500132,0.0502573641388514,0.038076850744054896,0.0367764110794277,0.02995328122790485
1.0055556789653841,0.18078890709766565,0.06222883354957907,0.05135766337998839,0.0487701283169178,0.04060360427951698
1.0056027609905145,0.18307418566708303,0.07164075075399536,0.06056084021799014,0.06094538696344469,0.04723830103579332
1.0056498430156449,0.1741533504439713,0.07734100376743411,0.06655908741414072,0.06841913659965974,0.05166702571788506
1.0056969250407752,0.16242605985016223,0.08101201328456398,0.07063087442771013,0.07386149500533848,0.054607420017202056
1.0057440070659056,0.15418810481596457,0.0838791133011712,0.07107575192890922,0.07852864814324151,0.05412982001483861
1.005791089091036,0.1523552110015489,0.08387132485733051,0.0660360559428213,0.08057513270544862,0.04875960460642627
1.0058381711161664,0.15691036178882456,0.0836629472128517,0.06130313889977103,0.08207506415111368,0.043798761758870416
1.0058852531412967,0.16538784679386007,0.08887397018178096,0.06307528196508604,0.0864272277542325,0.04468816308385748
1.005932335166427,0.17322460684996496,0.09308346944425773,0.06323184659303546,0.09119438706700521,0.04390356435529246
1.0059794171915575,0.17475929729964576,0.0921942064198433,0.05880087400333982,0.09133981533308193,0.03950288366001338
1.0060264992166879,0.16548577922015562,0.08686922446002616,0.05204155960234529,0.08648085535809522,0.033798842754132655
1.0060735812418182,0.1445721481217929,0.07782408155109305,0.04234591607178599,0.07770080483435168,0.025993555224969756
1.0061206632669486,0.11538472372115638,0.07041546448691102,0.03266210113426135,0.06855487373804868,0.018292780406506736
1.006167745292079,0.08342022676517998,0.06283494759480479,0.0259645785337829,0.05949387501103272,0.01352470631328243
1.0062148273172093,0.053714935068683495,0.05815472895686096,0.01794830890199036,0.05361478418611944,0.006832964158971583
1.0062619093423397,0.029620632829972474,0.052530613254688045,0.006428025048282717,0.04862675109995409,-0.003467991312736613
1.00630899136747,0.012907514843990737,0.0470937901170852,-0.004503164505502606,0.04580096177456357,-0.013618557181468267
1.0063560733926005,0.004292560353454192,0.047109856339564625,-0.010519166817943732,0.048650350997048994,-0.020091318700715795
1.0064031554177308,0.0038095921685766332,0.053782818844665084,-0.007972360122875525,0.05731616702864565,-0.0193440328296541
1.0064502374428612,0.010924293923755681,0.07387042945351913,0.0013341291502741227,0.07947651616070879,-0.014691852645464035
1.0064973194679916,0.02453035587728399,0.09834364882119132,0.011333716656649779,0.10595850722050885,-0.01022315475345787
1.006544401493122,0.042966387475684646,0.12188309384007198,0.020787738978896356,0.13211796388763652,-0.00620633660304184
1.0065914835182523,0.06411092062196938,0.14439951486833366,0.03329944681240632,0.15387109685917152,0.001773121307253352
1.0066385655433827,0.08556714248621351,0.16719943515128213,0.049462130528264495,0.17333786307239557,0.013928784385581613
1.006685647568513,0.10493697207975199,0.187266626981275,0.06485229624100503,0.18943565913618338,0.02610328736298837
1.0067327295936435,0.12014720761669652,0.20003905633800156,0.07640706666955516,0.19848293341871232,0.03592017058514089
1.0067798116187738,0.12974860817624662,0.2045282088367448,0.08294186479002422,0.1981659179440529,0.04256136985407823
1.0068268936439042,0.1331160769266914,0.20034254975472335,0.08436945777741765,0.18873254860213512,0.0458385477374205
1.0068739756690346,0.13051634907150206,0.18918727637295116,0.08386978816652868,0.17322624385978508,0.04835534413432449
1.006921057694165,0.12301693370584733,0.1704204858488556,0.08185258015702256,0.1528999935897644,0.05029203214442673
1.0069681397192953,0.11219272060745543,0.14653254082328718,0.07585112215539112,0.12880750641460273,0.049015158212047674
1.0070152217444257,0.09964098937742749,0.12070007945256948,0.06985230351433948,0.10211997228024636,0.0482950504433522
1.007062303769556,0.08648287672211809,0.09715165099234678,0.06302251331950957,0.07811595578369951,0.04627377981218558
1.0071093857946865,0.07315337862299943,0.07729902232280114,0.053521194673379444,0.057896842148497565,0.04091934664688648
1.0071564678198168,0.05967551136841471,0.06236370054666393,0.042771215350936226,0.0429244292216897,0.03333464028728432
1.0072035498449472,0.046352747241279996,0.04872596167303673,0.029687677967592516,0.031432991088671564,0.02279176757024728
1.0072506318700776,0.03458526276589038,0.0406309622370198,0.01916866027493343,0.02605907496891322,0.0135542527926918
1.007297713895208,0.02727830692374265,0.039094414877617036,0.01473006896934623,0.026552435026091663,0.009104562475534692
1.0073447959203383,0.0280866607277734,0.0470942858537153,0.01711698325886342,0.034731378878334274,0.00980457149486201
1.0073918779454687,0.03925806445151868,0.06881591918523039,0.028584290137595406,0.05451647324857098,0.017093318700315403
1.007438959970599,0.059562255279517966,0.09698903238179374,0.043832242766228824,0.07939564332378699,0.027119312566589518
1.0074860419957294,0.08449757331606145,0.12397663085472733,0.058037587268334905,0.103682484594674,0.036311116368073604
1.0075331240208598,0.10858230355013457,0.14530064092885445,0.06858033205585247,0.12484869225478548,0.04257587695446117
1.0075802060459902,0.12742598805780986,0.15827798316201058,0.07621925524513734,0.13785863773615004,0.04761329354016042
1.0076272880711206,0.13840784538629322,0.16040078029496146,0.07904744927672683,0.14112343248277764,0.04978980782026746
1.007674370096251,0.14057521646913557,0.1540515901831786,0.0769603579802706,0.13836557780320338,0.04825130730535144
1.0077214521213813,0.1345761316442056,0.14108647303983382,0.07084930100861353,0.1285938011682207,0.04409191213086556
1.0077685341465117,0.12269802495893224,0.12169181871215362,0.062425783036096825,0.11203038522137616,0.03900190950818087
1.007815616171642,0.10844877640211482,0.1012114354493162,0.054884533548136764,0.09314186453477309,0.03528293521294176
