freq,gls,usurper,pdc_unbiased,shape_periodogram,shift_periodogram
1.0,0.02176245538732735,0.0147939175973216,-0.007335655112181927,0.000813829303919249,-0.0073616356104395896
1.0000470820251304,0.05134779247241603,0.02408370122386031,0.016081221596065367,0.005498363126318633,0.01585693797001275
1.0000941640502607,0.09689124580742478,0.03408829659354598,0.05094334186944231,0.0165281322455741,0.050275623342147364
1.0001412460753911,0.14848755125694818,0.04532349364550464,0.08456655871201842,0.02870579327773517,0.08343978490150375
1.0001883281005215,0.19664060203551523,0.055131896425315234,0.10917973127593883,0.040893617625331946,0.10763473668519541
1.0002354101256519,0.23592916525893703,0.061434605887311484,0.12678225514793529,0.0492113245072092,0.12498034643188916
1.0002824921507822,0.26363730657080775,0.06333935879862337,0.13936052532630389,0.05273072240009485,0.13746543992151455
1.0003295741759126,0.2780607972143743,0.06477155294777995,0.14663287491158739,0.05510447385341847,0.14467760766234009
1.000376656201043,0.27778293516045677,0.06600387708462,0.14742341655727248,0.05643903577666748,0.14543003542190333
1.0004237382261734,0.2619162710265795,0.06426909063939147,0.139633635428265,0.05688720996426095,0.13761341760787213
1.0004708202513037,0.23107843684954268,0.05959181433409714,0.12167319492364326,0.05536879438343275,0.11967027662087419
1.0005179022764341,0.1884924826566669,0.05326018696930836,0.09811663264576473,0.05261388185368172,0.09617040194821257
1.0005649843015645,0.1401213853463462,0.04903415568519096,0.07552593926328457,0.04948343475854496,0.07366227512277378
1.0006120663266949,0.09311329616242185,0.046864387487051885,0.056936636782797936,0.045302677436065655,0.055207410237414746
1.0006591483518252,0.05338098213176131,0.04827226431125198,0.04656239048066332,0.039222034284372174,0.04505056481297048
1.0007062303769556,0.024158292773911582,0.049191075964905115,0.0379052596807291,0.031246907454034568,0.036689265048692396
1.000753312402086,0.006389706849983347,0.04905487824856014,0.024925530867037873,0.021764133922457355,0.02407189220468836
1.0008003944272164,4.4957735270936574e-05,0.05045326064901694,0.013623927240606612,0.013541594022182416,0.013091522818364575
1.0008474764523467,0.004476680458159687,0.04824940466795907,0.005279248516488982,0.011216645538290519,0.004841952363056431
1.000894558477477,0.016631009383087918,0.04902736956651869,0.00604487589630294,0.013074485470109172,0.005535354783458622
1.0009416405026075,0.030279800796216314,0.05495456327121286,0.01614856324889533,0.01858346193660853,0.015420928679987315
1.0009887225277379,0.04019506929021177,0.0639177974932379,0.031662352407458065,0.028538723040692875,0.030549337769257348
1.0010358045528682,0.045271217739530065,0.07160506338590462,0.049643587368788454,0.04085829436310657,0.048072547145043804
1.0010828865779986,0.04665854735345898,0.07329455208615887,0.06394396252727896,0.05351574566328974,0.06192792116288324
1.001129968603129,0.04557434040645729,0.07233170200383013,0.06951556918541625,0.06352867460241499,0.06715982099526956
1.0011770506282593,0.04281463251624272,0.06633934512961108,0.06676401531502141,0.06905576146149195,0.06421417819055783
1.0012241326533897,0.03911406922799136,0.057753086075857545,0.05756222886158259,0.07149605176746902,0.05490823038186844
1.00127121467852,0.035734840091298535,0.04921761101879891,0.04469056838221148,0.07213764460170835,0.04198517866377126
1.0013182967036505,0.034632288517627896,0.04210881430907706,0.03354469161607427,0.07275208541546324,0.030792692968320358
1.0013653787287808,0.03686446430802818,0.04319236718847128,0.03235087082016887,0.07342744178736403,0.02957160277279661
1.0014124607539112,0.040499198873267514,0.05029749143884926,0.04235422606047071,0.0748457445253445,0.0395468515807169
1.0014595427790416,0.04245011553894062,0.057437976853726744,0.05148956578485458,0.07508609511785158,0.04869613518429973
1.001506624804172,0.04142424671447975,0.06146005226394971,0.057489670337512934,0.07075733255026107,0.05486112421484681
1.0015537068293023,0.03772147907862947,0.06172095659290133,0.05838903434484734,0.06329396053358743,0.056022334469945645
1.0016007888544327,0.032149333674356434,0.06035602916220349,0.05286952532393206,0.05226671985131031,0.05088682295439108
1.001647870879563,0.025799799790141527,0.05709010140995906,0.040386054375886556,0.038118955765400864,0.038913819075985574
1.0016949529046935,0.020580986012262138,0.050241156097557416,0.02276083148008517,0.02330131203569459,0.02184952246579948
1.0017420349298238,0.01993155776046648,0.045282411074186735,0.008396000375120035,0.012400151147372659,0.007910950904183709
1.0017891169549542,0.027489951613850306,0.04449829344117268,0.00883020356959996,0.009975566998235694,0.008438378412865485
1.0018361989800846,0.042074300128446054,0.04474322997923987,0.022145335055818467,0.014287704721492458,0.02157897558840743
1.001883281005215,0.05845891480384451,0.049202564929185316,0.04104344236602053,0.023785511362050853,0.040106780865199775
1.0019303630303453,0.07582159493280267,0.055304217013888976,0.05832937685591873,0.03386972061774573,0.05701552979207458
1.0019774450554757,0.09824195100672209,0.06063198203632716,0.07041397317164165,0.04376641159810433,0.06874725761820807
1.002024527080606,0.1303669711588208,0.05891100250642463,0.07896421651578898,0.051580807649187606,0.07703133892529089
1.0020716091057364,0.17464242099810953,0.053079115309172004,0.08832693698111686,0.056998310764862954,0.08622188498988641
1.0021186911308668,0.22917237164395338,0.0546599682116982,0.11355266104308831,0.06080030337643689,0.11136594999571338
1.0021657731559972,0.2864808872447173,0.06061246258576743,0.14880372324738836,0.06425553374130279,0.14658766935805
1.0022128551811276,0.335488571803669,0.06666150550193223,0.17945522269565434,0.06730061547218072,0.17723536759631614
1.002259937206258,0.3667004160945303,0.07060108910894815,0.20044309409803335,0.06872452097479254,0.19824884216685978
1.0023070192313883,0.37630521047742305,0.0717807346786278,0.20989430295355302,0.06793857678062885,0.20774634207803275
1.0023541012565187,0.3658732131217113,0.06997358748962436,0.20800353236518512,0.06499014740934123,0.20591820721373127
1.002401183281649,0.3393357840705059,0.06563032874750489,0.19716291122807472,0.05949978689570944,0.1951846332058592
1.0024482653067794,0.30043566038503033,0.05997267745031703,0.1783931936762516,0.05070601744701979,0.17661546096583938
1.0024953473319098,0.25183659939415354,0.0525847293387591,0.15384153094853617,0.0384131856587884,0.15240577744766015
1.0025424293570402,0.1956066522565673,0.042491517027923836,0.12081929242955049,0.024755742821268748,0.1198300263644603
1.0025895113821706,0.13475970805500284,0.028955633502946637,0.07564140824241966,0.011363521962911712,0.07515438887675524
1.002636593407301,0.07582916802294695,0.016298271869873704,0.025728531183742454,0.0021607173705768504,0.025625909061549046
1.0026836754324313,0.03145358980808763,0.016527745881916394,-0.0040036080406334615,0.0006302284632295863,-0.004024981396695136
1.0027307574575617,0.01779891286180085,0.02827548477817121,-0.006351274616742859,0.010395001189982479,-0.006748767663124359
1.002777839482692,0.04358985242398123,0.03131991603414898,0.006591376950054447,0.027436639233326246,0.005527802833449327
1.0028249215078224,0.1037077589167159,0.034856711711826506,0.04281328660270074,0.04162069450741,0.04121205159385735
1.0028720035329528,0.18101238562213362,0.04508345210910489,0.0979436666785688,0.05003306685817865,0.09608312431240551
1.0029190855580832,0.25636899888384335,0.061480358592675616,0.15380629462607742,0.054994603063065924,0.1518661907432881
1.0029661675832136,0.31832235074100634,0.07610310250101154,0.19704252226634572,0.054222507920223484,0.19520027421634725
1.003013249608344,0.36361141655314383,0.08295730831330804,0.228525784613192,0.05347091756014069,0.2267625159277662
1.0030603316334743,0.39341420767750745,0.0869709818662406,0.24979870354304085,0.05265473210035772,0.24809672362309526
1.0031074136586047,0.4102870696014962,0.08771612023176752,0.26258314989231946,0.050734911251119515,0.26094974456111064
1.003154495683735,0.41662904201390033,0.08703331614760819,0.266777273312063,0.04821096148488759,0.2652086794495739
1.0032015777088654,0.41405085665469693,0.08468674479449001,0.26326150551395927,0.0445895221075084,0.26177169486001584
1.0032486597339958,0.4030953535584088,0.08074184216088547,0.251751202986526,0.039819539105873485,0.2503645100056044
1.0032957417591262,0.38301151602067063,0.07515572574521152,0.2324239377319079,0.03394853811251012,0.23117734221345665
1.0033428237842565,0.3514583105172215,0.06750854662367091,0.2047530276495091,0.026765120488642276,0.20370547024756208
1.003389905809387,0.3042863356687068,0.05755810462084578,0.16911475512504195,0.018482139875094963,0.16833555192797967
1.0034369878345173,0.2364892670841809,0.045872207676522836,0.12615890065588273,0.009652320739642251,0.12570748214406022
1.0034840698596477,0.14805992805189566,0.032923339148890715,0.07745804013496241,0.0011022641536620403,0.07735828403427268
1.003531151884778,0.05937981673678241,0.02343581727627787,0.035632586371168055,-0.005025784498771385,0.035800370305033545
1.0035782339099084,0.016571701488668728,0.021028797906414563,0.012038086514572617,-0.006595964558105831,0.012284318038389235
1.0036253159350388,0.04141534161646615,0.028214041112954148,0.014399178728297872,-0.0008156932406482373,0.014419946942492823
1.0036723979601692,0.0978579156313711,0.04001055126615596,0.03595348541122598,0.009696146739046623,0.03555414205121483
1.0037194799852995,0.14599333246590304,0.05362644698851837,0.06503465797160808,0.023171404522573918,0.06411309416086573
1.00376656201043,0.17300879075255565,0.06334436379336197,0.0922030709843016,0.03679506313913379,0.09079088209438034
1.0038136440355603,0.18229222765708752,0.07147251300159614,0.11374971918924169,0.046174127150812205,0.11203248792591014
1.0038607260606907,0.18262972424027749,0.07699942942386567,0.12736778710133306,0.05498659934042785,0.12538548248842019
1.003907808085821,0.18292620727983336,0.07889610193661255,0.13485525602086357,0.06408811283596527,0.13261224731335278
1.0039548901109514,0.18798821740501145,0.07968700916092669,0.13913083302593265,0.06981343118510235,0.13673344635919613
1.0040019721360818,0.19658928748535154,0.07913326813961163,0.1397247738744464,0.0724882911245094,0.1372540013043699
1.0040490541612122,0.20361099360789395,0.07927500693036385,0.1356935801867525,0.07176996764070155,0.13323131330777618
1.0040961361863425,0.20356945018764083,0.07598713895814319,0.1287855413388881,0.06999218429451853,0.12635526906232492
1.004143218211473,0.19261735903368254,0.06734435490712097,0.11776025800915435,0.06587215414523895,0.11542558354708907
1.0041903002366033,0.1692114287165738,0.05668759300809199,0.09836742477706704,0.059374753739307284,0.0961995599560324
1.0042373822617336,0.13469585530973552,0.04484095520655352,0.07519967777083232,0.05076630121239508,0.07329115967479874
1.004284464286864,0.094068350002802,0.03421257696593585,0.051842634052145065,0.039183191535204526,0.05033350678099288
1.0043315463119944,0.0558705414627791,0.025479961702353886,0.03082107495389939,0.02572472906878546,0.02981468195575389
1.0043786283371248,0.029785725493520713,0.020756364506801787,0.019809015244991575,0.012950371707235377,0.01929541282509068
1.0044257103622551,0.022326134922130727,0.01986760774907538,0.01684685304795892,0.00306322099902069,0.016715955064738986
1.0044727923873855,0.03362727707623793,0.02192038133858497,0.01768087969631584,-0.0013655911619532082,0.017720453589624034
1.004519874412516,0.057935866130881315,0.026525089030810006,0.0238553638180855,-0.0007606668917496008,0.023866928916284526
1.0045669564376463,0.08691312585069338,0.0336321451411519,0.038233159934289905,0.005056970249714983,0.03801000777791535
1.0046140384627766,0.11302745450084833,0.04210722368980275,0.05542672474865837,0.015509694546412633,0.05479505532421968
1.004661120487907,0.13143773576861661,0.04938467047479136,0.07126698378066398,0.027318763406903507,0.07019171579264062
1.0047082025130374,0.140315951549541,0.05422206135840763,0.0817840112464661,0.03877402665985466,0.0802988646657291
1.0047552845381678,0.14016084842095028,0.05503291075443461,0.0846685751900148,0.04828868486904705,0.0828543031219271
1.0048023665632981,0.13271042804166153,0.052832115867089365,0.08028160564993014,0.054428342080244316,0.07825264428697307
1.0048494485884285,0.1199532079956697,0.049140540448780926,0.06958311394397716,0.059987882252029695,0.06734901061060301
1.0048965306135589,0.10352759540252561,0.04423668989486171,0.05738407400153901,0.0629299229947204,0.055028474926261665
1.0049436126386893,0.08458770500586026,0.03698985314785631,0.04469505929439128,0.06294780920035094,0.04231861610495991
1.0049906946638196,0.06411017510052013,0.030694940811412663,0.03435472552873721,0.059979259517521887,0.032071594824851904
1.00503777668895,0.043500849939608656,0.024498936957990665,0.022887706523455283,0.054611228732300406,0.0207916857836076
1.0050848587140804,0.02497562650004661,0.019308604415911538,0.013888116903115118,0.04724926306031302,0.01206486629489786
1.0051319407392107,0.011013597455985432,0.01728472854258353,0.011624969459267675,0.03834746198592996,0.010141369087733706
1.0051790227643411,0.003334338693202587,0.01569489606472274,0.009001101837417943,0.028778663043528236,0.007885084836495705
1.0052261047894715,0.0027948227754708652,0.011749325714962823,0.005716764128480125,0.02057135864653713,0.004918211958417797
1.0052731868146019,0.010164673003053454,0.008084053419794205,0.005314070387151807,0.012892125392800385,0.004812066786208616
1.0053202688397322,0.026566180290056158,0.006477450136987041,0.008193549268036414,0.005081241236294773,0.007991089311950465
1.0053673508648626,0.05291846997433676,0.007189149725322798,0.011498759854167706,0.001958318061984683,0.0114144855436979
1.005414432889993,0.08828034555015178,0.011076899472208218,0.017065936640710815,0.00156377834538247,0.016992766742240067
1.0054615149151234,0.12763762777320273,0.014838507661847387,0.025647230237824777,0.003414334054555812,0.025496335641537717
1.0055085969402537,0.16155770115500132,0.018452002612366916,0.038076850744054896,0.009413969068770846,0.03768689904658732
1.0055556789653841,0.18078890709766565,0.021923263643197983,0.05135766337998839,0.018707465496466583,0.05060772534181112
1.0056027609905145,0.18307418566708303,0.023951632369999344,0.06056084021799014,0.02925497052434606,0.059416071734992325
1.0056498430156449,0.1741533504439713,0.025051045859932692,0.06655908741414072,0.03671750826865055,0.06514288090217045
1.0056969250407752,0.16242605985016223,0.02485598129162731,0.07063087442771013,0.04254734341878216,0.06900750219332448
1.0057440070659056,0.15418810481596457,0.02394540297842889,0.07107575192890922,0.04418326419393894,0.06939466089192914
1.005791089091036,0.1523552110015489,0.021973907805503855,0.0660360559428213,0.04269450313322567,0.06440518194669274
1.0058381711161664,0.15691036178882456,0.020893414310841855,0.06130313889977103,0.04043264075036981,0.05975148014491752
1.0058852531412967,0.16538784679386007,0.02256119499931628,0.06307528196508604,0.03812974829520992,0.06160729888228842
1.005932335166427,0.17322460684996496,0.02172577769611123,0.06323184659303546,0.03415448810563088,0.061907957022533065
1.0059794171915575,0.17475929729964576,0.01955280165244036,0.05880087400333982,0.0287365529863324,0.057675397423313624
1.0060264992166879,0.16548577922015562,0.017473220317078816,0.05204155960234529,0.023084401599781472,0.05112738449768815
1.0060735812418182,0.1445721481217929,0.0150503211530605,0.04234591607178599,0.016552378538383032,0.04168173741038378
1.0061206632669486,0.11538472372115638,0.01336557774764748,0.03266210113426135,0.009058521359176194,0.03228935224567431
1.006167745292079,0.08342022676517998,0.01113902449376452,0.0259645785337829,0.002455974093455538,0.025850395833352646
1.0062148273172093,0.053714935068683495,0.01085491247907175,0.01794830890199036,-0.0017710560552225028,0.018003362896526553
1.0062619093423397,0.029620632829972474,0.010734589221018342,0.006428025048282717,-0.0034645358434843353,0.006557199598401773
1.00630899136747,0.012907514843990737,0.011675083442156405,-0.004503164505502606,-0.001388860209169233,-0.004446105836341235
1.0063560733926005,0.004292560353454192,0.013256829898088482,-0.010519166817943732,0.0029366058452828434,-0.0106248675963428
1.0064031554177308,0.0038095921685766332,0.01661358313476859,-0.007972360122875525,0.007738559473570179,-0.00826581417532819
1.0064502374428612,0.010924293923755681,0.023427559381971972,0.0013341291502741227,0.016873431245427513,0.0006808505074450549
1.0064973194679916,0.02453035587728399,0.028823694772255364,0.011333716656649779,0.02626137116716062,0.010313632701693932
1.006544401493122,0.042966387475684646,0.03271977413789727,0.020787738978896356,0.03503422386974464,0.0194304155196726
1.0065914835182523,0.06411092062196938,0.03439681155242331,0.03329944681240632,0.03983407550474506,0.03176209253674484
1.0066385655433827,0.08556714248621351,0.03633113098737269,0.049462130528264495,0.04091458021945162,0.04788897224856037
1.006685647568513,0.10493697207975199,0.03820058716233711,0.06485229624100503,0.039391256790307215,0.06333934704918423
1.0067327295936435,0.12014720761669652,0.03886870689866005,0.07640706666955516,0.03646932702187304,0.0750019539421045
1.0067798116187738,0.12974860817624662,0.0377741545889644,0.08294186479002422,0.032634675269899424,0.08167451636926279
1.0068268936439042,0.1331160769266914,0.03812462314029231,0.08436945777741765,0.027562791420832688,0.08328378332090491
1.0068739756690346,0.13051634907150206,0.03533484614892541,0.08386978816652868,0.0224423757807498,0.08296961348962281
1.006921057694165,0.12301693370584733,0.02965652123865069,0.08185258015702256,0.01794015896542562,0.0811180264499558
1.0069681397192953,0.11219272060745543,0.022869720278294755,0.07585112215539112,0.012829339928654794,0.07530911580107891
1.0070152217444257,0.09964098937742749,0.017248822050995483,0.06985230351433948,0.008059527525402775,0.06949323400175608
1.007062303769556,0.08648287672211809,0.012816835831089233,0.06302251331950957,0.004589231113810798,0.06279985489730537
1.0071093857946865,0.07315337862299943,0.01056623418663242,0.053521194673379444,0.0020581553653615855,0.053402170323067155
1.0071564678198168,0.05967551136841471,0.008978630954535466,0.042771215350936226,-9.272469498246157e-05,0.04274286926779847
1.0072035498449472,0.046352747241279996,0.005909697432283277,0.029687677967592516,-0.001774376556931314,0.02973405902852299
1.0072506318700776,0.03458526276589038,0.004431863772104737,0.01916866027493343,-0.0018151590225496826,0.019224505750282745
1.007297713895208,0.02727830692374265,0.004323838317500352,0.01473006896934623,-0.0017941904855058313,0.014788427834853764
1.0073447959203383,0.0280866607277734,0.006729698604297101,0.01711698325886342,-0.0003400676465283973,0.01711733197110538
1.0073918779454687,0.03925806445151868,0.012740336243723659,0.028584290137595406,0.0034399400433139963,0.02843026650881309
1.007438959970599,0.059562255279517966,0.01960090472237665,0.043832242766228824,0.00780709336746701,0.04349987144474122
1.0074860419957294,0.08449757331606145,0.025620825126653177,0.058037587268334905,0.01228262559318967,0.057526153857386804
1.0075331240208598,0.10858230355013457,0.029829959710197577,0.06858033205585247,0.01739134432520816,0.0678717953784451
1.0075802060459902,0.12742598805780986,0.03339038150037557,0.07621925524513734,0.021179945728784455,0.0753675646325391
1.0076272880711206,0.13840784538629322,0.034256256562241315,0.07904744927672683,0.023391065695069973,0.078113941196024
1.007674370096251,0.14057521646913557,0.03261922432849793,0.0769603579802706,0.025564991427954653,0.07594805782960536
1.0077214521213813,0.1345761316442056,0.03045672076523896,0.07084930100861353,0.026026159315621557,0.06982132661402986
1.0077685341465117,0.12269802495893224,0.026920782086420538,0.062425783036096825,0.02450044540381992,0.06145584501049055
