freq,gls,usurper,pdc_unbiased,shape_periodogram,shift_periodogram
1.0,0.02176245538732735,0.005688431156648539,-0.007335655112181927,0.005729147824372113,-0.007487432116409136
1.0000470820251304,0.05134779247241603,0.01052841707693585,0.016081221596065367,0.007987923370609778,0.01586080143735518
1.0000941640502607,0.09689124580742478,0.017732876171613402,0.05094334186944231,0.013289532419672047,0.050572753984607546
1.0001412460753911,0.14848755125694818,0.026323708337353837,0.08456655871201842,0.019378799349478816,0.08403529615808587
1.0001883281005215,0.19664060203551523,0.03367037302937278,0.10917973127593883,0.02660822175754154,0.10847446796609193
1.0002354101256519,0.23592916525893703,0.03832338522053828,0.12678225514793529,0.03116640926574641,0.12597768869493262
1.0002824921507822,0.26363730657080775,0.03812383099708205,0.13936052532630389,0.03307310300618199,0.13852000729421318
1.0003295741759126,0.2780607972143743,0.03833529259389517,0.14663287491158739,0.03461452092345014,0.14576358402034487
1.000376656201043,0.27778293516045677,0.03938796456722184,0.14742341655727248,0.03548830328538663,0.1465362215120542
1.0004237382261734,0.2619162710265795,0.03797581844773883,0.139633635428265,0.03620622728386945,0.1387260309288227
1.0004708202513037,0.23107843684954268,0.03481599035868049,0.12167319492364326,0.03550919526158749,0.1207692072491765
1.0005179022764341,0.1884924826566669,0.030447669378655493,0.09811663264576473,0.034178453708703954,0.09723009214051125
1.0005649843015645,0.1401213853463462,0.027011125892774327,0.07552593926328457,0.0318403114985033,0.07468588968516308
1.0006120663266949,0.09311329616242185,0.024870860031444206,0.056936636782797936,0.028691128426780774,0.05616992951644122
1.0006591483518252,0.05338098213176131,0.025016382593931016,0.04656239048066332,0.022907700236711095,0.04594246394314817
1.0007062303769556,0.024158292773911582,0.024974283911957874,0.0379052596807291,0.014795097396000698,0.0374979297093864
1.000753312402086,0.006389706849983347,0.02566961617759615,0.024925530867037873,0.005669035148055992,0.024764321175403368
1.0008003944272164,4.4957735270936574e-05,0.028851884901299744,0.013623927240606612,-0.002739944086659723,0.01369282218044612
1.0008474764523467,0.004476680458159687,0.0286328970759911,0.005279248516488982,-0.004498373728896228,0.005398557015102619
1.000894558477477,0.016631009383087918,0.03007152166911052,0.00604487589630294,-0.0011559453435830856,0.006073822985211919
1.0009416405026075,0.030279800796216314,0.03555277571680102,0.01614856324889533,0.006283718286232111,0.015973818186018177
1.0009887225277379,0.04019506929021177,0.042725590107569295,0.031662352407458065,0.01710002109470275,0.031195482129861122
1.0010358045528682,0.045271217739530065,0.04875270700761879,0.049643587368788454,0.030755470742096985,0.04882319238956572
1.0010828865779986,0.04665854735345898,0.05064599064209821,0.06394396252727896,0.043744228537489986,0.0628094652921003
1.001129968603129,0.04557434040645729,0.05099635911342431,0.06951556918541625,0.054794239406907516,0.06812677822438108
1.0011770506282593,0.04281463251624272,0.04804666472889155,0.06676401531502141,0.06195616589850307,0.06520655790894773
1.0012241326533897,0.03911406922799136,0.042051943675134124,0.05756222886158259,0.06576572986951301,0.05589901280156457
1.00127121467852,0.035734840091298535,0.0343915991435369,0.04469056838221148,0.06699069125907801,0.04297136320707573
1.0013182967036505,0.034632288517627896,0.02774194606259913,0.03354469161607427,0.0670012110744281,0.031801963686853896
1.0013653787287808,0.03686446430802818,0.02742597139776493,0.03235087082016887,0.06577243929278118,0.030636307385014383
1.0014124607539112,0.040499198873267514,0.03182436623256877,0.04235422606047071,0.06417634640592433,0.040698354660216624
1.0014595427790416,0.04245011553894062,0.03698559025813399,0.05148956578485458,0.06067724443512121,0.04993450691444587
1.001506624804172,0.04142424671447975,0.03849417703970406,0.057489670337512934,0.053312020940868295,0.05611927696869931
1.0015537068293023,0.03772147907862947,0.03644590577358586,0.05838903434484734,0.043330374596838854,0.05726015311221351
1.0016007888544327,0.032149333674356434,0.03391157246953562,0.05286952532393206,0.031077032441169536,0.05204177608317042
1.001647870879563,0.025799799790141527,0.0317806077084228,0.040386054375886556,0.01716181173456177,0.039916113675017954
1.0016949529046935,0.020580986012262138,0.026811711233163116,0.02276083148008517,0.003505416157096021,0.022658361495435732
1.0017420349298238,0.01993155776046648,0.023998024472537592,0.008396000375120035,-0.006918549361999866,0.00857950714936762
1.0017891169549542,0.027489951613850306,0.024540652545470575,0.00883020356959996,-0.007985000991497468,0.009042357613511316
1.0018361989800846,0.042074300128446054,0.025180817459960123,0.022145335055818467,-0.0034568727593324708,0.022230486296967784
1.001883281005215,0.05845891480384451,0.029832217284714947,0.04104344236602053,0.006017337580221846,0.0408676280333377
1.0019303630303453,0.07582159493280267,0.034466058279894185,0.05832937685591873,0.016560238731422094,0.057872356920453144
1.0019774450554757,0.09824195100672209,0.038009091927514116,0.07041397317164165,0.029111537745156922,0.06963948632453562
1.002024527080606,0.1303669711588208,0.036142885533201115,0.07896421651578898,0.03826086539357028,0.0779713294416303
1.0020716091057364,0.17464242099810953,0.03166016653319282,0.08832693698111686,0.04509856038238966,0.08718231274030562
1.0021186911308668,0.22917237164395338,0.03205042399998063,0.11355266104308831,0.048890140337677586,0.11235275791188512
1.0021657731559972,0.2864808872447173,0.035807430350655756,0.14880372324738836,0.0519013968130393,0.147593157723244
1.0022128551811276,0.335488571803669,0.03988746034610005,0.17945522269565434,0.05436779511991796,0.17825253387360776
1.002259937206258,0.3667004160945303,0.04279017175595291,0.20044309409803335,0.056018838427536355,0.1992540965048921
1.0023070192313883,0.37630521047742305,0.04416202963104394,0.20989430295355302,0.055919145571170566,0.20872528626959333
1.0023541012565187,0.3658732131217113,0.043646789419680115,0.20800353236518512,0.05411359768708954,0.2068566816353448
1.002401183281649,0.3393357840705059,0.04204600378779626,0.19716291122807472,0.049780838776171205,0.19606381765694586
1.0024482653067794,0.30043566038503033,0.03870350930404387,0.1783931936762516,0.04204095930330372,0.17740322495637023
1.0024953473319098,0.25183659939415354,0.031718852471390904,0.15384153094853617,0.031138259088744215,0.15305014438751183
1.0025424293570402,0.1956066522565673,0.022850879435843515,0.12081929242955049,0.018296682897066107,0.12031377404533382
1.0025895113821706,0.13475970805500284,0.012405851889434863,0.07564140824241966,0.005086804623125399,0.07547923331956267
1.002636593407301,0.07582916802294695,0.004348689282047447,0.025728531183742454,-0.0045956157876920435,0.025843144519907952
1.0026836754324313,0.03145358980808763,0.006115216864519124,-0.0040036080406334615,-0.00680137424982233,-0.00381903607020219
1.0027307574575617,0.01779891286180085,0.01585786149810946,-0.006351274616742859,0.0014474917743770965,-0.006387966027473141
1.002777839482692,0.04358985242398123,0.016098403207119374,0.006591376950054447,0.016309074853244013,0.006150504976240971
1.0028249215078224,0.1037077589167159,0.016118861762454327,0.04281328660270074,0.028335824053595908,0.04205339948222655
1.0028720035329528,0.18101238562213362,0.023809553731632887,0.0979436666785688,0.03187666422492277,0.09711088673548936
1.0029190855580832,0.25636899888384335,0.03800486278545608,0.15380629462607742,0.03446434203688819,0.15294469154364693
1.0029661675832136,0.31832235074100634,0.04702594985962431,0.19704252226634572,0.0357973782274907,0.19618572894191424
1.003013249608344,0.36361141655314383,0.0516271334851194,0.228525784613192,0.036793554886019535,0.2276785054158625
1.0030603316334743,0.39341420767750745,0.05420909291036135,0.24979870354304085,0.03627874526779222,0.24897985703926376
1.0031074136586047,0.4102870696014962,0.05440701675376951,0.26258314989231946,0.035110150300753123,0.261794751610496
1.003154495683735,0.41662904201390033,0.05387702080750875,0.266777273312063,0.033478060243124746,0.2660183062966574
1.0032015777088654,0.41405085665469693,0.05212556741380895,0.26326150551395927,0.03108062369040997,0.26253867558269184
1.0032486597339958,0.4030953535584088,0.04934848114466615,0.251751202986526,0.027637310677902385,0.25108043414982606
1.0032957417591262,0.38301151602067063,0.0455318762283982,0.2324239377319079,0.023302927148756175,0.2318260137851434
1.0033428237842565,0.3514583105172215,0.04027044964934019,0.2047530276495091,0.017796479674787275,0.20426319172341575
1.003389905809387,0.3042863356687068,0.033417101177586166,0.16911475512504195,0.01162229334364133,0.16876644173483601
1.0034369878345173,0.2364892670841809,0.025593039666230326,0.12615890065588273,0.004613288982786093,0.12599384775712097
1.0034840698596477,0.14805992805189566,0.017607757700450307,0.07745804013496241,-0.0020067610381442427,0.0774838271495068
1.003531151884778,0.05937981673678241,0.013044438024447127,0.035632586371168055,-0.006472792011890183,0.035794448532598284
1.0035782339099084,0.016571701488668728,0.013789725713615388,0.012038086514572617,-0.007891330223126833,0.012246625393360785
1.0036253159350388,0.04141534161646615,0.020567886873884368,0.014399178728297872,-0.004278705425408175,0.014509308760411718
1.0036723979601692,0.0978579156313711,0.029556325636913062,0.03595348541122598,0.004465245138759084,0.03582076201872027
1.0037194799852995,0.14599333246590304,0.0397887855823215,0.06503465797160808,0.014593381752086751,0.06462737747623891
1.00376656201043,0.17300879075255565,0.04587995420073111,0.0922030709843016,0.025815675692599037,0.09151350960805922
1.0038136440355603,0.18229222765708752,0.051872951784606214,0.11374971918924169,0.03302145551130562,0.11289731160290464
1.0038607260606907,0.18262972424027749,0.05716329818376374,0.12736778710133306,0.03975163561984402,0.12637552546444664
1.003907808085821,0.18292620727983336,0.0590940118408579,0.13485525602086357,0.04777202126512855,0.13370488112655093
1.0039548901109514,0.18798821740501145,0.05944347668935126,0.13913083302593265,0.05419213002184804,0.1378619916261945
1.0040019721360818,0.19658928748535154,0.05672399979740146,0.1397247738744464,0.057788459763227676,0.13839008286719892
1.0040490541612122,0.20361099360789395,0.054481564854649354,0.1356935801867525,0.058666133038074456,0.1343350625197183
1.0040961361863425,0.20356945018764083,0.049398407667475455,0.1287855413388881,0.0584559756419905,0.12741780806345357
1.004143218211473,0.19261735903368254,0.04137398973736279,0.11776025800915435,0.056384468916589374,0.1164130248021483
1.0041903002366033,0.1692114287165738,0.03249190247970122,0.09836742477706704,0.051042464208802374,0.0971021250485653
1.0042373822617336,0.13469585530973552,0.022920399777683922,0.07519967777083232,0.04302037520009293,0.07409156260381436
1.004284464286864,0.094068350002802,0.014710543057839568,0.051842634052145065,0.03232618403842512,0.05098311023639238
1.0043315463119944,0.0558705414627791,0.008311013371956864,0.03082107495389939,0.019405631413357678,0.030293593820710025
1.0043786283371248,0.029785725493520713,0.0051253039436110525,0.019809015244991575,0.006619260228039842,0.019624057444742396
1.0044257103622551,0.022326134922130727,0.004805556972691398,0.01684685304795892,-0.003475821727220824,0.016934433414377514
1.0044727923873855,0.03362727707623793,0.006669858670670957,0.01768087969631584,-0.008497112399634146,0.01790389375512234
1.004519874412516,0.057935866130881315,0.009781557462566998,0.0238553638180855,-0.008470576455979116,0.024075554651568746
1.0045669564376463,0.08691312585069338,0.014811796640100553,0.038233159934289905,-0.003173297756244931,0.038304791687398865
1.0046140384627766,0.11302745450084833,0.02129635370527035,0.05542672474865837,0.007274565017804315,0.05521307003239077
1.004661120487907,0.13143773576861661,0.027597364761987306,0.07126698378066398,0.018638794365140845,0.07075519287251114
1.0047082025130374,0.140315951549541,0.03209339128711539,0.0817840112464661,0.02939306682524362,0.0810053772020783
1.0047552845381678,0.14016084842095028,0.03344866338683428,0.0846685751900148,0.03783785497456158,0.083689129740211
1.0048023665632981,0.13271042804166153,0.033222258369044105,0.08028160564993014,0.04353549044454309,0.07916566282549063
1.0048494485884285,0.1199532079956697,0.032064277893060995,0.06958311394397716,0.04911035012466568,0.0683265491514529
1.0048965306135589,0.10352759540252561,0.029376842453657355,0.05738407400153901,0.0526684052320948,0.05602891398118918
1.0049436126386893,0.08458770500586026,0.022773314212522662,0.04469505929439128,0.05213525860515312,0.043337381407450686
1.0049906946638196,0.06411017510052013,0.01794044725818851,0.03435472552873721,0.047617761082088,0.033099263139460565
1.00503777668895,0.043500849939608656,0.012379085316664451,0.022887706523455283,0.04138713206593723,0.02178403083589866
1.0050848587140804,0.02497562650004661,0.007850440592549232,0.013888116903115118,0.03378947504399,0.01298053301028557
1.0051319407392107,0.011013597455985432,0.00678242452200143,0.011624969459267675,0.024019880001745517,0.010977007762127572
1.0051790227643411,0.003334338693202587,0.0060087295827328585,0.009001101837417943,0.013816538164788813,0.008626520154429615
1.0052261047894715,0.0027948227754708652,0.002500196311770389,0.005716764128480125,0.005937146428337239,0.005554863614737064
1.0052731868146019,0.010164673003053454,-0.0018179511709408365,0.005314070387151807,-0.0005194218920660428,0.005326134104569937
1.0053202688397322,0.026566180290056158,-0.005020065367365236,0.008193549268036414,-0.005345992274395629,0.008334687965486616
1.0053673508648626,0.05291846997433676,-0.006498695874610262,0.011498759854167706,-0.0061752655126707835,0.011661122542672387
1.005414432889993,0.08828034555015178,-0.004165369456407303,0.017065936640710815,-0.003647682674375014,0.017158075831677763
1.0054615149151234,0.12763762777320273,-0.0019216394574293088,0.025647230237824777,0.0012270423406335333,0.02560492792293097
1.0055085969402537,0.16155770115500132,0.0001364731679718943,0.038076850744054896,0.009548721754078237,0.03780811146165672
1.0055556789653841,0.18078890709766565,0.002728600833831272,0.05135766337998839,0.020338170356507413,0.0508038402695464
1.0056027609905145,0.18307418566708303,0.004178475984811611,0.06056084021799014,0.031066675851340157,0.05973535147524617
1.0056498430156449,0.1741533504439713,0.005123393634134641,0.06655908741414072,0.038015297184328306,0.06556488496511612
1.0056969250407752,0.16242605985016223,0.005392124856559218,0.07063087442771013,0.04247243827938666,0.06953212057485579
1.0057440070659056,0.15418810481596457,0.005562997578449099,0.07107575192890922,0.04217582552543428,0.0699844046419416
1.005791089091036,0.1523552110015489,0.005372637873664817,0.0660360559428213,0.038984058862133894,0.06501803081916625
1.0058381711161664,0.15691036178882456,0.006294203978162296,0.06130313889977103,0.034703811729178,0.0603875686286072
1.0058852531412967,0.16538784679386007,0.009114993317646536,0.06307528196508604,0.03080692036970659,0.06225693938174713
1.005932335166427,0.17322460684996496,0.00930108981974932,0.06323184659303546,0.024727758139734882,0.06256589275859069
1.0059794171915575,0.17475929729964576,0.00807702837824159,0.05880087400333982,0.017355590187377215,0.0583232512244844
1.0060264992166879,0.16548577922015562,0.006587107803788229,0.05204155960234529,0.010423884304509893,0.05174586987546231
1.0060735812418182,0.1445721481217929,0.004464347464865068,0.04234591607178599,0.004638106782939265,0.04220642622209484
1.0061206632669486,0.11538472372115638,0.0025754564750419154,0.03266210113426135,-0.0006607592873558282,0.03266803920632651
1.006167745292079,0.08342022676517998,4.566352576968144e-05,0.0259645785337829,-0.004509832623968312,0.02607678797770277
1.0062148273172093,0.053714935068683495,-7.233451741225906e-06,0.01794830890199036,-0.006288366541128133,0.01811146593673667
1.0062619093423397,0.029620632829972474,-0.0003262314444770561,0.006428025048282717,-0.006502081034027011,0.006600970439293467
1.00630899136747,0.012907514843990737,0.0005545777287113734,-0.004503164505502606,-0.0037820543936697287,-0.0043996860129348675
1.0063560733926005,0.004292560353454192,0.0011882807175335826,-0.010519166817943732,0.0005567325737197686,-0.010530346153675032
1.0064031554177308,0.0038095921685766332,0.003446089229029965,-0.007972360122875525,0.004885249290955418,-0.008101147399192574
1.0064502374428612,0.010924293923755681,0.008883073674739448,0.0013341291502741227,0.012606796649383708,0.0009941297211587478
1.0064973194679916,0.02453035587728399,0.01313520740605131,0.011333716656649779,0.021155951454342653,0.010762229692455704
1.006544401493122,0.042966387475684646,0.01568707056152058,0.020787738978896356,0.028916778697863754,0.020010104671280657
1.0065914835182523,0.06411092062196938,0.015704219612634282,0.03329944681240632,0.03273436208521388,0.03242438134241747
1.0066385655433827,0.08556714248621351,0.016294674325506044,0.049462130528264495,0.03360453449160981,0.04856962952145991
1.006685647568513,0.10493697207975199,0.017205832939217,0.06485229624100503,0.031799346308081775,0.06400983116720863
1.0067327295936435,0.12014720761669652,0.017401084732257172,0.07640706666955516,0.028197418671090012,0.07565641810737588
1.0067798116187738,0.12974860817624662,0.01618223304798554,0.08294186479002422,0.024419162967797562,0.08228527281776113
1.0068268936439042,0.1331160769266914,0.01689806903806121,0.08436945777741765,0.01921759563725169,0.08384224153176663
1.0068739756690346,0.13051634907150206,0.015055003993324715,0.08386978816652868,0.015367446655029524,0.08343972789199694
1.006921057694165,0.12301693370584733,0.010858519781629857,0.08185258015702256,0.010996047096265582,0.08153472669965589
1.0069681397192953,0.11219272060745543,0.0057046296737734556,0.07585112215539112,0.0058549785583167,0.07566868239883837
1.0070152217444257,0.09964098937742749,0.0010055413206917774,0.06985230351433948,0.001441630592789241,0.06978860101954135
1.007062303769556,0.08648287672211809,-0.002755716582103344,0.06302251331950957,-0.002187754785948877,0.0630584665763446
1.0071093857946865,0.07315337862299943,-0.00462418362822981,0.053521194673379444,-0.004686664058716214,0.05362811968152234
1.0071564678198168,0.05967551136841471,-0.005522300128657343,0.042771215350936226,-0.005784135312687792,0.042911820744923966
1.0072035498449472,0.046352747241279996,-0.006486498773542497,0.029687677967592516,-0.006059569934000805,0.029840474391715166
1.0072506318700776,0.03458526276589038,-0.006332750845515775,0.01916866027493343,-0.0050800301074082534,0.0192987230272099
1.007297713895208,0.02727830692374265,-0.005683810790902077,0.01473006896934623,-0.004197577966708672,0.014837890592899092
1.0073447959203383,0.0280866607277734,-0.003857478131052408,0.01711698325886342,-0.002298491330019798,0.017172707247925058
1.0073918779454687,0.03925806445151868,0.001092173516018335,0.028584290137595406,0.001223772483704585,0.028541022326144992
1.007438959970599,0.059562255279517966,0.006878308441301482,0.043832242766228824,0.004740744121329576,0.04368952046983312
1.0074860419957294,0.08449757331606145,0.011796269335557578,0.058037587268334905,0.007336736588317856,0.05782150917628353
1.0075331240208598,0.10858230355013457,0.014940360682091798,0.06858033205585247,0.010040648723018157,0.0682904166063548
1.0075802060459902,0.12742598805780986,0.017777737964349765,0.07621925524513734,0.012182241050372383,0.0758720379173486
1.0076272880711206,0.13840784538629322,0.018886182363710206,0.07904744927672683,0.013326176750251655,0.07867025479815723
1.007674370096251,0.14057521646913557,0.017561114115454163,0.0769603579802706,0.014566275779867039,0.07655175252623668
1.0077214521213813,0.1345761316442056,0.016077711669099135,0.07084930100861353,0.014528595975283325,0.07044267975651916
