freq,gls,usurper,pdc_unbiased,shape_periodogram,shift_periodogram
1.0,0.02176245538732735,0.014326454110451605,-0.007335655112181927,0.0073623767091590495,-0.007495916015633976
1.0000470820251304,0.05134779247241603,0.01889801549662651,0.016081221596065367,0.007495627517592769,0.015913073991045502
1.0000941640502607,0.09689124580742478,0.025382471155583484,0.05094334186944231,0.011694485252540784,0.05067844052849793
1.0001412460753911,0.14848755125694818,0.031171523435795215,0.08456655871201842,0.020266554400867498,0.08412265869964336
1.0001883281005215,0.19664060203551523,0.03750148018098913,0.10917973127593883,0.03281001340063816,0.10850291455973787
1.0002354101256519,0.23592916525893703,0.04380450232583545,0.12678225514793529,0.04342521532266704,0.12593717764358578
1.0002824921507822,0.26363730657080775,0.04793577280384044,0.13936052532630389,0.0497486081641363,0.13843348558143492
1.0003295741759126,0.2780607972143743,0.05070835460276658,0.14663287491158739,0.05297386307140395,0.14567096169154484
1.000376656201043,0.27778293516045677,0.05145214420844082,0.14742341655727248,0.05517141505782216,0.1464330137020862
1.0004237382261734,0.2619162710265795,0.04940186009412091,0.139633635428265,0.055574508045885256,0.13862425169343487
1.0004708202513037,0.23107843684954268,0.04494556155800152,0.12167319492364326,0.05344379515123044,0.12066507667242028
1.0005179022764341,0.1884924826566669,0.03901820253941208,0.09811663264576473,0.05001764885447166,0.09712972398358029
1.0005649843015645,0.1401213853463462,0.034663018436964496,0.07552593926328457,0.046339286112016494,0.0745773911917015
1.0006120663266949,0.09311329616242185,0.0320243132026003,0.056936636782797936,0.04179558728393905,0.056057371232171894
1.0006591483518252,0.05338098213176131,0.0318390150583063,0.04656239048066332,0.03548837042204361,0.045802322558634284
1.0007062303769556,0.024158292773911582,0.03136070927204436,0.0379052596807291,0.02754170242036716,0.03730609231779573
1.000753312402086,0.006389706849983347,0.0315690679150226,0.024925530867037873,0.018430750247099573,0.024518890578743905
1.0008003944272164,4.4957735270936574e-05,0.03243148930967501,0.013623927240606612,0.010883319013725109,0.013382250699457908
1.0008474764523467,0.004476680458159687,0.031626290542298915,0.005279248516488982,0.008727639041320118,0.0050863187479304765
1.000894558477477,0.016631009383087918,0.035767303083824455,0.00604487589630294,0.011628132454886402,0.005788204263256813
1.0009416405026075,0.030279800796216314,0.04350160851310766,0.01614856324889533,0.018726536093446818,0.01573592108735056
1.0009887225277379,0.04019506929021177,0.052844996971295806,0.031662352407458065,0.030917761366531085,0.03099085963475577
1.0010358045528682,0.045271217739530065,0.0593219292743246,0.049643587368788454,0.0461172086164131,0.0486731800509353
1.0010828865779986,0.04665854735345898,0.06478740072934182,0.06394396252727896,0.06053853995249167,0.06272035303966472
1.001129968603129,0.04557434040645729,0.06874790148873396,0.06951556918541625,0.0717966156928952,0.06810669831913824
1.0011770506282593,0.04281463251624272,0.06944865357930222,0.06676401531502141,0.07748946234059233,0.06525099249873109
1.0012241326533897,0.03911406922799136,0.0656883583447929,0.05756222886158259,0.0778560867774932,0.05601463357776057
1.00127121467852,0.035734840091298535,0.059095874624981906,0.04469056838221148,0.07524149105340294,0.043152658878565744
1.0013182967036505,0.034632288517627896,0.053155654404309,0.03354469161607427,0.07241601333431254,0.03203127938172938
1.0013653787287808,0.03686446430802818,0.04948722037692982,0.03235087082016887,0.07041943735681204,0.03087395141855745
1.0014124607539112,0.040499198873267514,0.04954974349568526,0.04235422606047071,0.07042296294924363,0.04090132674897806
1.0014595427790416,0.04245011553894062,0.05187766465994195,0.05148956578485458,0.07203232725774257,0.05002944085768373
1.001506624804172,0.04142424671447975,0.052808222563074894,0.057489670337512934,0.06953983904011493,0.05608989122475702
1.0015537068293023,0.03772147907862947,0.0532802853645697,0.05838903434484734,0.062346936422945615,0.057122034549969114
1.0016007888544327,0.032149333674356434,0.05074813577231006,0.05286952532393206,0.051554828687501095,0.05179682235305526
1.001647870879563,0.025799799790141527,0.045159339305338324,0.040386054375886556,0.03700373193386536,0.039591897342617685
1.0016949529046935,0.020580986012262138,0.03646762004362041,0.02276083148008517,0.022055146159698242,0.02227629093995132
1.0017420349298238,0.01993155776046648,0.03227475138452668,0.008396000375120035,0.011272143174866177,0.00814672446745346
1.0017891169549542,0.027489951613850306,0.03166045816867866,0.00883020356959996,0.009433939208823778,0.008621095449479177
1.0018361989800846,0.042074300128446054,0.03210514659921349,0.022145335055818467,0.013786248226676161,0.021839224087981626
1.001883281005215,0.05845891480384451,0.03775550110618728,0.04104344236602053,0.023143019763067176,0.04053690704521736
1.0019303630303453,0.07582159493280267,0.0433083056991452,0.05832937685591873,0.03460976882897589,0.057592736534696785
1.0019774450554757,0.09824195100672209,0.045892101999102174,0.07041397317164165,0.04815209334426423,0.06942642600957578
1.002024527080606,0.1303669711588208,0.042568795019450156,0.07896421651578898,0.05728744330960312,0.07782453845049242
1.0020716091057364,0.17464242099810953,0.037991465235028624,0.08832693698111686,0.06350953793473785,0.08710021009323492
1.0021186911308668,0.22917237164395338,0.03874873814733493,0.11355266104308831,0.06844508066202233,0.11230966697937911
1.0021657731559972,0.2864808872447173,0.04307252668284341,0.14880372324738836,0.07337065015396779,0.14759756441406055
1.0022128551811276,0.335488571803669,0.047413663425636764,0.17945522269565434,0.07784420673735601,0.17830720114979604
1.002259937206258,0.3667004160945303,0.04981112268226315,0.20044309409803335,0.08054737596716233,0.19935280317847415
1.0023070192313883,0.37630521047742305,0.050055474741931255,0.20989430295355302,0.08088379142359295,0.20883756701983755
1.0023541012565187,0.3658732131217113,0.04855867801738939,0.20800353236518512,0.07906949569067431,0.20694826612119926
1.002401183281649,0.3393357840705059,0.04720145005439788,0.19716291122807472,0.07558185111232328,0.19609019360012475
1.0024482653067794,0.30043566038503033,0.04554817515858394,0.1783931936762516,0.06744169264502706,0.17732962778936898
1.0024953473319098,0.25183659939415354,0.04152418709035344,0.15384153094853617,0.05355725674258516,0.1528834392509489
1.0025424293570402,0.1956066522565673,0.033843297426727745,0.12081929242955049,0.03609984770188728,0.1200912999277509
1.0025895113821706,0.13475970805500284,0.026439080321960462,0.07564140824241966,0.015812135083264872,0.0752879668438665
1.002636593407301,0.07582916802294695,0.022026017348862423,0.025728531183742454,-1.7633358137463484e-05,0.025722705374434485
1.0026836754324313,0.03145358980808763,0.019653373236397705,-0.0040036080406334615,-0.0006615546481727294,-0.003988099183863637
1.0027307574575617,0.01779891286180085,0.021800877021535842,-0.006351274616742859,0.014493077441004325,-0.006669014530748103
1.002777839482692,0.04358985242398123,0.02365956832827494,0.006591376950054447,0.035911030311729604,0.005804158234495239
1.0028249215078224,0.1037077589167159,0.03463787643268095,0.04281328660270074,0.053536036194732954,0.04168892923342256
1.0028720035329528,0.18101238562213362,0.05006117737060198,0.0979436666785688,0.06357764962667961,0.09673628314422716
1.0029190855580832,0.25636899888384335,0.0639627131112919,0.15380629462607742,0.06758018313127384,0.15267725234035393
1.0029661675832136,0.31832235074100634,0.07203401800298503,0.19704252226634572,0.06860912281001967,0.19601908038731924
1.003013249608344,0.36361141655314383,0.07697310393429108,0.228525784613192,0.06874623893947268,0.22758893749739723
1.0030603316334743,0.39341420767750745,0.07845374600478029,0.24979870354304085,0.06637620774572363,0.24893171239419828
1.0031074136586047,0.4102870696014962,0.07739392740462891,0.26258314989231946,0.06359105198868112,0.26176110128416574
1.003154495683735,0.41662904201390033,0.07520729402577309,0.266777273312063,0.060003788677209395,0.2659814147763288
1.0032015777088654,0.41405085665469693,0.07174186376015329,0.26326150551395927,0.05531877898638126,0.26248419187405325
1.0032486597339958,0.4030953535584088,0.0669673011385315,0.251751202986526,0.04936983540940677,0.25099686124236664
1.0032957417591262,0.38301151602067063,0.06080533872693035,0.2324239377319079,0.04225529312875845,0.23171172548171215
1.0033428237842565,0.3514583105172215,0.053016814675354774,0.2047530276495091,0.033891000864669,0.20411917010224256
1.003389905809387,0.3042863356687068,0.04332257735369992,0.16911475512504195,0.024674857693300706,0.16860553997676803
1.0034369878345173,0.2364892670841809,0.03237663655018597,0.12615890065588273,0.014896944472356531,0.1258229322002667
1.0034840698596477,0.14805992805189566,0.021532568661333,0.07745804013496241,0.005289910078141294,0.07732526781543218
1.003531151884778,0.05937981673678241,0.014706601751097139,0.035632586371168055,-0.0015548159011226524,0.035658143588235915
1.0035782339099084,0.016571701488668728,0.015132167547566019,0.012038086514572617,-0.003009946450944981,0.01210138457290459
1.0036253159350388,0.04141534161646615,0.024658254058071535,0.014399178728297872,0.004189348715960706,0.014303761435894952
1.0036723979601692,0.0978579156313711,0.040153592495202395,0.03595348541122598,0.01888365328910989,0.03553682193275245
1.0037194799852995,0.14599333246590304,0.05912444037517697,0.06503465797160808,0.0336684998600555,0.0643198410392669
1.00376656201043,0.17300879075255565,0.07270093648189252,0.0922030709843016,0.04684697968840031,0.09126348649456582
1.0038136440355603,0.18229222765708752,0.08211971621921749,0.11374971918924169,0.054992017905560985,0.11270524196087699
1.0038607260606907,0.18262972424027749,0.08641444794378952,0.12736778710133306,0.060251031516981114,0.12627055191930264
1.003907808085821,0.18292620727983336,0.0885241285223967,0.13485525602086357,0.06543526321736161,0.1337049160296102
1.0039548901109514,0.18798821740501145,0.09025430746289172,0.13913083302593265,0.06982499660137755,0.13793707983023795
1.0040019721360818,0.19658928748535154,0.0889472207799399,0.1397247738744464,0.07198304256086452,0.13850732875135216
1.0040490541612122,0.20361099360789395,0.0837636456196039,0.1356935801867525,0.07253666345146069,0.1344579917362075
1.0040961361863425,0.20356945018764083,0.07550251612295675,0.1287855413388881,0.07025675905225995,0.12755841151993547
1.004143218211473,0.19261735903368254,0.0665194481149491,0.11776025800915435,0.06779478005479166,0.11653688260200515
1.0041903002366033,0.1692114287165738,0.05550221427366017,0.09836742477706704,0.061488155753782775,0.09719369429102805
1.0042373822617336,0.13469585530973552,0.0433353661698182,0.07519967777083232,0.051112345132100875,0.07416380970100689
1.004284464286864,0.094068350002802,0.030873506773385836,0.051842634052145065,0.03930764507566559,0.05100880039828256
1.0043315463119944,0.0558705414627791,0.019916992201353394,0.03082107495389939,0.02590779988404804,0.030255057687382833
1.0043786283371248,0.029785725493520713,0.013207851109411804,0.019809015244991575,0.013016300935828437,0.019519918123573243
1.0044257103622551,0.022326134922130727,0.010460040468902735,0.01684685304795892,0.003054147900778585,0.01677575203520434
1.0044727923873855,0.03362727707623793,0.011186034180482606,0.01768087969631584,-0.0018741497015685427,0.017717818833622386
1.004519874412516,0.057935866130881315,0.014964030291446986,0.0238553638180855,-0.0017517915370272412,0.023888115100311132
1.0045669564376463,0.08691312585069338,0.021156321974885588,0.038233159934289905,0.0043270773210388426,0.03812937881504521
1.0046140384627766,0.11302745450084833,0.028245448465884074,0.05542672474865837,0.01618328873487016,0.05506643914820763
1.004661120487907,0.13143773576861661,0.0353838057258373,0.07126698378066398,0.030152885991640614,0.07062396073090339
1.0047082025130374,0.140315951549541,0.04125058798301769,0.0817840112464661,0.04389629044539111,0.08088643519404112
1.0047552845381678,0.14016084842095028,0.04237388227256113,0.0846685751900148,0.055330491479719246,0.08357195540900236
1.0048023665632981,0.13271042804166153,0.04051408745058311,0.08028160564993014,0.06342011222351308,0.07903953897002909
1.0048494485884285,0.1199532079956697,0.036294151052092945,0.06958311394397716,0.06924816304160364,0.06821793083079668
1.0048965306135589,0.10352759540252561,0.03336376696733651,0.05738407400153901,0.0723546459576986,0.05593349362493346
1.0049436126386893,0.08458770500586026,0.028879340237780042,0.04469505929439128,0.07084848165508802,0.04323980954399179
1.0049906946638196,0.06411017510052013,0.02551680369580385,0.03435472552873721,0.06555500065473639,0.03297867483743866
1.00503777668895,0.043500849939608656,0.02082594900424291,0.022887706523455283,0.058883745844234135,0.021626232737638022
1.0050848587140804,0.02497562650004661,0.0161451480854598,0.013888116903115118,0.05060279761924219,0.012789062806716156
1.0051319407392107,0.011013597455985432,0.011927053476012826,0.011624969459267675,0.04061424140059868,0.010738383696149347
1.0051790227643411,0.003334338693202587,0.010124097696266973,0.009001101837417943,0.028526215800218514,0.008375327818011723
1.0052261047894715,0.0027948227754708652,0.006112821426910265,0.005716764128480125,0.015935516230690717,0.005365777311997586
1.0052731868146019,0.010164673003053454,0.003967539167322904,0.005314070387151807,0.006123748952339936,0.005178273487833711
1.0053202688397322,0.026566180290056158,0.004435123412057994,0.008193549268036414,-0.0008998481451435008,0.00821135173446182
1.0053673508648626,0.05291846997433676,0.00648813057416576,0.011498759854167706,-0.004417487769068389,0.011593182829329968
1.005414432889993,0.08828034555015178,0.008504492398191666,0.017065936640710815,-0.004002287692365333,0.017149893038054562
1.0054615149151234,0.12763762777320273,0.011372189897696,0.025647230237824777,9.079744297249326e-05,0.025639042906973716
1.0055085969402537,0.16155770115500132,0.014197898872556694,0.038076850744054896,0.008755757483163632,0.037877055304589034
1.0055556789653841,0.18078890709766565,0.017872029097592605,0.05135766337998839,0.019506705170587214,0.05092782480808199
1.0056027609905145,0.18307418566708303,0.019372335592304966,0.06056084021799014,0.030761974032533727,0.05990195535020624
1.0056498430156449,0.1741533504439713,0.0214884619939123,0.06655908741414072,0.04082494348434086,0.06570605642486566
1.0056969250407752,0.16242605985016223,0.021832856628597058,0.07063087442771013,0.04934120071087833,0.06962161761055019
1.0057440070659056,0.15418810481596457,0.020138105179960303,0.07107575192890922,0.05418478798646341,0.0699787079720805
1.005791089091036,0.1523552110015489,0.016604957581543938,0.0660360559428213,0.055283025417797955,0.06491155067123744
1.0058381711161664,0.15691036178882456,0.0148626386262853,0.06130313889977103,0.054380765801735745,0.060188294443199834
1.0058852531412967,0.16538784679386007,0.014607141237774771,0.06307528196508604,0.05156341516330055,0.062015422329819235
1.005932335166427,0.17322460684996496,0.0135407749170093,0.06323184659303546,0.046661268317302586,0.06226449754364794
1.0059794171915575,0.17475929729964576,0.010707077404701008,0.05880087400333982,0.03948297500152138,0.057968257791603146
1.0060264992166879,0.16548577922015562,0.0075445176044783655,0.05204155960234529,0.03252150110070013,0.05134406240329273
1.0060735812418182,0.1445721481217929,0.004749648643634611,0.04234591607178599,0.02492235579281531,0.041802260276512224
1.0061206632669486,0.11538472372115638,0.0019215035022404504,0.03266210113426135,0.017522834109138716,0.03227457966192821
1.006167745292079,0.08342022676517998,0.0008408916815086759,0.0259645785337829,0.011145912227915873,0.025715134845072037
1.0062148273172093,0.053714935068683495,0.0022806770568507507,0.01794830890199036,0.0073907086259173554,0.017782070000959802
1.0062619093423397,0.029620632829972474,0.004813193428172666,0.006428025048282717,0.006120467022247138,0.0062920545011057065
1.00630899136747,0.012907514843990737,0.007857276271289666,-0.004503164505502606,0.006758101270507303,-0.004650738027753746
1.0063560733926005,0.004292560353454192,0.012340253430550372,-0.010519166817943732,0.009039282436446456,-0.01071573560149632
1.0064031554177308,0.0038095921685766332,0.017923783317192115,-0.007972360122875525,0.011260954824751122,-0.008218474729313979
1.0064502374428612,0.010924293923755681,0.026083643194348867,0.0013341291502741227,0.016677953369846413,0.0009673185107800759
1.0064973194679916,0.02453035587728399,0.03361130098450971,0.011333716656649779,0.023903563519172718,0.010808702181650276
1.006544401493122,0.042966387475684646,0.0397198836129814,0.020787738978896356,0.030658372189072174,0.020118645571751352
1.0065914835182523,0.06411092062196938,0.04385053457070464,0.03329944681240632,0.03593731243858185,0.03252368494211039
1.0066385655433827,0.08556714248621351,0.04891130101497085,0.049462130528264495,0.039976509684638444,0.048613356409585286
1.006685647568513,0.10493697207975199,0.0511723893205742,0.06485229624100503,0.042522762197507905,0.0639653578089186
1.0067327295936435,0.12014720761669652,0.05139689141673107,0.07640706666955516,0.04314007863640939,0.07551847496806283
1.0067798116187738,0.12974860817624662,0.04791347338241383,0.08294186479002422,0.04159486732175344,0.08208747605009904
1.0068268936439042,0.1331160769266914,0.04453418834413875,0.08436945777741765,0.0377735774920584,0.08358685461797928
1.0068739756690346,0.13051634907150206,0.039535389170437495,0.08386978816652868,0.033648643123514045,0.08316446982897473
1.006921057694165,0.12301693370584733,0.033134553295310246,0.08185258015702256,0.02711219443638915,0.08127255146264155
1.0069681397192953,0.11219272060745543,0.02519235358182364,0.07585112215539112,0.01953012399872334,0.07542155780547675
1.0070152217444257,0.09964098937742749,0.016982843235097352,0.06985230351433948,0.012479907406943774,0.06956855477763003
1.007062303769556,0.08648287672211809,0.010466593544895857,0.06302251331950957,0.007200044166210203,0.06285163151171014
1.0071093857946865,0.07315337862299943,0.005937433396731146,0.053521194673379444,0.0036264764073496232,0.05342927142375932
1.0071564678198168,0.05967551136841471,0.001600105263631139,0.042771215350936226,0.0005471122344924055,0.04274891124563446
1.0072035498449472,0.046352747241279996,-0.0015464665021644585,0.029687677967592516,-0.00038154244193254423,0.029688888753800654
1.0072506318700776,0.03458526276589038,-0.0031166012440864686,0.01916866027493343,0.0005138230152194388,0.0191527435853925
1.007297713895208,0.02727830692374265,-0.0027772232788723958,0.01473006896934623,0.0013955949469567235,0.014695855861251701
1.0073447959203383,0.0280866607277734,-0.0009018098084699593,0.01711698325886342,0.003494110276295342,0.01703617642408488
1.0073918779454687,0.03925806445151868,0.004458900715134231,0.028584290137595406,0.008413096826704415,0.028393676527305026
1.007438959970599,0.059562255279517966,0.01197424158398877,0.043832242766228824,0.01457392967274347,0.04350682709370614
1.0074860419957294,0.08449757331606145,0.018591268343588662,0.058037587268334905,0.022149315407825887,0.05755322105897644
1.0075331240208598,0.10858230355013457,0.023765597636487164,0.06858033205585247,0.028387656742548072,0.06797142786744872
1.0075802060459902,0.12742598805780986,0.027123739072080186,0.07621925524513734,0.03266512251462819,0.07552914558943698
1.0076272880711206,0.13840784538629322,0.028697063882577596,0.07904744927672683,0.035271386161059834,0.07830872267270766
1.007674370096251,0.14057521646913557,0.027835349959314352,0.0769603579802706,0.03611877072732536,0.0762042922459448
1.0077214521213813,0.1345761316442056,0.024807457088648878,0.07084930100861353,0.03473081833297807,0.07011656621214774
