freq,gls,usurper,pdc_unbiased,shape_periodogram,shift_periodogram
1.0,0.02176245538732735,0.03543697382383364,-0.007335655112181927,0.019444809310321456,-0.009007465995293583
1.0000470820251304,0.05134779247241603,0.06042782702438975,0.016081221596065367,0.03669545423410918,0.012824442911429562
1.0000941640502607,0.09689124580742478,0.08827382331566301,0.05094334186944231,0.06282979283516722,0.045370056388609935
1.0001412460753911,0.14848755125694818,0.11745270064145615,0.08456655871201842,0.09242042226639462,0.07657744300107944
1.0001883281005215,0.19664060203551523,0.14391192600991928,0.10917973127593883,0.12250766797046647,0.09897758892425769
1.0002354101256519,0.23592916525893703,0.16324854926956664,0.12678225514793529,0.14561683806723116,0.1150722615371288
1.0002824921507822,0.26363730657080775,0.17481202398154905,0.13936052532630389,0.16054051498896438,0.12680068231356206
1.0003295741759126,0.2780607972143743,0.18193195067035864,0.14663287491158739,0.16980067330999196,0.1335875652977729
1.000376656201043,0.27778293516045677,0.1845714977560688,0.14742341655727248,0.17410252818025135,0.13412053582124236
1.0004237382261734,0.2619162710265795,0.18032433812121176,0.139633635428265,0.17361633020161074,0.12622723458151358
1.0004708202513037,0.23107843684954268,0.1690951214758621,0.12167319492364326,0.1668759777979877,0.10842693493629026
1.0005179022764341,0.1884924826566669,0.1538738085183835,0.09811663264576473,0.1566768415774106,0.08527668273726112
1.0005649843015645,0.1401213853463462,0.14243921881241697,0.07552593926328457,0.1485114073009096,0.06305675625038897
1.0006120663266949,0.09311329616242185,0.13565321433180116,0.056936636782797936,0.14228723257530032,0.04479507055896568
1.0006591483518252,0.05338098213176131,0.13426337309749414,0.04656239048066332,0.13647252288814105,0.03482016326467089
1.0007062303769556,0.024158292773911582,0.1324948542466313,0.0379052596807291,0.12887024975179692,0.026745565611355847
1.000753312402086,0.006389706849983347,0.1276259643526696,0.024925530867037873,0.11710139074993353,0.014709987155105839
1.0008003944272164,4.4957735270936574e-05,0.1239662292442909,0.013623927240606612,0.10545483639692534,0.004387120373309769
1.0008474764523467,0.004476680458159687,0.12126112193819186,0.005279248516488982,0.1023932160174728,-0.0037033137723202062
1.000894558477477,0.016631009383087918,0.12785285205087937,0.00604487589630294,0.10906021927772427,-0.003524433043234322
1.0009416405026075,0.030279800796216314,0.14530753896972765,0.01614856324889533,0.1257267832799885,0.005148763365833817
1.0009887225277379,0.04019506929021177,0.17010751958722162,0.031662352407458065,0.1514480909102626,0.018540413917311937
1.0010358045528682,0.045271217739530065,0.1933779118497156,0.049643587368788454,0.180633967326049,0.0342824627882863
1.0010828865779986,0.04665854735345898,0.2098418002300443,0.06394396252727896,0.20636281175209603,0.04676294431784458
1.001129968603129,0.04557434040645729,0.21816966625212877,0.06951556918541625,0.22255861281245493,0.051198121689744816
1.0011770506282593,0.04281463251624272,0.21531495722917024,0.06676401531502141,0.2265115142113539,0.04806930302666257
1.0012241326533897,0.03911406922799136,0.20277045189432324,0.05756222886158259,0.22024877642318677,0.03913266061018955
1.00127121467852,0.035734840091298535,0.18498404681255892,0.04469056838221148,0.20811586826602566,0.026968371804190424
1.0013182967036505,0.034632288517627896,0.1707125675623737,0.03354469161607427,0.19852650688735177,0.016420692546042365
1.0013653787287808,0.03686446430802818,0.16901311623116796,0.03235087082016887,0.19648066047870102,0.015381540721577193
1.0014124607539112,0.040499198873267514,0.17879105353879535,0.04235422606047071,0.2028561400417005,0.02502545326448724
1.0014595427790416,0.04245011553894062,0.1923220519075475,0.05148956578485458,0.21320743216128754,0.03349109226411054
1.001506624804172,0.04142424671447975,0.20099838560645442,0.057489670337512934,0.21766184336104188,0.03926612660553431
1.0015537068293023,0.03772147907862947,0.2017191130722105,0.05838903434484734,0.21229130230261675,0.0406168134115876
1.0016007888544327,0.032149333674356434,0.19291482931860174,0.05286952532393206,0.19597969314091612,0.0363049285026571
1.001647870879563,0.025799799790141527,0.17431112584993902,0.040386054375886556,0.1690990603706595,0.025859334896472796
1.0016949529046935,0.020580986012262138,0.14824041659238732,0.02276083148008517,0.13755982127296731,0.01076699377377776
1.0017420349298238,0.01993155776046648,0.1281066282201663,0.008396000375120035,0.1123223982634994,-0.001455233591945001
1.0017891169549542,0.027489951613850306,0.12147661319759946,0.00883020356959996,0.10478251557058221,-0.00035686530216207015
1.0018361989800846,0.042074300128446054,0.12450721871604557,0.022145335055818467,0.11186867926935692,0.0123722301746177
1.001883281005215,0.05845891480384451,0.13759579662295612,0.04104344236602053,0.12956159919721616,0.029843524153181908
1.0019303630303453,0.07582159493280267,0.15339910423420336,0.05832937685591873,0.1492934000394216,0.04563063181518022
1.0019774450554757,0.09824195100672209,0.1624950313585874,0.07041397317164165,0.1657041765058766,0.056539124691250095
1.002024527080606,0.1303669711588208,0.158041388089539,0.07896421651578898,0.17099212060871097,0.0647942381961711
1.0020716091057364,0.17464242099810953,0.1485585768880008,0.08832693698111686,0.17056709144986873,0.07432334271768305
1.0021186911308668,0.22917237164395338,0.15146099432000518,0.11355266104308831,0.17438781100332523,0.09966020645961224
1.0021657731559972,0.2864808872447173,0.1640238986127351,0.14880372324738836,0.18396907311926503,0.13491522577597895
1.0022128551811276,0.335488571803669,0.17700203902866146,0.17945522269565434,0.19397604926832063,0.16564745523304905
1.002259937206258,0.3667004160945303,0.18457486684144506,0.20044309409803335,0.19918487980835908,0.18687724049658608
1.0023070192313883,0.37630521047742305,0.18533773765401967,0.20989430295355302,0.19784238778772306,0.19662558634099725
1.0023541012565187,0.3658732131217113,0.17969173459856091,0.20800353236518512,0.19037389710653732,0.1950328610021239
1.002401183281649,0.3393357840705059,0.17004613895285417,0.19716291122807472,0.17782121414559207,0.18457734678329807
1.0024482653067794,0.30043566038503033,0.15694060058653228,0.1783931936762516,0.15895410855134592,0.1665149262447446
1.0024953473319098,0.25183659939415354,0.13858693271236974,0.15384153094853617,0.13257738757625148,0.14330438218082175
1.0025424293570402,0.1956066522565673,0.11178377282670066,0.12081929242955049,0.09932721530517293,0.11241291752349969
1.0025895113821706,0.13475970805500284,0.07753172186866222,0.07564140824241966,0.05879208757386912,0.07038102578160359
1.002636593407301,0.07582916802294695,0.04557290139298635,0.025728531183742454,0.02298642952689248,0.023630708996528145
1.0026836754324313,0.03145358980808763,0.03086703806356766,-0.0040036080406334615,0.008693252877421911,-0.004747734931334959
1.0027307574575617,0.01779891286180085,0.03772878083912042,-0.006351274616742859,0.02220411000243673,-0.00826819374374324
1.002777839482692,0.04358985242398123,0.05178173557291067,0.006591376950054447,0.05329803388209204,0.0019139985585988966
1.0028249215078224,0.1037077589167159,0.07956581248385185,0.04281328660270074,0.08915328920327571,0.03502021770276916
1.0028720035329528,0.18101238562213362,0.11914463495049805,0.0979436666785688,0.1243291796698067,0.08752638475234908
1.0029190855580832,0.25636899888384335,0.1569835949591396,0.15380629462607742,0.15189710659899922,0.14200772097926306
1.0029661675832136,0.31832235074100634,0.18530002492298514,0.19704252226634572,0.16760018361815043,0.18499025324931645
1.003013249608344,0.36361141655314383,0.2013741078631442,0.228525784613192,0.17664258687626824,0.21663238935920728
1.0030603316334743,0.39341420767750745,0.21005089643802177,0.24979870354304085,0.18057164851844407,0.23819280780306407
1.0031074136586047,0.4102870696014962,0.21290059589518653,0.26258314989231946,0.18073353070529108,0.25125487740035063
1.003154495683735,0.41662904201390033,0.21178605945196025,0.266777273312063,0.17771663368202914,0.25565159914623486
1.0032015777088654,0.41405085665469693,0.2069364993392302,0.26326150551395927,0.17146132990261176,0.25229608492298566
1.0032486597339958,0.4030953535584088,0.1982687040130897,0.251751202986526,0.16172262575725002,0.2409631000492198
1.0032957417591262,0.38301151602067063,0.1854904892500335,0.2324239377319079,0.14838868135335392,0.22193807532917031
1.0033428237842565,0.3514583105172215,0.168053746358907,0.2047530276495091,0.13116322063266145,0.1948388563255614
1.003389905809387,0.3042863356687068,0.14559578214332305,0.16911475512504195,0.11047794528262322,0.16017941933593177
1.0034369878345173,0.2364892670841809,0.11885215363706,0.12615890065588273,0.08681450138132261,0.11871261058227164
1.0034840698596477,0.14805992805189566,0.09007152912055233,0.07745804013496241,0.062288168161081445,0.07190767576442558
1.003531151884778,0.05937981673678241,0.06987825082818608,0.035632586371168055,0.045163375524704404,0.031590881757039085
1.0035782339099084,0.016571701488668728,0.06844510956208859,0.012038086514572617,0.044139521729972285,0.008145476381547301
1.0036253159350388,0.04141534161646615,0.09157786639788168,0.014399178728297872,0.06574792844802368,0.008621552378235583
1.0036723979601692,0.0978579156313711,0.13018246869214842,0.03595348541122598,0.1031741277516195,0.026962171576956268
1.0037194799852995,0.14599333246590304,0.17497247288835902,0.06503465797160808,0.14571840991893323,0.052686404877568364
1.00376656201043,0.17300879075255565,0.21083711355953258,0.0922030709843016,0.18363446107374518,0.07729143663356168
1.0038136440355603,0.18229222765708752,0.23526215407751358,0.11374971918924169,0.20873625698894122,0.0975156719245059
1.0038607260606907,0.18262972424027749,0.24813235437746559,0.12736778710133306,0.2251517916825685,0.11043150295153267
1.003907808085821,0.18292620727983336,0.253046160562801,0.13485525602086357,0.23620905072611442,0.11747626474835575
1.0039548901109514,0.18798821740501145,0.25427639052570267,0.13913083302593265,0.24090409732231446,0.12161889660918652
1.0040019721360818,0.19658928748535154,0.25047300022599944,0.1397247738744464,0.2396794814270717,0.12230290425033177
1.0040490541612122,0.20361099360789395,0.2421125384300839,0.1356935801867525,0.2336695556847586,0.1184911600822384
1.0040961361863425,0.20356945018764083,0.22787051469376166,0.1287855413388881,0.22314333520347257,0.11201423826930326
1.004143218211473,0.19261735903368254,0.2078436684853462,0.11776025800915435,0.20804052848196325,0.10166846119938153
1.0041903002366033,0.1692114287165738,0.18130372967558742,0.09836742477706704,0.18564588972230844,0.0834181631483482
1.0042373822617336,0.13469585530973552,0.15101996980852178,0.07519967777083232,0.1579175080638388,0.061992406943660275
1.004284464286864,0.094068350002802,0.12163224038785636,0.051842634052145065,0.1288136965053749,0.04076949212812675
1.0043315463119944,0.0558705414627791,0.0957009991412136,0.03082107495389939,0.09994431016117018,0.02209400961537177
1.0043786283371248,0.029785725493520713,0.07892023459225074,0.019809015244991575,0.07653550148291614,0.013089855718259649
1.0044257103622551,0.022326134922130727,0.07155598018710524,0.01684685304795892,0.06134488206750999,0.011447806539904803
1.0044727923873855,0.03362727707623793,0.07278192719687823,0.01768087969631584,0.056576802969608556,0.012693961273163407
1.004519874412516,0.057935866130881315,0.08115704114404511,0.0238553638180855,0.06113288228378131,0.018463012530442257
1.0045669564376463,0.08691312585069338,0.0969282609497407,0.038233159934289905,0.07614804290721856,0.0315400753866916
1.0046140384627766,0.11302745450084833,0.11737441646118661,0.05542672474865837,0.10005232964919306,0.04674501530883406
1.004661120487907,0.13143773576861661,0.13731894635107794,0.07126698378066398,0.12623677290863525,0.060524016564925474
1.0047082025130374,0.140315951549541,0.1538785877425024,0.0817840112464661,0.15045452308222176,0.069228059195838
1.0047552845381678,0.14016084842095028,0.16186838349829166,0.0846685751900148,0.16844752694749646,0.0707727044633615
1.0048023665632981,0.13271042804166153,0.16128798271175226,0.08028160564993014,0.17815211203701736,0.06558389749630607
1.0048494485884285,0.1199532079956697,0.1544730592534075,0.06958311394397716,0.18193665319537974,0.05442417659172342
1.0048965306135589,0.10352759540252561,0.14483963478122028,0.05738407400153901,0.17853596500746421,0.04230825181629863
1.0049436126386893,0.08458770500586026,0.13106863170647665,0.04469505929439128,0.1686824348236135,0.03025597229317208
1.0049906946638196,0.06411017510052013,0.1178211632154316,0.03435472552873721,0.1548465760351523,0.02096770372842155
1.00503777668895,0.043500849939608656,0.10313432654022482,0.022887706523455283,0.1380735038477805,0.010850169620730963
1.0050848587140804,0.02497562650004661,0.08695244943534203,0.013888116903115118,0.11774994671125891,0.003576961444433951
1.0051319407392107,0.011013597455985432,0.0737980536933183,0.011624969459267675,0.09744509777059582,0.0030851424817385322
1.0051790227643411,0.003334338693202587,0.06157612707329691,0.009001101837417943,0.07603716241322338,0.0023327303166954406
1.0052261047894715,0.0027948227754708652,0.04548287602213198,0.005716764128480125,0.052705028427828066,0.0010932734217915835
1.0052731868146019,0.010164673003053454,0.031032113833916512,0.005314070387151807,0.03197075104134257,0.0025027844177400384
1.0053202688397322,0.026566180290056158,0.021286282855914797,0.008193549268036414,0.015791989646746538,0.0067839298655646245
1.0053673508648626,0.05291846997433676,0.01685853523176166,0.011498759854167706,0.007176513610762688,0.01082842279498782
1.005414432889993,0.08828034555015178,0.01643317959375118,0.017065936640710815,0.004117905783593996,0.016641374974248762
1.0054615149151234,0.12763762777320273,0.01917690528500809,0.025647230237824777,0.006436501638830608,0.024988176719175033
1.0055085969402537,0.16155770115500132,0.02576779205159124,0.038076850744054896,0.01691925568611748,0.036462102719650676
1.0055556789653841,0.18078890709766565,0.034794197270419595,0.05135766337998839,0.03249413043271108,0.04835989105379408
1.0056027609905145,0.18307418566708303,0.04184294835220241,0.06056084021799014,0.04914518189924704,0.056127320145545875
1.0056498430156449,0.1741533504439713,0.047869711954201685,0.06655908741414072,0.06295239100528462,0.06096138213285964
1.0056969250407752,0.16242605985016223,0.05236274251805192,0.07063087442771013,0.07478543456769228,0.06405330457765852
1.0057440070659056,0.15418810481596457,0.0539894415060775,0.07107575192890922,0.0825250880449915,0.06386357347490243
1.005791089091036,0.1523552110015489,0.05267807728590119,0.0660360559428213,0.08559332347979046,0.05856648570455646
1.0058381711161664,0.15691036178882456,0.05244732021493185,0.06130313889977103,0.0862347831362694,0.053774892948940424
1.0058852531412967,0.16538784679386007,0.05504231251546877,0.06307528196508604,0.08583322027711426,0.05558232425314355
1.005932335166427,0.17322460684996496,0.055598525120154715,0.06323184659303546,0.0828799841318535,0.055982753716918326
1.0059794171915575,0.17475929729964576,0.052616670079943875,0.05880087400333982,0.07609918754331615,0.052111610399478356
1.0060264992166879,0.16548577922015562,0.04776582667107891,0.05204155960234529,0.06727771702052665,0.04609250066774606
1.0060735812418182,0.1445721481217929,0.04172185147837386,0.04234591607178599,0.0560924104018475,0.03735561956789316
1.0061206632669486,0.11538472372115638,0.03662874821805512,0.03266210113426135,0.04484855814161348,0.028654655029309695
1.006167745292079,0.08342022676517998,0.033448777351989374,0.0259645785337829,0.03567768463628859,0.022766586853477322
1.0062148273172093,0.053714935068683495,0.03377265971720725,0.01794830890199036,0.03026334197771011,0.015244613059341832
1.0062619093423397,0.029620632829972474,0.03463461596442593,0.006428025048282717,0.027362807214529147,0.004015196949121389
1.00630899136747,0.012907514843990737,0.034965882219384896,-0.004503164505502606,0.026362053930531114,-0.006790666312280971
1.0063560733926005,0.004292560353454192,0.037320918354217004,-0.010519166817943732,0.02849814274342893,-0.012972753272946835
1.0064031554177308,0.0038095921685766332,0.04226792463244778,-0.007972360122875525,0.032097497814214664,-0.010750459897393979
1.0064502374428612,0.010924293923755681,0.05451651610851601,0.0013341291502741227,0.04388896850519189,-0.0025066372815277078
1.0064973194679916,0.02453035587728399,0.0676375792839872,0.011333716656649779,0.059273296427181224,0.006124856061383086
1.006544401493122,0.042966387475684646,0.0793635353585009,0.020787738978896356,0.07470333575853105,0.014226503314757664
1.0065914835182523,0.06411092062196938,0.08855025123053399,0.03329944681240632,0.08669646458643056,0.025706859866153193
1.0066385655433827,0.08556714248621351,0.09879849767034247,0.049462130528264495,0.0967332959564169,0.0410428406845269
1.006685647568513,0.10493697207975199,0.10613026595895751,0.06485229624100503,0.10373529762170382,0.05589502425055533
1.0067327295936435,0.12014720761669652,0.10943177459757537,0.07640706666955516,0.10678057876164587,0.06724481022151323
1.0067798116187738,0.12974860817624662,0.10773096710879368,0.08294186479002422,0.10495885879234473,0.07395002495299166
1.0068268936439042,0.1331160769266914,0.1038986106997994,0.08436945777741765,0.09848178046092665,0.07589685490514567
1.0068739756690346,0.13051634907150206,0.09595485394531733,0.08386978816652868,0.08977518423920623,0.07609063759886135
1.006921057694165,0.12301693370584733,0.08393757785735899,0.08185258015702256,0.0778776540427662,0.0750289199451206
1.0069681397192953,0.11219272060745543,0.06919090504953816,0.07585112215539112,0.06364590296835601,0.0701898568255997
1.0070152217444257,0.09964098937742749,0.05431344978603671,0.06985230351433948,0.04908367542245842,0.06540743444724047
1.007062303769556,0.08648287672211809,0.04230241811233731,0.06302251331950957,0.03718912306446434,0.05959382472450168
1.0071093857946865,0.07315337862299943,0.033905799185711905,0.053521194673379444,0.028030731577866706,0.05089895646454312
1.0071564678198168,0.05967551136841471,0.028050864562503126,0.042771215350936226,0.021203067154455867,0.04077016529014101
1.0072035498449472,0.046352747241279996,0.023484504119116578,0.029687677967592516,0.017255882225420814,0.028073253888141577
1.0072506318700776,0.03458526276589038,0.022170890013228223,0.01916866027493343,0.01687864694868746,0.017624509964274317
1.007297713895208,0.02727830692374265,0.02430318603328865,0.01473006896934623,0.018444131993122885,0.013065568290685059
1.0073447959203383,0.0280866607277734,0.03150339184844786,0.01711698325886342,0.024257869659912543,0.01493811761522406
1.0073918779454687,0.03925806445151868,0.04718642258897682,0.028584290137595406,0.037396442676409805,0.025230112200412498
1.007438959970599,0.059562255279517966,0.06685025062504721,0.043832242766228824,0.05378767806957277,0.039035708219056255
1.0074860419957294,0.08449757331606145,0.08556223718625983,0.058037587268334905,0.0713728989730633,0.05174244297461603
1.0075331240208598,0.10858230355013457,0.100708826741966,0.06858033205585247,0.08733242527948053,0.06097161611974048
1.0075802060459902,0.12742598805780986,0.11017327351772854,0.07621925524513734,0.09766606336128757,0.06778788473136321
1.0076272880711206,0.13840784538629322,0.11266652967018481,0.07904744927672683,0.10182080301742726,0.07029145655881097
1.007674370096251,0.14057521646913557,0.10785728165394373,0.0769603579802706,0.10079724378623635,0.06827952616097488
1.0077214521213813,0.1345761316442056,0.09834203097435382,0.07084930100861353,0.09445874341930618,0.06266367776543828
1.0077685341465117,0.12269802495893224,0.08437662014771852,0.062425783036096825,0.08298283830934369,0.05516745570335899
1.007815616171642,0.10844877640211482,0.06976380671698867,0.054884533548136764,0.06785111083093193,0.048885491574358876
