freq,gls,usurper,pdc_unbiased,shape_periodogram,shift_periodogram
1.0,0.02176245538732735,0.012970256910373758,-0.007335655112181927,0.005959587429675808,-0.007396779897011941
1.0000470820251304,0.05134779247241603,0.016165474673961542,0.016081221596065367,0.0042473934434643515,0.016036779310245823
1.0000941640502607,0.09689124580742478,0.020999203613684386,0.05094334186944231,0.00613550402443089,0.05087864725417678
1.0001412460753911,0.14848755125694818,0.025106365542344723,0.08456655871201842,0.013474123631395099,0.08443240590755058
1.0001883281005215,0.19664060203551523,0.029809239015830023,0.10917973127593883,0.025245343674089763,0.10895290203189671
1.0002354101256519,0.23592916525893703,0.03496685593975024,0.12678225514793529,0.036125241292702163,0.12649367946227213
1.0002824921507822,0.26363730657080775,0.039456310422100335,0.13936052532630389,0.04329374381654432,0.1390480650850225
1.0003295741759126,0.2780607972143743,0.04243194014064092,0.14663287491158739,0.04714675877646785,0.1463143759562218
1.000376656201043,0.27778293516045677,0.042956748585599794,0.14742341655727248,0.050281783656188246,0.147096613134892
1.0004237382261734,0.2619162710265795,0.04140637293042339,0.139633635428265,0.05171043080281203,0.13929191149797907
1.0004708202513037,0.23107843684954268,0.03796336207682473,0.12167319492364326,0.051033751491709536,0.12130848683329497
1.0005179022764341,0.1884924826566669,0.03329739795396462,0.09811663264576473,0.049286013014461186,0.09772871193380599
1.0005649843015645,0.1401213853463462,0.029788123057230522,0.07552593926328457,0.04687951630665095,0.07512529637386303
1.0006120663266949,0.09311329616242185,0.027334412999330395,0.056936636782797936,0.04305792126457474,0.0565445128794411
1.0006591483518252,0.05338098213176131,0.027286729103705606,0.04656239048066332,0.03754614349811597,0.04620693389741428
1.0007062303769556,0.024158292773911582,0.02715727988713283,0.0379052596807291,0.03004588642443351,0.037611377650602636
1.000753312402086,0.006389706849983347,0.027562751348812153,0.024925530867037873,0.02166898856051976,0.024707008538268262
1.0008003944272164,4.4957735270936574e-05,0.02827723114567349,0.013623927240606612,0.0146738452137104,0.013473546523842856
1.0008474764523467,0.004476680458159687,0.0274830468254689,0.005279248516488982,0.01239766956955119,0.005151665585748165
1.000894558477477,0.016631009383087918,0.031782879508609724,0.00604487589630294,0.014223854045747551,0.005898644895078007
1.0009416405026075,0.030279800796216314,0.03847059585716048,0.01614856324889533,0.01978503628870338,0.015947107565384668
1.0009887225277379,0.04019506929021177,0.0461669845557691,0.031662352407458065,0.029805386576366413,0.03136803914445013
1.0010358045528682,0.045271217739530065,0.05127023602347674,0.049643587368788454,0.04288013559871768,0.049246069974384285
1.0010828865779986,0.04665854735345898,0.056835142359250385,0.06394396252727896,0.05543265849225421,0.06347025688215645
1.001129968603129,0.04557434040645729,0.060939798488332204,0.06951556918541625,0.06545781068467955,0.06898973329103283
1.0011770506282593,0.04281463251624272,0.06252607939447612,0.06676401531502141,0.07063356046722921,0.06620235382645517
1.0012241326533897,0.03911406922799136,0.06054871688214824,0.05756222886158259,0.07088095540963249,0.05697548780081472
1.00127121467852,0.035734840091298535,0.055736301411940664,0.04469056838221148,0.06821365612417263,0.04409012711680564
1.0013182967036505,0.034632288517627896,0.051196811038081116,0.03354469161607427,0.06528173560754454,0.03294177504241301
1.0013653787287808,0.03686446430802818,0.04726321571893147,0.03235087082016887,0.06294905609892273,0.031764671978247776
1.0014124607539112,0.040499198873267514,0.046040496369807525,0.04235422606047071,0.06251263598798801,0.041791362600071956
1.0014595427790416,0.04245011553894062,0.04688439817679274,0.05148956578485458,0.06411634497292501,0.050933520941569936
1.001506624804172,0.04142424671447975,0.047147346841951494,0.057489670337512934,0.06269063204176197,0.05695570840312093
1.0015537068293023,0.03772147907862947,0.04761812633099174,0.05838903434484734,0.05694381122276754,0.057895984932361325
1.0016007888544327,0.032149333674356434,0.045110635123912717,0.05286952532393206,0.047945297885148425,0.05243504738884465
1.001647870879563,0.025799799790141527,0.03926633942953772,0.040386054375886556,0.03577375483718782,0.040041904634879485
1.0016949529046935,0.020580986012262138,0.031156085797989824,0.02276083148008517,0.023021865493567575,0.022528634770759025
1.0017420349298238,0.01993155776046648,0.027766214189839114,0.008396000375120035,0.014085774855263513,0.008251296044082927
1.0017891169549542,0.027489951613850306,0.02735226641085454,0.00883020356959996,0.013124263067591476,0.008695311183302884
1.0018361989800846,0.042074300128446054,0.02733830054726851,0.022145335055818467,0.01707641581207928,0.021971593199947542
1.001883281005215,0.05845891480384451,0.03229302388245088,0.04104344236602053,0.02538860917994868,0.0407935334303697
1.0019303630303453,0.07582159493280267,0.03658452652247878,0.05832937685591873,0.035839830678458307,0.05799612451679249
1.0019774450554757,0.09824195100672209,0.03777074941015789,0.07041397317164165,0.04860673352840967,0.06999559840666517
1.002024527080606,0.1303669711588208,0.034112984551538654,0.07896421651578898,0.057124061835727664,0.07850449544188966
1.0020716091057364,0.17464242099810953,0.030139728298295528,0.08832693698111686,0.06259206216911833,0.08785596703316359
1.0021186911308668,0.22917237164395338,0.03033893082621827,0.11355266104308831,0.06619377081684451,0.11312288050970051
1.0021657731559972,0.2864808872447173,0.03365048677015239,0.14880372324738836,0.06971412238897536,0.14845476621239836
1.0022128551811276,0.335488571803669,0.036611340551972286,0.17945522269565434,0.07276720456891306,0.1791920808751307
1.002259937206258,0.3667004160945303,0.03797068685402351,0.20044309409803335,0.07446125980748808,0.200245175217542
1.0023070192313883,0.37630521047742305,0.037601245570522364,0.20989430295355302,0.07429977405504468,0.20972245130657954
1.0023541012565187,0.3658732131217113,0.03600442936472606,0.20800353236518512,0.07249527284885655,0.2078172883220146
1.002401183281649,0.3393357840705059,0.03474376662494428,0.19716291122807472,0.06967045893446172,0.19693654797686125
1.0024482653067794,0.30043566038503033,0.03379630619073592,0.1783931936762516,0.06261608614839033,0.17810792795837457
1.0024953473319098,0.25183659939415354,0.03158031625193538,0.15384153094853617,0.05020890088392788,0.1535236472062145
1.0025424293570402,0.1956066522565673,0.02628859037137657,0.12081929242955049,0.034425263766331295,0.12053649468287547
1.0025895113821706,0.13475970805500284,0.022064305750231324,0.07564140824241966,0.015212992181084429,0.07549074098553617
1.002636593407301,0.07582916802294695,0.02127563999739262,0.025728531183742454,-2.8633304182513835e-05,0.025727461769575747
1.0026836754324313,0.03145358980808763,0.019416056902851402,-0.0040036080406334615,0.0002924287588758811,-0.004006407943902103
1.0027307574575617,0.01779891286180085,0.019555842046674494,-0.006351274616742859,0.016325761211299906,-0.006519961994254051
1.002777839482692,0.04358985242398123,0.02118255184674299,0.006591376950054447,0.0362098435366928,0.006222145781403044
1.0028249215078224,0.1037077589167159,0.032120822616941935,0.04281328660270074,0.05204122677082937,0.04233367815031102
1.0028720035329528,0.18101238562213362,0.046196386500977134,0.0979436666785688,0.058139934100639744,0.09751156776598618
1.0029190855580832,0.25636899888384335,0.05667783566655995,0.15380629462607742,0.058334011418005274,0.1534737703296296
1.0029661675832136,0.31832235074100634,0.060877421106609174,0.19704252226634572,0.05803565675442546,0.19678791441922358
1.003013249608344,0.36361141655314383,0.0640914733445475,0.228525784613192,0.057057291941670446,0.22832450571279492
1.0030603316334743,0.39341420767750745,0.06466171294329848,0.24979870354304085,0.05398451371565713,0.24962269459755676
1.0031074136586047,0.4102870696014962,0.06310048921886142,0.26258314989231946,0.051319172535116094,0.26241719569599264
1.003154495683735,0.41662904201390033,0.060686331091977574,0.266777273312063,0.04816167002707018,0.2666073763667358
1.0032015777088654,0.41405085665469693,0.05730708401653517,0.26326150551395927,0.044214986728353514,0.26307900470874007
1.0032486597339958,0.4030953535584088,0.052944896630865906,0.251751202986526,0.03936603426343928,0.25155373647125395
1.0032957417591262,0.38301151602067063,0.04755492966935845,0.2324239377319079,0.03378123237900787,0.23221747259640887
1.0033428237842565,0.3514583105172215,0.040843605583466086,0.2047530276495091,0.027407196831071817,0.204551476207594
1.003389905809387,0.3042863356687068,0.032539927352564293,0.16911475512504195,0.020582352913724622,0.168937812927411
1.0034369878345173,0.2364892670841809,0.02350966031402052,0.12615890065588273,0.013515299994381568,0.12602773231985642
1.0034840698596477,0.14805992805189566,0.014992986470077971,0.07745804013496241,0.006599238483572142,0.07738826429801043
1.003531151884778,0.05937981673678241,0.010407281310898457,0.035632586371168055,0.001985634663968525,0.03561035406498702
1.0035782339099084,0.016571701488668728,0.011869086819495835,0.012038086514572617,0.0012428580475905603,0.012024657776723324
1.0036253159350388,0.04141534161646615,0.02083220163690232,0.014399178728297872,0.007201133097129412,0.014324632942779008
1.0036723979601692,0.0978579156313711,0.034569888040343104,0.03595348541122598,0.019662890718330828,0.03575633439796328
1.0037194799852995,0.14599333246590304,0.05232975532441285,0.06503465797160808,0.03120382572799582,0.06474322475816247
1.00376656201043,0.17300879075255565,0.06540963176848558,0.0922030709843016,0.04095074731364478,0.09185814909363425
1.0038136440355603,0.18229222765708752,0.07370870437864226,0.11374971918924169,0.04621526677655336,0.11339649447761783
1.0038607260606907,0.18262972424027749,0.07667789030441073,0.12736778710133306,0.04880179768574398,0.12701949264219278
1.003907808085821,0.18292620727983336,0.07893586362223337,0.13485525602086357,0.050879787701698195,0.13450938611883678
1.0039548901109514,0.18798821740501145,0.08062354403997653,0.13913083302593265,0.05356784658084894,0.13878312567917248
1.0040019721360818,0.19658928748535154,0.07886301671682915,0.1397247738744464,0.05515043116653295,0.13937391673105864
1.0040490541612122,0.20361099360789395,0.07297199394111337,0.1356935801867525,0.0569374847412971,0.1353316066369236
1.0040961361863425,0.20356945018764083,0.06457732828509713,0.1287855413388881,0.055837967272195886,0.1284148928922811
1.004143218211473,0.19261735903368254,0.056782044631318626,0.11776025800915435,0.055220910227492585,0.1173736517886317
1.0041903002366033,0.1692114287165738,0.04708344189528845,0.09836742477706704,0.051488661156061315,0.09796823031498711
1.0042373822617336,0.13469585530973552,0.03653340321419251,0.07519967777083232,0.04378257026458637,0.07481986406779807
1.004284464286864,0.094068350002802,0.02552301426677955,0.051842634052145065,0.03477563473910865,0.0515141887101271
1.0043315463119944,0.0558705414627791,0.015437253768891265,0.03082107495389939,0.02401298154835704,0.030581251646047865
1.0043786283371248,0.029785725493520713,0.009531153711850692,0.019809015244991575,0.013285886191004957,0.01967292720682709
1.0044257103622551,0.022326134922130727,0.006922787158152108,0.01684685304795892,0.004869028809606915,0.016796025715974973
1.0044727923873855,0.03362727707623793,0.007685593088231273,0.01768087969631584,0.0006163721724914787,0.01767359926629998
1.004519874412516,0.057935866130881315,0.010872764812753071,0.0238553638180855,0.000460749966833626,0.02384935949660985
1.0045669564376463,0.08691312585069338,0.015950660357601655,0.038233159934289905,0.005615805674452206,0.03817401576325883
1.0046140384627766,0.11302745450084833,0.02138688395114402,0.05542672474865837,0.016117525490875473,0.055265691295611576
1.004661120487907,0.13143773576861661,0.027149020888076147,0.07126698378066398,0.02869708720067105,0.07099895658611248
1.0047082025130374,0.140315951549541,0.03258451801346273,0.0817840112464661,0.04129858533912666,0.08142754783174384
1.0047552845381678,0.14016084842095028,0.03336990518716927,0.0846685751900148,0.051807503405901935,0.08424849349984152
1.0048023665632981,0.13271042804166153,0.03163946050469569,0.08028160564993014,0.05981094187696183,0.07980915646619267
1.0048494485884285,0.1199532079956697,0.027501225196066854,0.06958311394397716,0.06550678719380297,0.0690571464674336
1.0048965306135589,0.10352759540252561,0.025313095092536292,0.05738407400153901,0.06862314325047732,0.05681111548154661
1.0049436126386893,0.08458770500586026,0.022436946746485775,0.04469505929439128,0.06718769655469226,0.04410211898902292
1.0049906946638196,0.06411017510052013,0.020382011732060636,0.03435472552873721,0.062187836925172595,0.0337787485294582
1.00503777668895,0.043500849939608656,0.016800764783087303,0.022887706523455283,0.05579838759772846,0.022346971818366746
1.0050848587140804,0.02497562650004661,0.012552949524542367,0.013888116903115118,0.04826143357792016,0.013406013813331865
1.0051319407392107,0.011013597455985432,0.00824310788977685,0.011624969459267675,0.039307715224749934,0.011228213847475016
1.0051790227643411,0.003334338693202587,0.006178178618337536,0.009001101837417943,0.027399959730336498,0.008721694639125048
1.0052261047894715,0.0027948227754708652,0.0031176204933221034,0.005716764128480125,0.013816316527963437,0.005574682774442481
1.0052731868146019,0.010164673003053454,0.0023709364389350005,0.005314070387151807,0.0033748326293285666,0.005279057041930433
1.0053202688397322,0.026566180290056158,0.003943633912360975,0.008193549268036414,-0.0027563602089525933,0.008221535251433317
1.0053673508648626,0.05291846997433676,0.006347626663457574,0.011498759854167706,-0.005553724175008867,0.011555523612932583
1.005414432889993,0.08828034555015178,0.0076157255394301675,0.017065936640710815,-0.005116927275932447,0.017117940093710874
1.0054615149151234,0.12763762777320273,0.009883774612559595,0.025647230237824777,-0.0013951203549107689,0.025660251880102833
1.0055085969402537,0.16155770115500132,0.012204308686179603,0.038076850744054896,0.006254895981726429,0.038011286443035176
1.0055556789653841,0.18078890709766565,0.015230142942493757,0.05135766337998839,0.016077840423559187,0.05119658656645055
1.0056027609905145,0.18307418566708303,0.016181643362190197,0.06056084021799014,0.026265328889822987,0.06030930021372935
1.0056498430156449,0.1741533504439713,0.018485779043600742,0.06655908741414072,0.035853744025595,0.06623108975878617
1.0056969250407752,0.16242605985016223,0.01933857444175205,0.07063087442771013,0.044180285602554825,0.07024368948502262
1.0057440070659056,0.15418810481596457,0.017781204053419403,0.07107575192890922,0.04927125726492943,0.07065367390741575
1.005791089091036,0.1523552110015489,0.014052509292992033,0.0660360559428213,0.05091822151654739,0.06559620130355501
1.0058381711161664,0.15691036178882456,0.012167358738038873,0.06130313889977103,0.050375907592515715,0.060860879734073385
1.0058852531412967,0.16538784679386007,0.011685651776999392,0.06307528196508604,0.047454715236979375,0.06265633891402489
1.005932335166427,0.17322460684996496,0.010531575973515103,0.06323184659303546,0.04222975519317904,0.06285194725158762
1.0059794171915575,0.17475929729964576,0.0076331782557984736,0.05880087400333982,0.03504796122214627,0.05847440989021176
1.0060264992166879,0.16548577922015562,0.004620800857947091,0.05204155960234529,0.028961923554092786,0.051763339518617855
1.0060735812418182,0.1445721481217929,0.0020988655993404615,0.04234591607178599,0.02248920096283871,0.04212327429025018
1.0061206632669486,0.11538472372115638,-0.0006338320050144066,0.03266210113426135,0.01683335361828381,0.032491850610772005
1.006167745292079,0.08342022676517998,-0.0009989918322451238,0.0259645785337829,0.012354538738852719,0.02583804092807564
1.0062148273172093,0.053714935068683495,0.0010447167694010767,0.01794830890199036,0.010102152405291798,0.017844258567789574
1.0062619093423397,0.029620632829972474,0.004483642169246818,0.006428025048282717,0.010289100876479815,0.00632204076701057
1.00630899136747,0.012907514843990737,0.008430023363371186,-0.004503164505502606,0.011341726408336767,-0.0046200461994485706
1.0063560733926005,0.004292560353454192,0.0138229932604201,-0.010519166817943732,0.013224155236015481,-0.010655734888113373
1.0064031554177308,0.0038095921685766332,0.019630943017768066,-0.007972360122875525,0.014979600690423622,-0.008127133543214156
1.0064502374428612,0.010924293923755681,0.026677856412459504,0.0013341291502741227,0.018296472762106723,0.0011457851462684365
1.0064973194679916,0.02453035587728399,0.033641589307096376,0.011333716656649779,0.023352135789902438,0.011095644157198778
1.006544401493122,0.042966387475684646,0.038959333450042974,0.020787738978896356,0.02744932027466905,0.020511797342965658
1.0065914835182523,0.06411092062196938,0.04302915052524327,0.03329944681240632,0.031104532292719096,0.032993760111230216
1.0066385655433827,0.08556714248621351,0.04788678718903352,0.049462130528264495,0.03420182136910626,0.049137173344938764
1.006685647568513,0.10493697207975199,0.04947458718703536,0.06485229624100503,0.03611350908403916,0.06452112089288752
1.0067327295936435,0.12014720761669652,0.04867883303892391,0.07640706666955516,0.03630353843822699,0.07608220328602029
1.0067798116187738,0.12974860817624662,0.044369230602424405,0.08294186479002422,0.03447799304192795,0.0826347865316653
1.0068268936439042,0.1331160769266914,0.0397696023442749,0.08436945777741765,0.030707076471952043,0.0840914444043637
1.0068739756690346,0.13051634907150206,0.034575887582219036,0.08386978816652868,0.026684137736283007,0.08362296024763621
1.006921057694165,0.12301693370584733,0.028414509944278032,0.08185258015702256,0.020380817677036298,0.08165727988626677
1.0069681397192953,0.11219272060745543,0.021001637389250198,0.07585112215539112,0.01374781278612142,0.0757138421923896
1.0070152217444257,0.09964098937742749,0.013302823146355048,0.06985230351433948,0.008222728128101632,0.06976688181355097
1.007062303769556,0.08648287672211809,0.007541191310231989,0.06302251331950957,0.004690825482200077,0.06297184194004464
1.0071093857946865,0.07315337862299943,0.0032600165713961536,0.053521194673379444,0.002929401916887499,0.05348854693890765
1.0071564678198168,0.05967551136841471,-0.0012429216377447046,0.042771215350936226,0.001460963333030535,0.042753988296249226
1.0072035498449472,0.046352747241279996,-0.004041597090292063,0.029687677967592516,0.0020820852875889067,0.02966475008083465
1.0072506318700776,0.03458526276589038,-0.005518199982141012,0.01916866027493343,0.003880477967038257,0.019127838212231674
1.007297713895208,0.02727830692374265,-0.0051638117059873544,0.01473006896934623,0.005112053204703399,0.014676839031839976
1.0073447959203383,0.0280866607277734,-0.00357422149029111,0.01711698325886342,0.007153253670484458,0.017042860445398635
1.0073918779454687,0.03925806445151868,0.000845994658834504,0.028584290137595406,0.011343650099540747,0.02846790074350285
1.007438959970599,0.059562255279517966,0.007274965269224771,0.043832242766228824,0.01594350578542116,0.043671705006385696
1.0074860419957294,0.08449757331606145,0.012853031981857305,0.058037587268334905,0.021730663073864644,0.05782541347640974
1.0075331240208598,0.10858230355013457,0.017370711761248065,0.06858033205585247,0.026027713905001207,0.06833353211782069
1.0075802060459902,0.12742598805780986,0.019895020524624718,0.07621925524513734,0.02881115017332562,0.07595238192715494
1.0076272880711206,0.13840784538629322,0.02151484117118208,0.07904744927672683,0.03050805912762344,0.07876839577228464
1.007674370096251,0.14057521646913557,0.02065134463038549,0.0769603579802706,0.03091700342777155,0.07667708716230548
1.0077214521213813,0.1345761316442056,0.017430990817731848,0.07084930100861353,0.029624057336742678,0.07057351865153834
