freq,gls,usurper,pdc_unbiased,shape_periodogram,shift_periodogram
1.0,0.02176245538732735,0.013938970180330466,-0.007335655112181927,-0.002872139307297392,-0.007252369069814303
1.0000470820251304,0.05134779247241603,0.02095913217343271,0.016081221596065367,0.00011872290151399148,0.01607159041365233
1.0000941640502607,0.09689124580742478,0.02838572856237579,0.05094334186944231,0.009648087249021324,0.050656574868787954
1.0001412460753911,0.14848755125694818,0.03647681574799481,0.08456655871201842,0.020547430873033443,0.08398183570738807
1.0001883281005215,0.19664060203551523,0.0444764718366021,0.10917973127593883,0.032304040976464665,0.10830446677919024
1.0002354101256519,0.23592916525893703,0.05025760166430715,0.12678225514793529,0.04108400511665278,0.12571444354388267
1.0002824921507822,0.26363730657080775,0.052059336855908876,0.13936052532630389,0.04504246609333963,0.13821916891935979
1.0003295741759126,0.2780607972143743,0.054072247253378766,0.14663287491158739,0.04787198925910655,0.14544158766396173
1.000376656201043,0.27778293516045677,0.05611497156124018,0.14742341655727248,0.04948254312411337,0.14620067149639987
1.0004237382261734,0.2619162710265795,0.05552106799866011,0.139633635428265,0.0500882749744947,0.1383878068673954
1.0004708202513037,0.23107843684954268,0.05256429894726184,0.12167319492364326,0.04882902292626117,0.12043001304195507
1.0005179022764341,0.1884924826566669,0.04806953322634611,0.09811663264576473,0.046100796322108506,0.0969077045955525
1.0005649843015645,0.1401213853463462,0.04496310251244758,0.07552593926328457,0.042370426589441415,0.07438614802604204
1.0006120663266949,0.09311329616242185,0.04235663166660404,0.056936636782797936,0.03666835939911695,0.05592973528567195
1.0006591483518252,0.05338098213176131,0.04185255661966845,0.04656239048066332,0.02871447567252421,0.04576130768810039
1.0007062303769556,0.024158292773911582,0.03997961185258113,0.0379052596807291,0.0187672910885787,0.03737245335407191
1.000753312402086,0.006389706849983347,0.03770704795628675,0.024925530867037873,0.007739823019128255,0.024699916023514734
1.0008003944272164,4.4957735270936574e-05,0.0379036594688247,0.013623927240606612,-0.0012377294175294794,0.013653251183700438
1.0008474764523467,0.004476680458159687,0.03508323954197782,0.005279248516488982,-0.00369858867244948,0.005380802130953534
1.000894558477477,0.016631009383087918,0.036178610254544157,0.00604487589630294,-0.0015181481672608414,0.006085030349546529
1.0009416405026075,0.030279800796216314,0.04215452465028086,0.01614856324889533,0.004568278837712912,0.016014495084002274
1.0009887225277379,0.04019506929021177,0.051406410267063565,0.031662352407458065,0.015703821319199715,0.031214598019391346
1.0010358045528682,0.045271217739530065,0.059357807838415017,0.049643587368788454,0.029199455472739826,0.048830064340270096
1.0010828865779986,0.04665854735345898,0.0615326355313292,0.06394396252727896,0.04324345583138,0.06277355583020913
1.001129968603129,0.04557434040645729,0.06193502138290427,0.06951556918541625,0.05480130269215636,0.06806619466265879
1.0011770506282593,0.04281463251624272,0.057859235039826394,0.06676401531502141,0.06184536746556238,0.06514117072903175
1.0012241326533897,0.03911406922799136,0.05139949923183105,0.05756222886158259,0.06536023539320039,0.055836894547800255
1.00127121467852,0.035734840091298535,0.044713043648754815,0.04469056838221148,0.0663755317647025,0.04291378282764685
1.0013182967036505,0.034632288517627896,0.03866548521259385,0.03354469161607427,0.06662042820342115,0.0317390164264847
1.0013653787287808,0.03686446430802818,0.038547621441954026,0.03235087082016887,0.06623900444383343,0.03055271403897694
1.0014124607539112,0.040499198873267514,0.042699914053776725,0.04235422606047071,0.06611112236222419,0.040579352850854636
1.0014595427790416,0.04245011553894062,0.04688617098596109,0.05148956578485458,0.06474031070276379,0.049767230846019424
1.001506624804172,0.04142424671447975,0.04848866684878267,0.057489670337512934,0.05886066083700329,0.05592317168912743
1.0015537068293023,0.03772147907862947,0.04732417972404126,0.05838903434484734,0.05007019751457975,0.05704211477968999
1.0016007888544327,0.032149333674356434,0.045187570026869864,0.05286952532393206,0.03790119856215356,0.051828777427251616
1.001647870879563,0.025799799790141527,0.04170442234730189,0.040386054375886556,0.022944245691012975,0.03973959036363932
1.0016949529046935,0.020580986012262138,0.035278814120263804,0.02276083148008517,0.00779604271179009,0.022534402705485256
1.0017420349298238,0.01993155776046648,0.031260850660084584,0.008396000375120035,-0.00308390566370143,0.008479113699797805
1.0017891169549542,0.027489951613850306,0.03047911060159125,0.00883020356959996,-0.005102221679372432,0.00896974547840181
1.0018361989800846,0.042074300128446054,0.030336766941779423,0.022145335055818467,-0.0001785144717847924,0.0221416479201289
1.001883281005215,0.05845891480384451,0.03469285551251594,0.04104344236602053,0.010215711924625373,0.040744079239919545
1.0019303630303453,0.07582159493280267,0.04231438696486647,0.05832937685591873,0.02195597796790022,0.05770858024507347
1.0019774450554757,0.09824195100672209,0.05027872725705677,0.07041397317164165,0.03406660733623472,0.06947944821619137
1.002024527080606,0.1303669711588208,0.05144562300741377,0.07896421651578898,0.044466844696308454,0.07777588376339507
1.0020716091057364,0.17464242099810953,0.047660272745053085,0.08832693698111686,0.05185609821106807,0.0869729476888142
1.0021186911308668,0.22917237164395338,0.04834621083016456,0.11355266104308831,0.056395748883555086,0.11213536203155369
1.0021657731559972,0.2864808872447173,0.05191196370909309,0.14880372324738836,0.0602060405106087,0.14737695400294826
1.0022128551811276,0.335488571803669,0.05553055540016421,0.17945522269565434,0.06344495292711677,0.17804172500028664
1.002259937206258,0.3667004160945303,0.057552805546524644,0.20044309409803335,0.06523555414022077,0.19905571708235312
1.0023070192313883,0.37630521047742305,0.057589515151991004,0.20989430295355302,0.064952042087688,0.2085354702751694
1.0023541012565187,0.3658732131217113,0.05535657535892695,0.20800353236518512,0.0627500859143924,0.20666971269175613
1.002401183281649,0.3393357840705059,0.051404374703150305,0.19716291122807472,0.05817061229271106,0.1958715519302199
1.0024482653067794,0.30043566038503033,0.046796353259444236,0.1783931936762516,0.049865931320724824,0.17720790857091745
1.0024953473319098,0.25183659939415354,0.04070435577730277,0.15384153094853617,0.037239900069170696,0.15287967640170896
1.0025424293570402,0.1956066522565673,0.032158246922180514,0.12081929242955049,0.022771339002923465,0.1201793354136672
1.0025895113821706,0.13475970805500284,0.020612987560434913,0.07564140824241966,0.00811574484386931,0.07538900122876152
1.002636593407301,0.07582916802294695,0.01066547168222976,0.025728531183742454,-0.0020281325071578285,0.02577524576118892
1.0026836754324313,0.03145358980808763,0.01307905016000984,-0.0040036080406334615,-0.002115613810682854,-0.003942792212015038
1.0027307574575617,0.01779891286180085,0.026145611024999467,-0.006351274616742859,0.01054340832262345,-0.006644439768284815
1.002777839482692,0.04358985242398123,0.030315299763049437,0.006591376950054447,0.029722593535455824,0.005758894675000544
1.0028249215078224,0.1037077589167159,0.034273983409470896,0.04281328660270074,0.04484859344341199,0.041585495148305916
1.0028720035329528,0.18101238562213362,0.04230735337107648,0.0979436666785688,0.054434989795661526,0.09654431116412648
1.0029190855580832,0.25636899888384335,0.0555433282130046,0.15380629462607742,0.05955484734484724,0.1524017572596169
1.0029661675832136,0.31832235074100634,0.0682598910376381,0.19704252226634572,0.05796945887955635,0.19575402648931634
1.003013249608344,0.36361141655314383,0.07352490444494733,0.228525784613192,0.056318700906359126,0.227326687242658
1.0030603316334743,0.39341420767750745,0.0762565856825935,0.24979870354304085,0.054684243302379226,0.24866452955725638
1.0031074136586047,0.4102870696014962,0.07613498187845119,0.26258314989231946,0.05191274067569271,0.2615087032799933
1.003154495683735,0.41662904201390033,0.07512232642562335,0.266777273312063,0.048664928381997076,0.26575184001166735
1.0032015777088654,0.41405085665469693,0.07296075838189713,0.26326150551395927,0.044455428359795185,0.2622882888166074
1.0032486597339958,0.4030953535584088,0.06966732545539485,0.251751202986526,0.03922481470721852,0.2508432711812978
1.0032957417591262,0.38301151602067063,0.06519123616791728,0.2324239377319079,0.0329940734300677,0.23160644035562464
1.0033428237842565,0.3514583105172215,0.059117985772189255,0.2047530276495091,0.0254795343178058,0.20407014175094046
1.003389905809387,0.3042863356687068,0.05111107486162862,0.16911475512504195,0.016877039220855056,0.16862100042973532
1.0034369878345173,0.2364892670841809,0.04166622744970971,0.12615890065588273,0.007508463062085848,0.12590837371880106
1.0034840698596477,0.14805992805189566,0.031173998507890537,0.07745804013496241,-0.0017863422258019162,0.07747754046042549
1.003531151884778,0.05937981673678241,0.023299118226929573,0.035632586371168055,-0.008951954434614532,0.035870311668109306
1.0035782339099084,0.016571701488668728,0.020967626465624136,0.012038086514572617,-0.011381434343994584,0.012352871439782434
1.0036253159350388,0.04141534161646615,0.02662241722847877,0.014399178728297872,-0.005975726870675459,0.014561109933068162
1.0036723979601692,0.0978579156313711,0.03566993064001413,0.03595348541122598,0.003977961199224206,0.03582847953528137
1.0037194799852995,0.14599333246590304,0.046419555005809604,0.06503465797160808,0.01634975843122817,0.06456279120710529
1.00376656201043,0.17300879075255565,0.05322781842826284,0.0922030709843016,0.029133590079303023,0.09139997226667629
1.0038136440355603,0.18229222765708752,0.05948083096768232,0.11374971918924169,0.03834029826200474,0.11273421585298485
1.0038607260606907,0.18262972424027749,0.06379423858987418,0.12736778710133306,0.04724260059528906,0.12616578191255778
1.003907808085821,0.18292620727983336,0.06519434845443282,0.13485525602086357,0.05679374684557264,0.13346686447668
1.0039548901109514,0.18798821740501145,0.0663622517059944,0.13913083302593265,0.06303513679458492,0.1376306677949259
1.0040019721360818,0.19658928748535154,0.067025517932771,0.1397247738744464,0.06607383158102113,0.13816978389248713
1.0040490541612122,0.20361099360789395,0.06835962263839788,0.1356935801867525,0.0656156488722583,0.13413723284996842
1.0040961361863425,0.20356945018764083,0.06641235057117645,0.1287855413388881,0.06404893667781032,0.12724278751935308
1.004143218211473,0.19261735903368254,0.059719503421152564,0.11776025800915435,0.060223305326710413,0.1162705735927257
1.0041903002366033,0.1692114287165738,0.05149684925561934,0.09836742477706704,0.053852310481432,0.09698178166795683
1.0042373822617336,0.13469585530973552,0.042207628711586946,0.07519967777083232,0.045230042297736764,0.07398936324819565
1.004284464286864,0.094068350002802,0.03343521526451264,0.051842634052145065,0.033361954523667,0.05091989447827136
1.0043315463119944,0.0558705414627791,0.02549069157677493,0.03082107495389939,0.019508391279221094,0.03026911116700929
1.0043786283371248,0.029785725493520713,0.020156550123967026,0.019809015244991575,0.005858397811053494,0.019637593867550557
1.0044257103622551,0.022326134922130727,0.01735415488435792,0.01684685304795892,-0.0052088499723846006,0.016986306000210824
1.0044727923873855,0.03362727707623793,0.01780490733136266,0.01768087969631584,-0.010906047068182396,0.017980331899293035
1.004519874412516,0.057935866130881315,0.020918113866774814,0.0238553638180855,-0.01129952948754801,0.0241637625720731
1.0045669564376463,0.08691312585069338,0.02663874542059307,0.038233159934289905,-0.0058316070558443595,0.038381809900798126
1.0046140384627766,0.11302745450084833,0.033746486142269265,0.05542672474865837,0.004937375254639112,0.055268063913137946
1.004661120487907,0.13143773576861661,0.0400662998927768,0.07126698378066398,0.017236170573724074,0.07077051163831498
1.0047082025130374,0.140315951549541,0.04429609185134106,0.0817840112464661,0.02970032386109334,0.08096400132159873
1.0047552845381678,0.14016084842095028,0.04511560250204833,0.0846685751900148,0.040658126961116085,0.08357749783198352
1.0048023665632981,0.13271042804166153,0.04341002001175211,0.08028160564993014,0.04857188159248887,0.07899544235110398
1.0048494485884285,0.1199532079956697,0.040764660947976435,0.06958311394397716,0.05606913587096788,0.06810329721424856
1.0048965306135589,0.10352759540252561,0.03751918848190942,0.05738407400153901,0.060591186799929225,0.05577484502380707
1.0049436126386893,0.08458770500586026,0.032536554225064275,0.04469505929439128,0.061863480160711845,0.043032107968574033
1.0049906946638196,0.06411017510052013,0.028271709835985422,0.03435472552873721,0.059763736621421246,0.03272862135338745
1.00503777668895,0.043500849939608656,0.02397518414727268,0.022887706523455283,0.054798012471298965,0.0213771473791171
1.0050848587140804,0.02497562650004661,0.01994394773915582,0.013888116903115118,0.04752219258085143,0.012566183381313644
1.0051319407392107,0.011013597455985432,0.017816962410709493,0.011624969459267675,0.038740636451250726,0.010543452177553075
1.0051790227643411,0.003334338693202587,0.01553323365269241,0.009001101837417943,0.028320413344071902,0.008207735554281238
1.0052261047894715,0.0027948227754708652,0.010785837328107421,0.005716764128480125,0.01852290206668307,0.0051966354612713265
1.0052731868146019,0.010164673003053454,0.005954679553928,0.005314070387151807,0.00912489254176792,0.005056630946594677
1.0053202688397322,0.026566180290056158,0.0030195002085298627,0.008193549268036414,-0.00044378380677692484,0.00820276432794378
1.0053673508648626,0.05291846997433676,0.0028951578216339195,0.011498759854167706,-0.004597135446602331,0.01162310563382761
1.005414432889993,0.08828034555015178,0.006444505639028751,0.017065936640710815,-0.005142443343275426,0.017203439985865532
1.0054615149151234,0.12763762777320273,0.010045824345732165,0.025647230237824777,-0.003031938609834472,0.025722129519174467
1.0055085969402537,0.16155770115500132,0.013724880951883638,0.038076850744054896,0.0036968519137217013,0.03795887382039271
1.0055556789653841,0.18078890709766565,0.0176557045071629,0.05135766337998839,0.014161460602193445,0.050947575885552716
1.0056027609905145,0.18307418566708303,0.020435497514844813,0.06056084021799014,0.025941683334655682,0.05983458572023271
1.0056498430156449,0.1741533504439713,0.02255338477578871,0.06655908741414072,0.03481744023959188,0.06560388249902363
1.0056969250407752,0.16242605985016223,0.02323766868966958,0.07063087442771013,0.04186870587261144,0.06949988183168261
1.0057440070659056,0.15418810481596457,0.02298558818574014,0.07107575192890922,0.044923443020036924,0.06986930835843004
1.005791089091036,0.1523552110015489,0.021519367281043155,0.0660360559428213,0.044926509946729636,0.06482517357176286
1.0058381711161664,0.15691036178882456,0.020312832548021787,0.06130313889977103,0.04405258604240184,0.060110276521540114
1.0058852531412967,0.16538784679386007,0.021074780897647707,0.06307528196508604,0.04250743209425256,0.0619227756831673
1.005932335166427,0.17322460684996496,0.019164773206506027,0.06323184659303546,0.03884156087079122,0.06217237828937034
1.0059794171915575,0.17475929729964576,0.016272058770499087,0.05880087400333982,0.03350943402718855,0.05787651004769332
1.0060264992166879,0.16548577922015562,0.013571160667991846,0.05204155960234529,0.027585124930693847,0.05127112478134579
1.0060735812418182,0.1445721481217929,0.011005763599395943,0.04234591607178599,0.0202500094418179,0.041772212236043646
1.0061206632669486,0.11538472372115638,0.008852046503796852,0.03266210113426135,0.011478913103618284,0.03233042928853644
1.006167745292079,0.08342022676517998,0.005994786859046814,0.0259645785337829,0.0036961290637030075,0.02585115624088021
1.0062148273172093,0.053714935068683495,0.005468761483843351,0.01794830890199036,-0.001599229866101846,0.017986063236822135
1.0062619093423397,0.029620632829972474,0.005901737885192082,0.006428025048282717,-0.004210490361052144,0.006543483847959032
1.00630899136747,0.012907514843990737,0.007799985034661728,-0.004503164505502606,-0.002962979346082786,-0.004418430820525511
1.0063560733926005,0.004292560353454192,0.010615770607137818,-0.010519166817943732,0.000943186059145704,-0.010541458038757164
1.0064031554177308,0.0038095921685766332,0.015168702453613304,-0.007972360122875525,0.00515087565474929,-0.008113595098805526
1.0064502374428612,0.010924293923755681,0.023204065198914242,0.0013341291502741227,0.014231696294952903,0.0009350912606643424
1.0064973194679916,0.02453035587728399,0.03003619669164417,0.011333716656649779,0.02440073119554419,0.010649134490079185
1.006544401493122,0.042966387475684646,0.03508873565151277,0.020787738978896356,0.03389322406954869,0.01984226800136047
1.0065914835182523,0.06411092062196938,0.03691360776766007,0.03329944681240632,0.039237065896114934,0.032213969578609954
1.0066385655433827,0.08556714248621351,0.03826677161503532,0.049462130528264495,0.04092683206966121,0.04834098229726692
1.006685647568513,0.10493697207975199,0.038923799819692725,0.06485229624100503,0.03969735291073641,0.06377204020773893
1.0067327295936435,0.12014720761669652,0.038407261623695524,0.07640706666955516,0.03714520600640537,0.0753975865657306
1.0067798116187738,0.12974860817624662,0.03631243568822895,0.08294186479002422,0.03371749204811727,0.08202110415224095
1.0068268936439042,0.1331160769266914,0.036002124591227286,0.08436945777741765,0.029121435976691572,0.08356474081072963
1.0068739756690346,0.13051634907150206,0.03281679409538967,0.08386978816652868,0.02408112915903184,0.08319363788525654
1.006921057694165,0.12301693370584733,0.027160071971584484,0.08185258015702256,0.01978334050626054,0.08128790073436871
1.0069681397192953,0.11219272060745543,0.020456647371999172,0.07585112215539112,0.014829008820996614,0.07541799824649767
1.0070152217444257,0.09964098937742749,0.014848286873108144,0.06985230351433948,0.009980398154285515,0.06955097681511854
1.007062303769556,0.08648287672211809,0.010438036795770163,0.06302251331950957,0.006087698986638165,0.0628295496119451
1.0071093857946865,0.07315337862299943,0.008578401152779037,0.053521194673379444,0.002830200914153889,0.053421540417564285
1.0071564678198168,0.05967551136841471,0.007562546284441043,0.042771215350936226,-0.00011242418208940736,0.04275760659801066
1.0072035498449472,0.046352747241279996,0.005340838547584916,0.029687677967592516,-0.002165245291039745,0.029736676105805077
1.0072506318700776,0.03458526276589038,0.00463783896163716,0.01916866027493343,-0.0021822542079577728,0.019222276712247167
1.007297713895208,0.02727830692374265,0.004769407696255284,0.01473006896934623,-0.002074041216337566,0.014782395176472072
1.0073447959203383,0.0280866607277734,0.006687388122575546,0.01711698325886342,-0.0009466933749576762,0.017136781502441023
1.0073918779454687,0.03925806445151868,0.011770729333344325,0.028584290137595406,0.002923462655864718,0.028491424675299328
1.007438959970599,0.059562255279517966,0.01806536339661402,0.043832242766228824,0.007852142162425623,0.043597123386089544
1.0074860419957294,0.08449757331606145,0.02357019915545026,0.058037587268334905,0.013057366923562099,0.057655908254378434
1.0075331240208598,0.10858230355013457,0.02760822449754475,0.06858033205585247,0.018839906729162293,0.06804158145001603
1.0075802060459902,0.12742598805780986,0.031072872331580556,0.07621925524513734,0.022949448152942756,0.07557207687129394
1.0076272880711206,0.13840784538629322,0.03187397022582944,0.07904744927672683,0.02528882310348074,0.07833979163542429
1.007674370096251,0.14057521646913557,0.030567036545307315,0.0769603579802706,0.027208107784203513,0.07620301904392969
1.0077214521213813,0.1345761316442056,0.028946753728222682,0.07084930100861353,0.02737008784834664,0.07008687353495216
