freq,gls,usurper,pdc_unbiased,shape_periodogram,shift_periodogram
1.0,0.02176245538732735,0.04421151745271814,-0.007335655112181927,0.02505774679229591,-0.010860710388628975
1.0000470820251304,0.05134779247241603,0.08293696457994981,0.016081221596065367,0.05803717478991472,0.007595495053918733
1.0000941640502607,0.09689124580742478,0.12396415706809008,0.05094334186944231,0.09956852866500401,0.036340324006480296
1.0001412460753911,0.14848755125694818,0.16493485097665103,0.08456655871201842,0.1393810618433956,0.06447317199664873
1.0001883281005215,0.19664060203551523,0.1982401668357878,0.10917973127593883,0.17325816269283953,0.08480002663986719
1.0002354101256519,0.23592916525893703,0.21994578769314158,0.12678225514793529,0.197055076032701,0.09965863700672485
1.0002824921507822,0.26363730657080775,0.23243427971179592,0.13936052532630389,0.211129517619605,0.11078533904331128
1.0003295741759126,0.2780607972143743,0.23869340644986883,0.14663287491158739,0.21832235034274514,0.11738369424200314
1.000376656201043,0.27778293516045677,0.2396722487098005,0.14742341655727248,0.21940653251603381,0.11806772830780807
1.0004237382261734,0.2619162710265795,0.2327177774209767,0.139633635428265,0.2141232464751297,0.11070605207628574
1.0004708202513037,0.23107843684954268,0.21631772143751188,0.12167319492364326,0.2012504341235121,0.09392873454129964
1.0005179022764341,0.1884924826566669,0.19486151362760828,0.09811663264576473,0.18444233883106795,0.07213849188305325
1.0005649843015645,0.1401213853463462,0.17955858874145486,0.07552593926328457,0.17265509707597002,0.05086425239717536
1.0006120663266949,0.09311329616242185,0.1725673477462905,0.056936636782797936,0.16706167502906044,0.03289402323553785
1.0006591483518252,0.05338098213176131,0.17495765931584314,0.04656239048066332,0.16647734199857236,0.022533762796772074
1.0007062303769556,0.024158292773911582,0.17903273396707667,0.0379052596807291,0.1667779009988104,0.013783072749576297
1.000753312402086,0.006389706849983347,0.17748002561116613,0.024925530867037873,0.16250786283061852,0.0013579914206195947
1.0008003944272164,4.4957735270936574e-05,0.17620337178083298,0.013623927240606612,0.1562115818960794,-0.009057685527998006
1.0008474764523467,0.004476680458159687,0.17528770023874166,0.005279248516488982,0.15666808043199754,-0.017485064315686815
1.000894558477477,0.016631009383087918,0.18471871292725478,0.00604487589630294,0.167288389934288,-0.018293834752154136
1.0009416405026075,0.030279800796216314,0.2084858650060444,0.01614856324889533,0.18953300501779127,-0.011438867798323323
1.0009887225277379,0.04019506929021177,0.24208808252812322,0.031662352407458065,0.22137932359632934,-0.00044967153323296057
1.0010358045528682,0.045271217739530065,0.276276079176806,0.049643587368788454,0.25593864115034437,0.012866354321714473
1.0010828865779986,0.04665854735345898,0.2990115405386798,0.06394396252727896,0.28577218121548503,0.023343652723853435
1.001129968603129,0.04557434040645729,0.308671169879229,0.06951556918541625,0.3033525682353621,0.026649518086615524
1.0011770506282593,0.04281463251624272,0.30247521691098583,0.06676401531502141,0.30640405198507953,0.023339000324100145
1.0012241326533897,0.03911406922799136,0.28476642528181,0.05756222886158259,0.29767434756406586,0.014994571480590373
1.00127121467852,0.035734840091298535,0.2610422646081965,0.04469056838221148,0.28145666199693975,0.004018973751477697
1.0013182967036505,0.034632288517627896,0.24291342184965053,0.03354469161607427,0.26942828144748643,-0.0056822261916890816
1.0013653787287808,0.03686446430802818,0.24430750820321898,0.03235087082016887,0.2695989184874646,-0.006936754916668563
1.0014124607539112,0.040499198873267514,0.2614679249488149,0.04235422606047071,0.28155883786701386,0.001587361199678799
1.0014595427790416,0.04245011553894062,0.2825616181813128,0.05148956578485458,0.29780846146322504,0.008652828068570033
1.001506624804172,0.04142424671447975,0.29659334802169246,0.057489670337512934,0.3066111860991623,0.013615605803447775
1.0015537068293023,0.03772147907862947,0.2972208083442226,0.05838903434484734,0.3029556079503318,0.015087892116424187
1.0016007888544327,0.032149333674356434,0.2845869754361501,0.05286952532393206,0.28425684415682806,0.012074960493975124
1.001647870879563,0.025799799790141527,0.25854239970621423,0.040386054375886556,0.25184744992672614,0.003964453336917949
1.0016949529046935,0.020580986012262138,0.22309866605820158,0.02276083148008517,0.21218407646616053,-0.008121975980797818
1.0017420349298238,0.01993155776046648,0.19315234056839561,0.008396000375120035,0.17924331165900206,-0.017712883639926354
1.0017891169549542,0.027489951613850306,0.1805465616921278,0.00883020356959996,0.16546504470757906,-0.01522871948120835
1.0018361989800846,0.042074300128446054,0.18214057373784787,0.022145335055818467,0.16967976959290346,-0.0024795144057050207
1.001883281005215,0.05845891480384451,0.19522865385538654,0.04104344236602053,0.18550864060287567,0.014260769143232389
1.0019303630303453,0.07582159493280267,0.2114035804948344,0.05832937685591873,0.20108809345160578,0.029539324288227746
1.0019774450554757,0.09824195100672209,0.21918553534274535,0.07041397317164165,0.20768166446183225,0.04089422906892608
1.002024527080606,0.1303669711588208,0.20915566339603064,0.07896421651578898,0.20037118147334476,0.05058109910573559
1.0020716091057364,0.17464242099810953,0.19248939335866,0.08832693698111686,0.18862564387361141,0.06166072965521231
1.0021186911308668,0.22917237164395338,0.1952311809898216,0.11355266104308831,0.1888757644299902,0.08722856854697622
1.0021657731559972,0.2864808872447173,0.21382853910043526,0.14880372324738836,0.2013788654799603,0.12160373473403648
1.0022128551811276,0.335488571803669,0.23414545889043867,0.17945522269565434,0.2162664086112589,0.15133174899814383
1.002259937206258,0.3667004160945303,0.24718313698708697,0.20044309409803335,0.22532800652805104,0.17200757008298687
1.0023070192313883,0.37630521047742305,0.25054156486591117,0.20989430295355302,0.22602585243133524,0.1817019578333859
1.0023541012565187,0.3658732131217113,0.2444713684804512,0.20800353236518512,0.21875798059403384,0.18047027708195626
1.002401183281649,0.3393357840705059,0.2305635343623497,0.19716291122807472,0.20462843528008898,0.1707649478050077
1.0024482653067794,0.30043566038503033,0.21071363895538106,0.1783931936762516,0.18441600720621187,0.153760246003385
1.0024953473319098,0.25183659939415354,0.18518105570037283,0.15384153094853617,0.15783507281485326,0.13192253717564603
1.0025424293570402,0.1956066522565673,0.15099945341696275,0.12081929242955049,0.12513745655893424,0.10274602398234604
1.0025895113821706,0.13475970805500284,0.10458171517560867,0.07564140824241966,0.08446648918493575,0.06304391616191929
1.002636593407301,0.07582916802294695,0.056562199279023166,0.025728531183742454,0.04551938556268759,0.018950323993563518
1.0026836754324313,0.03145358980808763,0.03283447428847126,-0.0040036080406334615,0.023730279065407773,-0.007371521256974154
1.0027307574575617,0.01779891286180085,0.03821232453045883,-0.006351274616742859,0.027039561619127853,-0.010171460051106881
1.002777839482692,0.04358985242398123,0.051285965572178634,0.006591376950054447,0.04836008713292053,-0.000421439134330069
1.0028249215078224,0.1037077589167159,0.080354871979532,0.04281328660270074,0.0819666334061478,0.030727606424188817
1.0028720035329528,0.18101238562213362,0.12951057085106862,0.0979436666785688,0.12744607892458662,0.07949454124789919
1.0029190855580832,0.25636899888384335,0.18242013723949643,0.15380629462607742,0.16906862406479187,0.13053713793182603
1.0029661675832136,0.31832235074100634,0.2264037097460993,0.19704252226634572,0.19456891640144372,0.1717037522600123
1.003013249608344,0.36361141655314383,0.25220856599005864,0.228525784613192,0.21054891177352675,0.20242587578379564
1.0030603316334743,0.39341420767750745,0.2680206756876903,0.24979870354304085,0.22003748611494173,0.22352595403823278
1.0031074136586047,0.4102870696014962,0.2755321890993998,0.26258314989231946,0.22354477768092462,0.23646945995454455
1.003154495683735,0.41662904201390033,0.27693841853332496,0.266777273312063,0.22239746186690404,0.24091164449981273
1.0032015777088654,0.41405085665469693,0.27271847344736844,0.26326150551395927,0.21646900730194088,0.2377608811623531
1.0032486597339958,0.4030953535584088,0.26275543248952854,0.251751202986526,0.20556352565153632,0.2268200361625117
1.0032957417591262,0.38301151602067063,0.24680023777787297,0.2324239377319079,0.18964709385628784,0.20844596367244234
1.0033428237842565,0.3514583105172215,0.22421205831600513,0.2047530276495091,0.16842608779461024,0.1823714678610512
1.003389905809387,0.3042863356687068,0.19476925945918366,0.16911475512504195,0.14238220260766227,0.14921113288242294
1.0034369878345173,0.2364892670841809,0.159206396173389,0.12615890065588273,0.11224372602850437,0.10977021935009894
1.0034840698596477,0.14805992805189566,0.1200011491747621,0.07745804013496241,0.08100508448609524,0.06532987870659464
1.003531151884778,0.05937981673678241,0.09159906261832104,0.035632586371168055,0.060260692102311664,0.02667172768375278
1.0035782339099084,0.016571701488668728,0.0890468276790409,0.012038086514572617,0.06307991779556638,0.0028620674633029947
1.0036253159350388,0.04141534161646615,0.12114251033025941,0.014399178728297872,0.09712736646068901,0.0003060981782192031
1.0036723979601692,0.0978579156313711,0.17431896777483816,0.03595348541122598,0.15079821394745757,0.014110354313441398
1.0037194799852995,0.14599333246590304,0.23492773390594957,0.06503465797160808,0.21285222003843238,0.034708113991440775
1.00376656201043,0.17300879075255565,0.2865260585001449,0.0922030709843016,0.26849905077496616,0.05502344657594713
1.0038136440355603,0.18229222765708752,0.3246965169570526,0.11374971918924169,0.30900296394981414,0.07229333712128069
1.0038607260606907,0.18262972424027749,0.34801892410373664,0.12736778710133306,0.3371356483652424,0.08327460860460577
1.003907808085821,0.18292620727983336,0.3586804234055626,0.13485525602086357,0.35464494693509874,0.08922931511197502
1.0039548901109514,0.18798821740501145,0.36210836753379994,0.13913083302593265,0.360586647940383,0.09315093068102769
1.0040019721360818,0.19658928748535154,0.3581680061382644,0.1397247738744464,0.357064222866391,0.09419102382050674
1.0040490541612122,0.20361099360789395,0.3489068368465353,0.1356935801867525,0.34451097760641364,0.0913015059106049
1.0040961361863425,0.20356945018764083,0.33137854202463407,0.1287855413388881,0.3242716303292742,0.08631643956562181
1.004143218211473,0.19261735903368254,0.3028332144392398,0.11776025800915435,0.29563672037028127,0.07817012891945473
1.0041903002366033,0.1692114287165738,0.26379634724344153,0.09836742477706704,0.2579045330962911,0.06279354930618873
1.0042373822617336,0.13469585530973552,0.2190855419725298,0.07519967777083232,0.21513863622895818,0.04474327306688785
1.004284464286864,0.094068350002802,0.17706068634116914,0.051842634052145065,0.1726737745733986,0.026975288021336467
1.0043315463119944,0.0558705414627791,0.14089862681532295,0.03082107495389939,0.13397451785246847,0.011380266907438572
1.0043786283371248,0.029785725493520713,0.11783496464042481,0.019809015244991575,0.10603729171254918,0.004406192787906327
1.0044257103622551,0.022326134922130727,0.10788191671077453,0.01684685304795892,0.09028069280935981,0.003726171836267752
1.0044727923873855,0.03362727707623793,0.10945402912408768,0.01768087969631584,0.08783648490541618,0.004906610160317146
1.004519874412516,0.057935866130881315,0.12056028814742181,0.0238553638180855,0.09664594884534895,0.009782539070786446
1.0045669564376463,0.08691312585069338,0.14200102832860087,0.038233159934289905,0.11720477514288573,0.021176108472097707
1.0046140384627766,0.11302745450084833,0.16930884684904357,0.05542672474865837,0.1461240048062329,0.03430264758400636
1.004661120487907,0.13143773576861661,0.19533601305841292,0.07126698378066398,0.17621577330333787,0.04607773830623861
1.0047082025130374,0.140315951549541,0.21554679049050648,0.0817840112464661,0.20194875528651282,0.0532329184934242
1.0047552845381678,0.14016084842095028,0.22558545055774776,0.0846685751900148,0.21936912030113187,0.05382819592767297
1.0048023665632981,0.13271042804166153,0.22441972431633828,0.08028160564993014,0.22579394382937729,0.04848095678814468
1.0048494485884285,0.1199532079956697,0.21451886261947242,0.06958311394397716,0.22436664407212126,0.037748068031756066
1.0048965306135589,0.10352759540252561,0.1967008010817889,0.05738407400153901,0.21311804067217954,0.02688916178469919
1.0049436126386893,0.08458770500586026,0.17283791428516002,0.04469505929439128,0.1944891119638186,0.016664850479282105
1.0049906946638196,0.06411017510052013,0.14889539639660557,0.03435472552873721,0.17323377804609025,0.009283639080508688
1.00503777668895,0.043500849939608656,0.12592256977432315,0.022887706523455283,0.1506457838922187,0.0010366421549901205
1.0050848587140804,0.02497562650004661,0.10371149369852943,0.013888116903115118,0.12643569912315136,-0.00444536159565731
1.0051319407392107,0.011013597455985432,0.08795575508403825,0.011624969459267675,0.10562920445490279,-0.003682889856185846
1.0051790227643411,0.003334338693202587,0.07403117324913522,0.009001101837417943,0.08664077200828882,-0.0035461152725047747
1.0052261047894715,0.0027948227754708652,0.05747643586903743,0.005716764128480125,0.06673903311763907,-0.00393436905648393
1.0052731868146019,0.010164673003053454,0.04213683981749519,0.005314070387151807,0.047309959321959895,-0.0015360105836749918
1.0053202688397322,0.026566180290056158,0.031509066788166874,0.008193549268036414,0.03162500528993964,0.0035695522027993872
1.0053673508648626,0.05291846997433676,0.02597079402934053,0.011498759854167706,0.022216377793148803,0.00819198556745765
1.005414432889993,0.08828034555015178,0.02607067525253714,0.017065936640710815,0.01729574470175699,0.014408656239807905
1.0054615149151234,0.12763762777320273,0.02969779806251309,0.025647230237824777,0.01710754626565475,0.022930602606066164
1.0055085969402537,0.16155770115500132,0.03781769428827332,0.038076850744054896,0.024462139471093203,0.03418725632246488
1.0055556789653841,0.18078890709766565,0.04737061264704142,0.05135766337998839,0.03675046196817109,0.045598854608978945
1.0056027609905145,0.18307418566708303,0.05462015499784978,0.06056084021799014,0.049961033959022454,0.052861503574509916
1.0056498430156449,0.1741533504439713,0.05893001838265586,0.06655908741414072,0.0585922284147731,0.057605611969569336
1.0056969250407752,0.16242605985016223,0.0613625519555025,0.07063087442771013,0.06508082731423245,0.06074542320407425
1.0057440070659056,0.15418810481596457,0.0628390342779626,0.07107575192890922,0.0695137121625347,0.060571235152627766
1.005791089091036,0.1523552110015489,0.062067983576483285,0.0660360559428213,0.0708551331250382,0.055374688734453795
1.0058381711161664,0.15691036178882456,0.06176953688404948,0.06130313889977103,0.07141670991413898,0.05059172299633218
1.0058852531412967,0.16538784679386007,0.06605565911112472,0.06307528196508604,0.07366176737903812,0.05203983327540127
1.005932335166427,0.17322460684996496,0.06836556541700363,0.06323184659303546,0.07529595269573142,0.05196749824567274
1.0059794171915575,0.17475929729964576,0.06670486972377304,0.05880087400333982,0.07299221357104585,0.047884108158654355
1.0060264992166879,0.16548577922015562,0.062115721303770965,0.05204155960234529,0.0669826350311567,0.0420112219905529
1.0060735812418182,0.1445721481217929,0.05507459035466833,0.04234591607178599,0.05779611670611125,0.033682813425912
1.0061206632669486,0.11538472372115638,0.04913220228495635,0.03266210113426135,0.0475278860406373,0.025536752989846947
1.006167745292079,0.08342022676517998,0.04290684738665242,0.0259645785337829,0.03780521014786465,0.020285945751260966
1.0062148273172093,0.053714935068683495,0.03941914440187989,0.01794830890199036,0.031256973483210417,0.013282214132887027
1.0062619093423397,0.029620632829972474,0.03546159223445657,0.006428025048282717,0.026573088819384468,0.002546730425593378
1.00630899136747,0.012907514843990737,0.03212909655365647,-0.004503164505502606,0.025195593113005565,-0.008076747705315288
1.0063560733926005,0.004292560353454192,0.0327068352351629,-0.010519166817943732,0.029030884091617467,-0.014583951841672587
1.0064031554177308,0.0038095921685766332,0.03874519763274645,-0.007972360122875525,0.03722667428306042,-0.013243491400438505
1.0064502374428612,0.010924293923755681,0.055534671641094206,0.0013341291502741227,0.05656614239625162,-0.0068129334291144655
1.0064973194679916,0.02453035587728399,0.07479500410633073,0.011333716656649779,0.07947705569694324,-0.00019596378304889976
1.006544401493122,0.042966387475684646,0.092723198318481,0.020787738978896356,0.10205195175644607,0.005953819389604325
1.0065914835182523,0.06411092062196938,0.1086430155537383,0.03329944681240632,0.11945059564294824,0.015932473962792848
1.0066385655433827,0.08556714248621351,0.12459707465317503,0.049462130528264495,0.1331936708934303,0.030138852063751703
1.006685647568513,0.10493697207975199,0.13842593072710294,0.06485229624100503,0.14309828935251762,0.04417968142920415
1.0067327295936435,0.12014720761669652,0.14696595163830123,0.07640706666955516,0.14756668154746846,0.05516819086345513
1.0067798116187738,0.12974860817624662,0.1494013030886252,0.08294186479002422,0.14534031948231013,0.06203658638386382
1.0068268936439042,0.1331160769266914,0.14677083570310806,0.08436945777741765,0.13651629510094265,0.06466218069922768
1.0068739756690346,0.13051634907150206,0.13799940392220514,0.08386978816652868,0.12345314178069312,0.0659288039756507
1.006921057694165,0.12301693370584733,0.12272723733330511,0.08185258015702256,0.10746230745925217,0.06608500073376057
1.0069681397192953,0.11219272060745543,0.10347066027053478,0.07585112215539112,0.08872071993770092,0.06266648852680708
1.0070152217444257,0.09964098937742749,0.0835247692750714,0.06985230351433948,0.06850249939666887,0.05949565035117085
1.007062303769556,0.08648287672211809,0.06586371437927623,0.06302251331950957,0.05050179514112686,0.05522810259044042
1.0071093857946865,0.07315337862299943,0.05196775263255279,0.053521194673379444,0.0354669022186802,0.047924837748963
1.0071564678198168,0.05967551136841471,0.04200919380095546,0.042771215350936226,0.024340086605044605,0.038853841023780575
1.0072035498449472,0.046352747241279996,0.03252292759555512,0.029687677967592516,0.01603388309522644,0.027084170763241416
1.0072506318700776,0.03458526276589038,0.02753411835694628,0.01916866027493343,0.012836924367043293,0.017129107976863407
1.007297713895208,0.02727830692374265,0.027503263811643124,0.01473006896934623,0.013910096687450808,0.012581833515602195
1.0073447959203383,0.0280866607277734,0.034922761873478037,0.01711698325886342,0.020749469493119503,0.01396425159377832
1.0073918779454687,0.03925806445151868,0.05318780546592845,0.028584290137595406,0.03647021599484965,0.02307198238568099
1.007438959970599,0.059562255279517966,0.07630897379243007,0.043832242766228824,0.05612503598562175,0.035394220390975006
1.0074860419957294,0.08449757331606145,0.09826121864925515,0.058037587268334905,0.07577066248652975,0.046736371548813
1.0075331240208598,0.10858230355013457,0.11539439961483788,0.06858033205585247,0.09357769773354657,0.0547510780239543
1.0075802060459902,0.12742598805780986,0.12619400345759607,0.07621925524513734,0.10481747632087393,0.06082126219149473
1.0076272880711206,0.13840784538629322,0.12809728169240303,0.07904744927672683,0.10869440939424072,0.0631147017590108
1.007674370096251,0.14057521646913557,0.12288839591854091,0.0769603579802706,0.10787298636862427,0.06114243431706327
1.0077214521213813,0.1345761316442056,0.11298249519088537,0.07084930100861353,0.10125531047316107,0.05595242322958589
1.0077685341465117,0.12269802495893224,0.09788440459727991,0.062425783036096825,0.08926319922207254,0.049219029108122765
1.007815616171642,0.10844877640211482,0.0814135315215346,0.054884533548136764,0.0744362180034513,0.043788805015857135
