freq,gls,usurper,pdc_unbiased,shape_periodogram,shift_periodogram
1.0,0.02176245538732735,0.03776932081455481,-0.007335655112181927,0.02566626102208736,-0.010260134651937152
1.0000470820251304,0.05134779247241603,0.06729414483779088,0.016081221596065367,0.047992953554017996,0.010431703712663875
1.0000941640502607,0.09689124580742478,0.10121360420513285,0.05094334186944231,0.07933792305273554,0.04157894415303505
1.0001412460753911,0.14848755125694818,0.13677731724705858,0.08456655871201842,0.11472752046342345,0.07131105437091002
1.0001883281005215,0.19664060203551523,0.16887976512733693,0.10917973127593883,0.15034669683492108,0.09235407254200945
1.0002354101256519,0.23592916525893703,0.1926704170039933,0.12678225514793529,0.17781434684422706,0.10746999188919407
1.0002824921507822,0.26363730657080775,0.20800589162312325,0.13936052532630389,0.19607165570873955,0.11856908672781837
1.0003295741759126,0.2780607972143743,0.21753948117555622,0.14663287491158739,0.20752332985141422,0.12497366025499355
1.000376656201043,0.27778293516045677,0.22109430102526842,0.14742341655727248,0.21311695751551377,0.12528906298357717
1.0004237382261734,0.2619162710265795,0.21682372349351733,0.139633635428265,0.21255781693032574,0.11734862821589984
1.0004708202513037,0.23107843684954268,0.20439228767578846,0.12167319492364326,0.2043799435982623,0.09972000316943341
1.0005179022764341,0.1884924826566669,0.18752042210188272,0.09811663264576473,0.1923452027197782,0.07687825312774745
1.0005649843015645,0.1401213853463462,0.1753351384177323,0.07552593926328457,0.18362192695336246,0.05483093353813816
1.0006120663266949,0.09311329616242185,0.16881940708011203,0.056936636782797936,0.17834018198041696,0.03656594629217847
1.0006591483518252,0.05338098213176131,0.16847756795591198,0.04656239048066332,0.17486891949882716,0.026457968266323538
1.0007062303769556,0.024158292773911582,0.16772715339179778,0.0379052596807291,0.16967489710895617,0.018300856664353913
1.000753312402086,0.006389706849983347,0.16291255004667016,0.024925530867037873,0.15928875316094698,0.006410508149400344
1.0008003944272164,4.4957735270936574e-05,0.15853854428180794,0.013623927240606612,0.14825737193553237,-0.0036669645623145335
1.0008474764523467,0.004476680458159687,0.15573891478646223,0.005279248516488982,0.14546834786725735,-0.01171726682820019
1.000894558477477,0.016631009383087918,0.16374410583288568,0.00604487589630294,0.15330751709811763,-0.011879862112574536
1.0009416405026075,0.030279800796216314,0.18395816091352454,0.01614856324889533,0.1727298624187643,-0.00401078806139715
1.0009887225277379,0.04019506929021177,0.21212370974917588,0.031662352407458065,0.20148011842110242,0.008315206790154288
1.0010358045528682,0.045271217739530065,0.23929843128554443,0.049643587368788454,0.23368350116904751,0.02295267433962322
1.0010828865779986,0.04665854735345898,0.25981095192768483,0.06394396252727896,0.2611797681937646,0.03459491512745704
1.001129968603129,0.04557434040645729,0.2697871032257148,0.06951556918541625,0.27719298577410156,0.038617593199025226
1.0011770506282593,0.04281463251624272,0.2664584301179453,0.06676401531502141,0.2789343510748881,0.03556834406612216
1.0012241326533897,0.03911406922799136,0.2519275405348811,0.05756222886158259,0.2687124304091222,0.027157313861780066
1.00127121467852,0.035734840091298535,0.23134165676283955,0.04469056838221148,0.25209938285903777,0.015762512476950236
1.0013182967036505,0.034632288517627896,0.2152656857231963,0.03354469161607427,0.2393547498049328,0.0058024001208091544
1.0013653787287808,0.03686446430802818,0.21358326396768254,0.03235087082016887,0.237379898915499,0.004812173355849555
1.0014124607539112,0.040499198873267514,0.22518916788316448,0.04235422606047071,0.2466921142822584,0.013984805002111102
1.0014595427790416,0.04245011553894062,0.2418260537094062,0.05148956578485458,0.26161955709914647,0.021680406499086275
1.001506624804172,0.04142424671447975,0.25344233400945226,0.057489670337512934,0.27052051305610714,0.026879286851574254
1.0015537068293023,0.03772147907862947,0.2554509266927486,0.05838903434484734,0.2677182658910845,0.028124506587185464
1.0016007888544327,0.032149333674356434,0.24521010009838165,0.05286952532393206,0.251668115361661,0.024231388030651703
1.001647870879563,0.025799799790141527,0.22221212738121832,0.040386054375886556,0.22257357834359665,0.014754072684318133
1.0016949529046935,0.020580986012262138,0.1906636944061805,0.02276083148008517,0.1870566343563958,0.0009801026076510719
1.0017420349298238,0.01993155776046648,0.16611127990374172,0.008396000375120035,0.15848810761359652,-0.010131919987421772
1.0017891169549542,0.027489951613850306,0.15781407625475946,0.00883020356959996,0.1497556855597928,-0.008659639524286899
1.0018361989800846,0.042074300128446054,0.16174616356473365,0.022145335055818467,0.15720363451793443,0.003854217129534145
1.001883281005215,0.05845891480384451,0.17693597153479795,0.04104344236602053,0.17609227004546224,0.02073982651707671
1.0019303630303453,0.07582159493280267,0.19354084632561497,0.05832937685591873,0.19648450244179155,0.03597238357188394
1.0019774450554757,0.09824195100672209,0.20146839668123515,0.07041397317164165,0.21152138975222062,0.04663776534871951
1.002024527080606,0.1303669711588208,0.19449407596966253,0.07896421651578898,0.21255452235786151,0.05525705124008991
1.0020716091057364,0.17464242099810953,0.18286500241572468,0.08832693698111686,0.2077009416554692,0.06532494620370582
1.0021186911308668,0.22917237164395338,0.18533206147917045,0.11355266104308831,0.21001335197779392,0.09087317500655791
1.0021657731559972,0.2864808872447173,0.19903402585294738,0.14880372324738836,0.22040506227660525,0.1260680679966047
1.0022128551811276,0.335488571803669,0.21329148788557584,0.17945522269565434,0.2316789013089463,0.15673121174637877
1.002259937206258,0.3667004160945303,0.22122061525177253,0.20044309409803335,0.23727964189065526,0.17803279044314066
1.0023070192313883,0.37630521047742305,0.22115339666849004,0.20989430295355302,0.2350837522498294,0.18797562357167236
1.0023541012565187,0.3658732131217113,0.21368724025547126,0.20800353236518512,0.2256553241253058,0.18666798733226286
1.002401183281649,0.3393357840705059,0.2012651852641207,0.19716291122807472,0.2105924579800028,0.17658780996132262
1.0024482653067794,0.30043566038503033,0.1846127188453543,0.1783931936762516,0.1886255552263535,0.1590906986708641
1.0024953473319098,0.25183659939415354,0.16211398977241348,0.15384153094853617,0.15823086195541838,0.13677591382820725
1.0025424293570402,0.1956066522565673,0.130156835207727,0.12081929242955049,0.11988472187840071,0.10717334889363679
1.0025895113821706,0.13475970805500284,0.08973454035144961,0.07564140824241966,0.07261194913510464,0.06697089072451101
1.002636593407301,0.07582916802294695,0.05203270694342403,0.025728531183742454,0.03036164042459465,0.022054660609260594
1.0026836754324313,0.03145358980808763,0.033273160181171775,-0.0040036080406334615,0.013199248403586862,-0.005504877335271205
1.0027307574575617,0.01779891286180085,0.03906940591811512,-0.006351274616742859,0.02713675275099165,-0.009452722645877877
1.002777839482692,0.04358985242398123,0.057189262329961084,0.006591376950054447,0.06017765241892234,-0.00041881588978371297
1.0028249215078224,0.1037077589167159,0.09250568300039652,0.04281328660270074,0.10127554448768793,0.03098691553625204
1.0028720035329528,0.18101238562213362,0.14014602705945775,0.0979436666785688,0.14329456553556755,0.08174167011434016
1.0029190855580832,0.25636899888384335,0.18343079674522345,0.15380629462607742,0.1773085746638354,0.1350011831925355
1.0029661675832136,0.31832235074100634,0.21430628311763425,0.19704252226634572,0.19844782463724261,0.17738888416106482
1.003013249608344,0.36361141655314383,0.232685679780078,0.228525784613192,0.210726381040744,0.2088549413240125
1.0030603316334743,0.39341420767750745,0.2427009794149781,0.24979870354304085,0.2163146979618514,0.2304393173120909
1.0031074136586047,0.4102870696014962,0.24634399679656224,0.26258314989231946,0.2175639112036343,0.24357352954348063
1.003154495683735,0.41662904201390033,0.24538073951419143,0.266777273312063,0.21487715339866192,0.2480561859561103
1.0032015777088654,0.41405085665469693,0.24015799564969625,0.26326150551395927,0.20832320300852686,0.24479866813252296
1.0032486597339958,0.4030953535584088,0.23050382493247032,0.251751202986526,0.19760781413963718,0.23359941647173307
1.0032957417591262,0.38301151602067063,0.21608385804839914,0.2324239377319079,0.18258286637086227,0.214792678499649
1.0033428237842565,0.3514583105172215,0.19634301368262244,0.2047530276495091,0.16296753856276922,0.1880596032662427
1.003389905809387,0.3042863356687068,0.17093033093720686,0.16911475512504195,0.13922178422147058,0.1539779192242834
1.0034369878345173,0.2364892670841809,0.14067848397024085,0.12615890065588273,0.11197104707438803,0.11334242220464777
1.0034840698596477,0.14805992805189566,0.10828560447041338,0.07745804013496241,0.08371774517011327,0.06756234858376126
1.003531151884778,0.05937981673678241,0.08610407299275613,0.035632586371168055,0.06458213935819691,0.027987997077007595
1.0035782339099084,0.016571701488668728,0.08609225501686088,0.012038086514572617,0.06503109257583765,0.004440362299677835
1.0036253159350388,0.04141534161646615,0.1144225603472196,0.014399178728297872,0.09214400688578704,0.003654178154323439
1.0036723979601692,0.0978579156313711,0.1610378870240457,0.03595348541122598,0.13805189712528373,0.019943124168427764
1.0037194799852995,0.14599333246590304,0.21492725914373192,0.06503465797160808,0.18946275273869345,0.043553418220700524
1.00376656201043,0.17300879075255565,0.2585497965229765,0.0922030709843016,0.23412544690694728,0.06658287393794192
1.0038136440355603,0.18229222765708752,0.2877283385522059,0.11374971918924169,0.26369647585075706,0.08593556482573578
1.0038607260606907,0.18262972424027749,0.3027990296380366,0.12736778710133306,0.28204431256192686,0.09844089016016021
1.003907808085821,0.18292620727983336,0.30875741602398177,0.13485525602086357,0.2925174879237149,0.10537107560451828
1.0039548901109514,0.18798821740501145,0.3098405878774849,0.13913083302593265,0.29598081794946185,0.10957009427683065
1.0040019721360818,0.19658928748535154,0.30460737685417605,0.1397247738744464,0.2930776182158579,0.11043788666043777
1.0040490541612122,0.20361099360789395,0.29383312064180656,0.1356935801867525,0.28525565929174634,0.10687323011598085
1.0040961361863425,0.20356945018764083,0.2764772962315481,0.1287855413388881,0.271658797643698,0.10084610894187483
1.004143218211473,0.19261735903368254,0.2531618110301057,0.11776025800915435,0.2527136130293269,0.09112746811757311
1.0041903002366033,0.1692114287165738,0.22196119761850794,0.09836742477706704,0.22538155556972136,0.07379781098695533
1.0042373822617336,0.13469585530973552,0.18634904542798586,0.07519967777083232,0.1921902418513885,0.05358453587831207
1.004284464286864,0.094068350002802,0.15163374339186714,0.051842634052145065,0.15827428933150534,0.03364936271195879
1.0043315463119944,0.0558705414627791,0.12080704458832933,0.03082107495389939,0.1256169313371036,0.01621524607776191
1.0043786283371248,0.029785725493520713,0.10101393898355826,0.019809015244991575,0.10054365818436244,0.008082988917874335
1.0044257103622551,0.022326134922130727,0.0923452125876216,0.01684685304795892,0.08543219546257705,0.00687259661174938
1.0044727923873855,0.03362727707623793,0.09352341255771225,0.01768087969631584,0.08174499722761827,0.00813014074085581
1.004519874412516,0.057935866130881315,0.10294693360824281,0.0238553638180855,0.08808117434672763,0.013558256798595672
1.0045669564376463,0.08691312585069338,0.12097050243094927,0.038233159934289905,0.10574976130514789,0.02590053792101087
1.0046140384627766,0.11302745450084833,0.14442348541139344,0.05542672474865837,0.1328807777621642,0.040082143415609575
1.004661120487907,0.13143773576861661,0.1676703512710022,0.07126698378066398,0.16251246107343795,0.052787417433881205
1.0047082025130374,0.140315951549541,0.18722990513458876,0.0817840112464661,0.1892170630957611,0.060591460124092424
1.0047552845381678,0.14016084842095028,0.19695962339267334,0.0846685751900148,0.2082272554787773,0.06153583838199875
1.0048023665632981,0.13271042804166153,0.1968426211969003,0.08028160564993014,0.21761633179719078,0.05606972039260916
1.0048494485884285,0.1199532079956697,0.1890944219001914,0.06958311394397716,0.21941642386513935,0.04493771197033902
1.0048965306135589,0.10352759540252561,0.17760902806925416,0.05738407400153901,0.21267488648239657,0.03321838416141753
1.0049436126386893,0.08458770500586026,0.1616626088096041,0.04469505929439128,0.19857537137623743,0.021885621659136878
1.0049906946638196,0.06411017510052013,0.14560557602546514,0.03435472552873721,0.1806715921985354,0.013452289544928319
1.00503777668895,0.043500849939608656,0.12746193352750637,0.022887706523455283,0.15986391113892998,0.004291505486224676
1.0050848587140804,0.02497562650004661,0.10716674147602134,0.013888116903115118,0.13572559486216443,-0.0019313511794626815
1.0051319407392107,0.011013597455985432,0.09022113173918313,0.011624969459267675,0.11291575961138534,-0.001531634387347522
1.0051790227643411,0.003334338693202587,0.07444290422089804,0.009001101837417943,0.08918950816039327,-0.0013878208693398654
1.0052261047894715,0.0027948227754708652,0.05512490470060476,0.005716764128480125,0.06268206014499422,-0.00157981870108161
1.0052731868146019,0.010164673003053454,0.03831692697910511,0.005314070387151807,0.03905658911807547,0.0007583940420625014
1.0053202688397322,0.026566180290056158,0.02687798053056384,0.008193549268036414,0.02148299647453739,0.005653413570707386
1.0053673508648626,0.05291846997433676,0.020811371409154757,0.011498759854167706,0.01168375357892523,0.01007006937683937
1.005414432889993,0.08828034555015178,0.01869314353098662,0.017065936640710815,0.007631851451783791,0.01606874730064213
1.0054615149151234,0.12763762777320273,0.020637346830693428,0.025647230237824777,0.009377140529902978,0.024391690568781762
1.0055085969402537,0.16155770115500132,0.027804487839220193,0.038076850744054896,0.020055406090999053,0.035511797804054814
1.0055556789653841,0.18078890709766565,0.037959673510984,0.05135766337998839,0.036187675557570645,0.04687050888639528
1.0056027609905145,0.18307418566708303,0.046156645902892,0.06056084021799014,0.05346371786876929,0.05407447164365853
1.0056498430156449,0.1741533504439713,0.053424483655732595,0.06655908741414072,0.06820015357526375,0.058401188508575765
1.0056969250407752,0.16242605985016223,0.05925848235892912,0.07063087442771013,0.08102311552865032,0.061040800891404914
1.0057440070659056,0.15418810481596457,0.06195086301853752,0.07107575192890922,0.0899877211965175,0.06049628480600087
1.005791089091036,0.1523552110015489,0.061203065879645704,0.0660360559428213,0.09412614945960882,0.05500223588435976
1.0058381711161664,0.15691036178882456,0.06160123337110728,0.06130313889977103,0.09565678395392527,0.05010107743982104
1.0058852531412967,0.16538784679386007,0.06528289781213736,0.06307528196508604,0.09618620020428773,0.05181413264409411
1.005932335166427,0.17322460684996496,0.06718812825293981,0.06323184659303546,0.09426160866720515,0.052183938562594706
1.0059794171915575,0.17475929729964576,0.06468524749258617,0.05880087400333982,0.0880715208396275,0.04844456805567941
1.0060264992166879,0.16548577922015562,0.05960760587403203,0.05204155960234529,0.07940613239756883,0.04266700727069797
1.0060735812418182,0.1445721481217929,0.0529568508060357,0.04234591607178599,0.06816366184486823,0.03426906305871062
1.0061206632669486,0.11538472372115638,0.04743289211337812,0.03266210113426135,0.057387574905968006,0.025851534687485443
1.006167745292079,0.08342022676517998,0.04446317679240445,0.0259645785337829,0.04881906538287086,0.020168143313302377
1.0062148273172093,0.053714935068683495,0.04503515430480789,0.01794830890199036,0.043644256267183185,0.012790077732083798
1.0062619093423397,0.029620632829972474,0.04594254968287219,0.006428025048282717,0.04081696515756182,0.0016619683192715272
1.00630899136747,0.012907514843990737,0.045613803955702165,-0.004503164505502606,0.038780789081518025,-0.008968020264833922
1.0063560733926005,0.004292560353454192,0.04769954014298066,-0.010519166817943732,0.03988316887667006,-0.015075613550878001
1.0064031554177308,0.0038095921685766332,0.05252669905222719,-0.007972360122875525,0.04326393022997565,-0.01293765366056855
1.0064502374428612,0.010924293923755681,0.06529209920493793,0.0013341291502741227,0.055368553305104165,-0.0050912253979843
1.0064973194679916,0.02453035587728399,0.07980429598489348,0.011333716656649779,0.07138038908219432,0.003003976133679822
1.006544401493122,0.042966387475684646,0.09299339490188192,0.020787738978896356,0.0874836199730379,0.010566601176699698
1.0065914835182523,0.06411092062196938,0.10411482878884777,0.03329944681240632,0.1008818304150548,0.021522240378457447
1.0066385655433827,0.08556714248621351,0.11653116102035145,0.049462130528264495,0.11310047321728245,0.03630823025597325
1.006685647568513,0.10493697207975199,0.12572550504736532,0.06485229624100503,0.122491365667466,0.05069148650405346
1.0067327295936435,0.12014720761669652,0.1300844830537115,0.07640706666955516,0.12738900796381625,0.06175737343551929
1.0067798116187738,0.12974860817624662,0.1286156967809135,0.08294186479002422,0.12625034580778832,0.06844444791976491
1.0068268936439042,0.1331160769266914,0.1236627166843836,0.08436945777741765,0.11937345848291642,0.07061484290242585
1.0068739756690346,0.13051634907150206,0.11478224116085804,0.08386978816652868,0.10945544744077265,0.07117944942471753
1.006921057694165,0.12301693370584733,0.10140849780591643,0.08185258015702256,0.09527089917695641,0.0706940764073161
1.0069681397192953,0.11219272060745543,0.08493496309426557,0.07585112215539112,0.07864032118374222,0.06651557443003137
1.0070152217444257,0.09964098937742749,0.06798268648680506,0.06985230351433948,0.061668560718347795,0.06241198480781128
1.007062303769556,0.08648287672211809,0.05416555723803208,0.06302251331950957,0.047806545246613374,0.05716209157123092
1.0071093857946865,0.07315337862299943,0.04362561676472324,0.053521194673379444,0.0369404881602378,0.048936834065168834
1.0071564678198168,0.05967551136841471,0.03585046694782949,0.042771215350936226,0.028999530884304958,0.039152539091379474
1.0072035498449472,0.046352747241279996,0.03000242946098275,0.029687677967592516,0.024302115896481145,0.02668667164245515
1.0072506318700776,0.03458526276589038,0.027873353579524716,0.01916866027493343,0.02347271810441781,0.01632879299085437
1.007297713895208,0.02727830692374265,0.03016596382289465,0.01473006896934623,0.0253531457694267,0.011701109986888383
1.0073447959203383,0.0280866607277734,0.03869050420095488,0.01711698325886342,0.03274340674304721,0.013220471762492022
1.0073918779454687,0.03925806445151868,0.056778387840564055,0.028584290137595406,0.04859986070127623,0.022799598890914333
1.007438959970599,0.059562255279517966,0.07949552947175992,0.043832242766228824,0.06801598828136107,0.03576698387368119
1.0074860419957294,0.08449757331606145,0.10123281928127136,0.058037587268334905,0.08872377249873863,0.04760941895693565
1.0075331240208598,0.10858230355013457,0.11879269798014062,0.06858033205585247,0.10696348838139393,0.056133549202182845
1.0075802060459902,0.12742598805780986,0.12924272159621547,0.07621925524513734,0.11851684093628691,0.06252905803494312
1.0076272880711206,0.13840784538629322,0.13178389576592814,0.07904744927672683,0.12277309716110148,0.06490714508481109
1.007674370096251,0.14057521646913557,0.12610568179990075,0.0769603579802706,0.12088379908321896,0.06301632029343182
1.0077214521213813,0.1345761316442056,0.11450075021932957,0.07084930100861353,0.11285966933937078,0.05776050162572137
1.0077685341465117,0.12269802495893224,0.09812841300908309,0.062425783036096825,0.09869871889913191,0.05088625473620883
1.007815616171642,0.10844877640211482,0.08153047188319713,0.054884533548136764,0.08097023133548861,0.045328378573383094
