freq,gls,usurper,pdc_unbiased,shape_periodogram,shift_periodogram
1.0,0.02176245538732735,0.021825216890005526,-0.007335655112181927,-0.0001297600726515925,-0.007316781929443068
1.0000470820251304,0.05134779247241603,0.03713446444244017,0.016081221596065367,0.010654637417903996,0.015458374038599107
1.0000941640502607,0.09689124580742478,0.05350339363941148,0.05094334186944231,0.02862192543851203,0.049281353241658915
1.0001412460753911,0.14848755125694818,0.07005089740135834,0.08456655871201842,0.04550648102719608,0.0819883366873717
1.0001883281005215,0.19664060203551523,0.08306594714887154,0.10917973127593883,0.06061047956951659,0.10585549402667863
1.0002354101256519,0.23592916525893703,0.09050791764948929,0.12678225514793529,0.07070740869157643,0.12300848793803838
1.0002824921507822,0.26363730657080775,0.09242527948965448,0.13936052532630389,0.07521659474994791,0.13541433892204574
1.0003295741759126,0.2780607972143743,0.09299405214468008,0.14663287491158739,0.07736545809534662,0.1426138620488139
1.000376656201043,0.27778293516045677,0.09257880954585757,0.14742341655727248,0.07742433353300698,0.14340437101961004
1.0004237382261734,0.2619162710265795,0.0882131149570815,0.139633635428265,0.07562882763848572,0.13566982470024047
1.0004708202513037,0.23107843684954268,0.07937597536648226,0.12167319492364326,0.07096361884979117,0.11787548038787195
1.0005179022764341,0.1884924826566669,0.06808456872398401,0.09811663264576473,0.06443432080533432,0.09458829001873312
1.0005649843015645,0.1401213853463462,0.05942378740813559,0.07552593926328457,0.05827740925093956,0.07228233737923777
1.0006120663266949,0.09311329616242185,0.05407454506144321,0.056936636782797936,0.05194524972837859,0.054014957481221156
1.0006591483518252,0.05338098213176131,0.05385952608155147,0.04656239048066332,0.04496314634922164,0.044015246616085565
1.0007062303769556,0.024158292773911582,0.05412809788081694,0.0379052596807291,0.036918117614912344,0.03580008028129506
1.000753312402086,0.006389706849983347,0.05214230827675322,0.024925530867037873,0.027197032289285942,0.02336828533129021
1.0008003944272164,4.4957735270936574e-05,0.05197299590248291,0.013623927240606612,0.018130850479966737,0.012586188161786624
1.0008474764523467,0.004476680458159687,0.04934933098427076,0.005279248516488982,0.015236520107853622,0.00441549430258879
1.000894558477477,0.016631009383087918,0.051913888624022256,0.00604487589630294,0.01800180384865059,0.0050248820879626585
1.0009416405026075,0.030279800796216314,0.061392731800519844,0.01614856324889533,0.025795543373435544,0.014679320137334185
1.0009887225277379,0.04019506929021177,0.07526984011363141,0.031662352407458065,0.03931455297831086,0.029429597097397106
1.0010358045528682,0.045271217739530065,0.08896792453930503,0.049643587368788454,0.05518305748909948,0.04654678999276004
1.0010828865779986,0.04665854735345898,0.09501897551144327,0.06394396252727896,0.0708212048660688,0.060037824393540676
1.001129968603129,0.04557434040645729,0.09694031967034583,0.06951556918541625,0.0826503401023295,0.0650160163268389
1.0011770506282593,0.04281463251624272,0.091933392004869,0.06676401531502141,0.08870452114489703,0.0619498407479418
1.0012241326533897,0.03911406922799136,0.08244974857548508,0.05756222886158259,0.09034363687405488,0.0526339120311523
1.00127121467852,0.035734840091298535,0.07146410450544553,0.04469056838221148,0.08886049985909317,0.03979860370248905
1.0013182967036505,0.034632288517627896,0.06276393765438366,0.03354469161607427,0.08794490961834367,0.02866933077452517
1.0013653787287808,0.03686446430802818,0.06442554313036149,0.03235087082016887,0.0885203243580341,0.027441212487169308
1.0014124607539112,0.040499198873267514,0.07338475764812794,0.04235422606047071,0.09115365292669513,0.03733396241114918
1.0014595427790416,0.04245011553894062,0.08217784529741559,0.05148956578485458,0.09275038791992472,0.04641620119872018
1.001506624804172,0.04142424671447975,0.0867106694811998,0.057489670337512934,0.08949612375738672,0.05260468973393695
1.0015537068293023,0.03772147907862947,0.08578734817558185,0.05838903434484734,0.08206356968125708,0.053889879500420276
1.0016007888544327,0.032149333674356434,0.08155930952832154,0.05286952532393206,0.06938874045138974,0.04902111784579123
1.001647870879563,0.025799799790141527,0.07397633678541148,0.040386054375886556,0.05247446705219287,0.03743263417064784
1.0016949529046935,0.020580986012262138,0.061968998088102085,0.02276083148008517,0.03424206558102726,0.02081481691418844
1.0017420349298238,0.01993155776046648,0.05257039333364938,0.008396000375120035,0.02014937125534428,0.007252363194577834
1.0017891169549542,0.027489951613850306,0.049940325876206934,0.00883020356959996,0.016577319077609096,0.007886157110711915
1.0018361989800846,0.042074300128446054,0.05096390084110565,0.022145335055818467,0.02193389036014307,0.020884049404571205
1.001883281005215,0.05845891480384451,0.05719335145559223,0.04104344236602053,0.03305382707562319,0.03914765580146947
1.0019303630303453,0.07582159493280267,0.06655097507470566,0.05832937685591873,0.044426548333159066,0.055808855569014694
1.0019774450554757,0.09824195100672209,0.07447685697709835,0.07041397317164165,0.054221837478914604,0.0673775075420174
1.002024527080606,0.1303669711588208,0.07361523443254477,0.07896421651578898,0.06135350001908466,0.07556582684806025
1.0020716091057364,0.17464242099810953,0.06810666952070825,0.08832693698111686,0.06615723254613487,0.08469766617686895
1.0021186911308668,0.22917237164395338,0.07316784107681758,0.11355266104308831,0.07192239505097286,0.10969081867336493
1.0021657731559972,0.2864808872447173,0.08494098101479518,0.14880372324738836,0.07907332536451364,0.1447175181440663
1.0022128551811276,0.335488571803669,0.09672033500641539,0.17945522269565434,0.08573517859563971,0.17521420891559517
1.002259937206258,0.3667004160945303,0.1050838825461203,0.20044309409803335,0.08988308193689316,0.19614666245752327
1.0023070192313883,0.37630521047742305,0.10909908168475267,0.20989430295355302,0.09075296004562963,0.20561665359087314
1.0023541012565187,0.3658732131217113,0.10848175938651904,0.20800353236518512,0.08835904719452037,0.2038002761834819
1.002401183281649,0.3393357840705059,0.10390099541055212,0.19716291122807472,0.08240908223199297,0.1931272473427986
1.0024482653067794,0.30043566038503033,0.09630826308573873,0.1783931936762516,0.07273523239024048,0.17467162776401804
1.0024953473319098,0.25183659939415354,0.08572664157316132,0.15384153094853617,0.05884405943643742,0.15066764684063289
1.0025424293570402,0.1956066522565673,0.07090470231423511,0.12081929242955049,0.0428798478631052,0.11838109151801901
1.0025895113821706,0.13475970805500284,0.04962065791417047,0.07564140824241966,0.024773196715607196,0.07416523152650505
1.002636593407301,0.07582916802294695,0.02710310402407341,0.025728531183742454,0.00926901590075832,0.02516879549371691
1.0026836754324313,0.03145358980808763,0.02042408858967737,-0.0040036080406334615,0.002837789567802396,-0.004156720097110517
1.0027307574575617,0.01779891286180085,0.029753119622395675,-0.006351274616742859,0.010922851000301978,-0.006955244921272978
1.002777839482692,0.04358985242398123,0.033368899041866296,0.006591376950054447,0.02867319458642594,0.004972285592901031
1.0028249215078224,0.1037077589167159,0.04087176733968986,0.04281328660270074,0.046905697785215396,0.04016163918302503
1.0028720035329528,0.18101238562213362,0.0583202468761057,0.0979436666785688,0.0650501114828072,0.09438460079681596
1.0029190855580832,0.25636899888384335,0.08296387720896488,0.15380629462607742,0.0775333716548793,0.1498033548924306
1.0029661675832136,0.31832235074100634,0.10591632985445135,0.19704252226634572,0.07982425886623469,0.19310473614439758
1.003013249608344,0.36361141655314383,0.11760561949801426,0.228525784613192,0.08155754895475587,0.22465948387429763
1.0030603316334743,0.39341420767750745,0.12444165560795883,0.24979870354304085,0.08272139225439712,0.245993742120299
1.0031074136586047,0.4102870696014962,0.12668749085935294,0.26258314989231946,0.08159473857095756,0.25887610346801987
1.003154495683735,0.41662904201390033,0.12618511380517242,0.266777273312063,0.0789697655354829,0.26317168980324096
1.0032015777088654,0.41405085665469693,0.12293788166482238,0.26326150551395927,0.07442118753055701,0.2597854724592441
1.0032486597339958,0.4030953535584088,0.11695552339506674,0.251751202986526,0.06778126530557581,0.24845756990735823
1.0032957417591262,0.38301151602067063,0.10812913553365835,0.2324239377319079,0.05912981105919335,0.2293964618350287
1.0033428237842565,0.3514583105172215,0.09602005292886531,0.2047530276495091,0.04827108453180061,0.20212359232996135
1.003389905809387,0.3042863356687068,0.08039464432909078,0.16911475512504195,0.03552469589712627,0.16704588284114036
1.0034369878345173,0.2364892670841809,0.06203316683303902,0.12615890065588273,0.021402724720812876,0.12481684735366923
1.0034840698596477,0.14805992805189566,0.04181288899801234,0.07745804013496241,0.007323909795640874,0.07693072089718354
1.003531151884778,0.05937981673678241,0.02631943223450935,0.035632586371168055,-0.0030796620175660453,0.03574923437675341
1.0035782339099084,0.016571701488668728,0.021842266375624825,0.012038086514572617,-0.005102920612510159,0.012305847609262446
1.0036253159350388,0.04141534161646615,0.032691972648813,0.014399178728297872,0.004872276140970488,0.014102978660352984
1.0036723979601692,0.0978579156313711,0.05149473482264911,0.03595348541122598,0.0220339865429594,0.034669667481533537
1.0037194799852995,0.14599333246590304,0.07365490029890329,0.06503465797160808,0.0429581492984735,0.06259131975210629
1.00376656201043,0.17300879075255565,0.0910641848750643,0.0922030709843016,0.06344703833845787,0.08871520712125987
1.0038136440355603,0.18229222765708752,0.10486846874072418,0.11374971918924169,0.07831042852180567,0.1095872485744568
1.0038607260606907,0.18262972424027749,0.11392475730077524,0.12736778710133306,0.09059528820679368,0.12269565742655715
1.003907808085821,0.18292620727983336,0.11726847321687857,0.13485525602086357,0.10126312366152197,0.12976101863379794
1.0039548901109514,0.18798821740501145,0.11865362181568301,0.13913083302593265,0.10619340799742208,0.13385786286457688
1.0040019721360818,0.19658928748535154,0.11782022149367491,0.1397247738744464,0.10676727817152908,0.1344321651574019
1.0040490541612122,0.20361099360789395,0.11637988471543664,0.1356935801867525,0.10289274576447573,0.13053596983851473
1.0040961361863425,0.20356945018764083,0.11061705279259111,0.1287855413388881,0.09703095728088061,0.1238391137064562
1.004143218211473,0.19261735903368254,0.09823455244230436,0.11776025800915435,0.08777587458696406,0.113174816115442
1.0041903002366033,0.1692114287165738,0.08200371372613746,0.09836742477706704,0.07548904551566057,0.09429807473648581
1.0042373822617336,0.13469585530973552,0.06372276190598652,0.07519967777083232,0.06086838844172719,0.07182219256595576
1.004284464286864,0.094068350002802,0.046961855780557143,0.051842634052145065,0.04426449328451897,0.04933203513559777
1.0043315463119944,0.0558705414627791,0.03299990834203172,0.03082107495389939,0.027411520148440588,0.029245577328161656
1.0043786283371248,0.029785725493520713,0.024897662683019142,0.019809015244991575,0.013190125628601312,0.01903882132684177
1.0044257103622551,0.022326134922130727,0.02246552980349414,0.01684685304795892,0.0029801322883540433,0.016652981197571973
1.0044727923873855,0.03362727707623793,0.024896271161567132,0.01768087969631584,-0.001040386497634472,0.01771139522875037
1.004519874412516,0.057935866130881315,0.031446915796873955,0.0238553638180855,0.0009312904876421798,0.023765448347169066
1.0045669564376463,0.08691312585069338,0.04238804987127635,0.038233159934289905,0.009509636252734913,0.03764148525164792
1.0046140384627766,0.11302745450084833,0.05574842763166605,0.05542672474865837,0.023818227490143173,0.054022672780722335
1.004661120487907,0.13143773576861661,0.0676058411286777,0.07126698378066398,0.03955806177810268,0.0690027993096508
1.0047082025130374,0.140315951549541,0.07637178117796871,0.0817840112464661,0.054384174591655995,0.07874571935751272
1.0047552845381678,0.14016084842095028,0.07990732381816791,0.0846685751900148,0.06631997002944631,0.08102545773718262
1.0048023665632981,0.13271042804166153,0.07880759038800295,0.08028160564993014,0.07341136089648971,0.07627383030489569
1.0048494485884285,0.1199532079956697,0.07491214464137949,0.06958311394397716,0.078764552330362,0.06528087614261514
1.0048965306135589,0.10352759540252561,0.06768872105133882,0.05738407400153901,0.08004502578270446,0.05298695269526009
1.0049436126386893,0.08458770500586026,0.05760963573235686,0.04469505929439128,0.07739713856946731,0.04040936377981336
1.0049906946638196,0.06411017510052013,0.04842987646015466,0.03435472552873721,0.07250228668158427,0.030313561166975384
1.00503777668895,0.043500849939608656,0.039304574831695645,0.022887706523455283,0.06495839965934902,0.019245393532806934
1.0050848587140804,0.02497562650004661,0.03113079085465995,0.013888116903115118,0.05499528793206456,0.01079369359815572
1.0051319407392107,0.011013597455985432,0.026591504831248322,0.011624969459267675,0.04470797091571835,0.009104509306865164
1.0051790227643411,0.003334338693202587,0.023160037322549256,0.009001101837417943,0.03418301430164735,0.007070867066322989
1.0052261047894715,0.0027948227754708652,0.01761274060090244,0.005716764128480125,0.024807596917824724,0.00431547152140948
1.0052731868146019,0.010164673003053454,0.012192509856819026,0.005314070387151807,0.01543848298604804,0.004438932520677893
1.0053202688397322,0.026566180290056158,0.009161373025576203,0.008193549268036414,0.006001174691881916,0.007843649168397769
1.0053673508648626,0.05291846997433676,0.009014236631760635,0.011498759854167706,0.000955241621866277,0.011426954972356627
1.005414432889993,0.08828034555015178,0.012910512886452754,0.017065936640710815,-0.0008846015848064034,0.01708867353321612
1.0054615149151234,0.12763762777320273,0.017452869838061998,0.025647230237824777,0.00010299147447623691,0.02560097360976705
1.0055085969402537,0.16155770115500132,0.023008124159835636,0.038076850744054896,0.006300859367937486,0.03766434097797208
1.0055556789653841,0.18078890709766565,0.028498525571043914,0.05135766337998839,0.01688121448954529,0.05033923923563729
1.0056027609905145,0.18307418566708303,0.03202782891976342,0.06056084021799014,0.02908630027095098,0.05886506855864506
1.0056498430156449,0.1741533504439713,0.033889732157883004,0.06655908741414072,0.037717895213272484,0.06439472998112304
1.0056969250407752,0.16242605985016223,0.03439049579746821,0.07063087442771013,0.0444178302850263,0.06810942952994742
1.0057440070659056,0.15418810481596457,0.034003104145261025,0.07107575192890922,0.047751345596057704,0.06837861598915802
1.005791089091036,0.1523552110015489,0.03212682895031566,0.0660360559428213,0.047928344971401284,0.06332901982044811
1.0058381711161664,0.15691036178882456,0.03090235790329325,0.06130313889977103,0.04739066745513535,0.058624320309104166
1.0058852531412967,0.16538784679386007,0.03274982329966604,0.06307528196508604,0.046935554542806054,0.060420685716979526
1.005932335166427,0.17322460684996496,0.03208606632915442,0.06323184659303546,0.045014852695684456,0.060679328323459694
1.0059794171915575,0.17475929729964576,0.02970860092035554,0.05880087400333982,0.040981590276326085,0.05646478216135755
1.0060264992166879,0.16548577922015562,0.026899183841610035,0.05204155960234529,0.035535387213424835,0.05000255785699757
1.0060735812418182,0.1445721481217929,0.02335537852824692,0.04234591607178599,0.027978944731288837,0.04072733126219691
1.0061206632669486,0.11538472372115638,0.02011565362213876,0.03266210113426135,0.01861780944399475,0.03157174194194546
1.006167745292079,0.08342022676517998,0.016259028014301184,0.0259645785337829,0.009911216924029053,0.02536860211143585
1.0062148273172093,0.053714935068683495,0.014127773418002976,0.01794830890199036,0.0035043069753928667,0.0177233102862938
1.0062619093423397,0.029620632829972474,0.011516324511040493,0.006428025048282717,-0.0010439987183966195,0.0064765238874475205
1.00630899136747,0.012907514843990737,0.009952242983842079,-0.004503164505502606,-0.0017430110541073042,-0.004398143462660241
1.0063560733926005,0.004292560353454192,0.009876947791896797,-0.010519166817943732,0.0008533017591002409,-0.010550489165944905
1.0064031554177308,0.0038095921685766332,0.013291371574749331,-0.007972360122875525,0.005812348617476366,-0.008286405456637298
1.0064502374428612,0.010924293923755681,0.022379889127479655,0.0013341291502741227,0.017326581531847452,0.00035870141575983965
1.0064973194679916,0.02453035587728399,0.030964199964813182,0.011333716656649779,0.030424314776400566,0.009611367763514615
1.006544401493122,0.042966387475684646,0.038098585921404374,0.020787738978896356,0.04329808252009765,0.018341105976219928
1.0065914835182523,0.06411092062196938,0.04284958295797241,0.03329944681240632,0.05176538475714953,0.030383942760215978
1.0066385655433827,0.08556714248621351,0.048002595989106694,0.049462130528264495,0.05569465478459738,0.046337885810241786
1.006685647568513,0.10493697207975199,0.05303495484565491,0.06485229624100503,0.05631654024452144,0.06170302778435548
1.0067327295936435,0.12014720761669652,0.056114574712337426,0.07640706666955516,0.05459184438966673,0.07335471996111931
1.0067798116187738,0.12974860817624662,0.05651225199326715,0.08294186479002422,0.0506148198639853,0.08009855885902896
1.0068268936439042,0.1331160769266914,0.056879837975992616,0.08436945777741765,0.04447290528957959,0.0818449691330907
1.0068739756690346,0.13051634907150206,0.053452075858404904,0.08386978816652868,0.03734624711426551,0.08171833842601857
1.006921057694165,0.12301693370584733,0.04632320991399592,0.08185258015702256,0.031003193264781546,0.08003776050483738
1.0069681397192953,0.11219272060745543,0.03746640078776815,0.07585112215539112,0.02420118925305289,0.07440558921158702
1.0070152217444257,0.09964098937742749,0.029429879113606672,0.06985230351433948,0.017239061270718167,0.0687912026170346
1.007062303769556,0.08648287672211809,0.022763007184421064,0.06302251331950957,0.011187053763544728,0.062302487130279104
1.0071093857946865,0.07315337862299943,0.01868170013265622,0.053521194673379444,0.005902521500562123,0.05310765349810305
1.0071564678198168,0.05967551136841471,0.015934628791491257,0.042771215350936226,0.001361058281378609,0.04262757888893596
1.0072035498449472,0.046352747241279996,0.011647534654731223,0.029687677967592516,-0.0025558481242618104,0.029784325187859277
1.0072506318700776,0.03458526276589038,0.009274864267791191,0.01916866027493343,-0.004089847566896065,0.019368193815178486
1.007297713895208,0.02727830692374265,0.00865940117814272,0.01473006896934623,-0.004291301252596699,0.0149479472807115
1.0073447959203383,0.0280866607277734,0.011544292515535374,0.01711698325886342,-0.002346847089944737,0.017221790128852457
1.0073918779454687,0.03925806445151868,0.019957201556328515,0.028584290137595406,0.0034238524209274537,0.02834723903936116
1.007438959970599,0.059562255279517966,0.030452658292950147,0.043832242766228824,0.01106155328763128,0.043146129864221006
1.0074860419957294,0.08449757331606145,0.03973359921530454,0.058037587268334905,0.01876814067801943,0.05690708149744778
1.0075331240208598,0.10858230355013457,0.04633368569890595,0.06858033205585247,0.026818358291904987,0.06700027293946952
1.0075802060459902,0.12742598805780986,0.05115699939936165,0.07621925524513734,0.03212115819356821,0.07434851723435174
1.0076272880711206,0.13840784538629322,0.05227650832624105,0.07904744927672683,0.035107446464315975,0.07701626362676474
1.007674370096251,0.14057521646913557,0.050293371696557024,0.0769603579802706,0.03720700429158757,0.07481882310994568
1.0077214521213813,0.1345761316442056,0.04692874990218497,0.07084930100861353,0.03672918715925815,0.06873577933538495
1.0077685341465117,0.12269802495893224,0.04124365638155714,0.062425783036096825,0.03378056200212651,0.0604749556812147
