freq,gls,usurper,pdc_unbiased,shape_periodogram,shift_periodogram
1.0,0.02176245538732735,0.014952102117495928,-0.007335655112181927,0.004519828623191467,-0.007441095770233715
1.0000470820251304,0.05134779247241603,0.0213221978193138,0.016081221596065367,0.005838337207397409,0.0159382128642741
1.0000941640502607,0.09689124580742478,0.029097542515761465,0.05094334186944231,0.012588844239382595,0.05063487674336009
1.0001412460753911,0.14848755125694818,0.036836181659125236,0.08456655871201842,0.02225180872285039,0.08404014387916779
1.0001883281005215,0.19664060203551523,0.044926313437801346,0.10917973127593883,0.03482980570330697,0.10840090478126435
1.0002354101256519,0.23592916525893703,0.05188261546236623,0.12678225514793529,0.04452129240340272,0.1258366295937738
1.0002824921507822,0.26363730657080775,0.05501714072916672,0.13936052532630389,0.04948924762879641,0.13834552896006058
1.0003295741759126,0.2780607972143743,0.05730708339766064,0.14663287491158739,0.05227055299436426,0.14558406253950945
1.000376656201043,0.27778293516045677,0.058349990420516314,0.14742341655727248,0.053784824946812276,0.14635247259177656
1.0004237382261734,0.2619162710265795,0.05589002888128664,0.139633635428265,0.05402823496027368,0.13854608366252202
1.0004708202513037,0.23107843684954268,0.05061643765360335,0.12167319492364326,0.05188934685935359,0.12059290063385288
1.0005179022764341,0.1884924826566669,0.043665944569449985,0.09811663264576473,0.048199647703920524,0.09707142958749342
1.0005649843015645,0.1401213853463462,0.0382991417018368,0.07552593926328457,0.04429352849452796,0.07453337370714033
1.0006120663266949,0.09311329616242185,0.03449977292463406,0.056936636782797936,0.0389538696869802,0.05604140427435681
1.0006591483518252,0.05338098213176131,0.03345511196352541,0.04656239048066332,0.03130546102023728,0.045829854928869526
1.0007062303769556,0.024158292773911582,0.031878617250345534,0.0379052596807291,0.021932337190514604,0.037383269594326314
1.000753312402086,0.006389706849983347,0.030695252187284444,0.024925530867037873,0.011177600915827231,0.02465455893113288
1.0008003944272164,4.4957735270936574e-05,0.030933407654818605,0.013623927240606612,0.0020739324379820748,0.013570818699135234
1.0008474764523467,0.004476680458159687,0.0294177601880223,0.005279248516488982,-0.0006394625081865724,0.0052929585388970515
1.000894558477477,0.016631009383087918,0.03277256099922764,0.00604487589630294,0.0022993926777290993,0.005988524795166086
1.0009416405026075,0.030279800796216314,0.04093375549433285,0.01614856324889533,0.009824487598472079,0.015911308613233643
1.0009887225277379,0.04019506929021177,0.05168072483271728,0.031662352407458065,0.023192105491380666,0.03111125968885444
1.0010358045528682,0.045271217739530065,0.06006888423331804,0.049643587368788454,0.039687076466368786,0.04872785937737043
1.0010828865779986,0.04665854735345898,0.06534708392004426,0.06394396252727896,0.05575240985400775,0.0627057051767265
1.001129968603129,0.04557434040645729,0.06923485973994217,0.06951556918541625,0.06841446439236817,0.06803983477821343
1.0011770506282593,0.04281463251624272,0.0688751236525133,0.06676401531502141,0.07538000219477409,0.06514950146471347
1.0012241326533897,0.03911406922799136,0.06380558660306285,0.05756222886158259,0.0773912372546191,0.055882178324791844
1.00127121467852,0.035734840091298535,0.05640798648234274,0.04469056838221148,0.0763602490376878,0.04299322297055344
1.0013182967036505,0.034632288517627896,0.04965227763134688,0.03354469161607427,0.07487993592506,0.03184732475813169
1.0013653787287808,0.03686446430802818,0.04714310028789264,0.03235087082016887,0.07344483620782565,0.030681167996987422
1.0014124607539112,0.040499198873267514,0.049235306765474864,0.04235422606047071,0.07332517904298848,0.04071308663229771
1.0014595427790416,0.04245011553894062,0.052625082952030056,0.05148956578485458,0.07348678042123673,0.04986931904413012
1.001506624804172,0.04142424671447975,0.05338232845921976,0.057489670337512934,0.06858805802758376,0.05598225591339658
1.0015537068293023,0.03772147907862947,0.052664478445148856,0.05838903434484734,0.05934327880329016,0.05706915040005001
1.0016007888544327,0.032149333674356434,0.049507012856299014,0.05286952532393206,0.04647983615022257,0.05181007305928483
1.001647870879563,0.025799799790141527,0.04421193230305174,0.040386054375886556,0.029860635215670686,0.03968417933356464
1.0016949529046935,0.020580986012262138,0.03520129171897255,0.02276083148008517,0.013438904480521223,0.022437199750802873
1.0017420349298238,0.01993155776046648,0.03025583139360682,0.008396000375120035,0.001416214515139622,0.008359973192604377
1.0017891169549542,0.027489951613850306,0.02935219449150255,0.00883020356959996,-0.0009244619912474187,0.008849686080677772
1.0018361989800846,0.042074300128446054,0.02986759138257284,0.022145335055818467,0.003830936336395115,0.022048238365546525
1.001883281005215,0.05845891480384451,0.03562221877899243,0.04104344236602053,0.013983947900946673,0.04070423935459639
1.0019303630303453,0.07582159493280267,0.04300598650245012,0.05832937685591873,0.02621543099387108,0.057712661127056725
1.0019774450554757,0.09824195100672209,0.048485128572840534,0.07041397317164165,0.0405504467166648,0.06949414182260345
1.002024527080606,0.1303669711588208,0.04723112681913311,0.07896421651578898,0.051806909162197816,0.07782567150578891
1.0020716091057364,0.17464242099810953,0.042978972054591766,0.08832693698111686,0.05992451006274658,0.08704924993283417
1.0021186911308668,0.22917237164395338,0.04503093160202265,0.11355266104308831,0.0656268167776593,0.11222944965150071
1.0021657731559972,0.2864808872447173,0.05070946075242158,0.14880372324738836,0.07058857212362503,0.14749930923979346
1.0022128551811276,0.335488571803669,0.05638456574920607,0.17945522269565434,0.0747664245370327,0.17819608397868322
1.002259937206258,0.3667004160945303,0.05990263197638588,0.20044309409803335,0.07709483703311071,0.19923388572489759
1.0023070192313883,0.37630521047742305,0.060928713505738294,0.20989430295355302,0.07712165909262182,0.2087176885364376
1.0023541012565187,0.3658732131217113,0.05953685285591791,0.20800353236518512,0.07494709075721948,0.206835972183447
1.002401183281649,0.3393357840705059,0.05772081585320037,0.19716291122807472,0.0706429764211654,0.19599708462223192
1.0024482653067794,0.30043566038503033,0.05504187149895144,0.1783931936762516,0.0618602250986423,0.1772717541489012
1.0024953473319098,0.25183659939415354,0.049444577846882366,0.15384153094853617,0.0479849973347071,0.15287031130858597
1.0025424293570402,0.1956066522565673,0.03960924665328584,0.12081929242955049,0.03059632201945882,0.12012950117601134
1.0025895113821706,0.13475970805500284,0.02865465183593709,0.07564140824241966,0.011285441436154628,0.07535893586740422
1.002636593407301,0.07582916802294695,0.020585532353163686,0.025728531183742454,-0.0025252702063644724,0.025781318871583605
1.0026836754324313,0.03145358980808763,0.019802146188729237,-0.0040036080406334615,-0.0027510956616315927,-0.003937093417140205
1.0027307574575617,0.01779891286180085,0.02678794464393056,-0.006351274616742859,0.012353126939701494,-0.006643629468904085
1.002777839482692,0.04358985242398123,0.028577735331597295,0.006591376950054447,0.03464544908726097,0.005769425528625792
1.0028249215078224,0.1037077589167159,0.03710748039264078,0.04281328660270074,0.052402363264082596,0.04161589140215251
1.0028720035329528,0.18101238562213362,0.05100078509397712,0.0979436666785688,0.06358772846754705,0.0966197047991126
1.0029190855580832,0.25636899888384335,0.06667985070899467,0.15380629462607742,0.06746867420933154,0.15255550739393103
1.0029661675832136,0.31832235074100634,0.07852340708685931,0.19704252226634572,0.06647294687990557,0.1959159324568984
1.003013249608344,0.36361141655314383,0.08447527853695484,0.228525784613192,0.06581624500389756,0.2274879108359151
1.0030603316334743,0.39341420767750745,0.08667309362934503,0.24979870354304085,0.06358760877171679,0.24883180599221663
1.0031074136586047,0.4102870696014962,0.0858462053772659,0.26258314989231946,0.060389469435401265,0.2616685320704791
1.003154495683735,0.41662904201390033,0.08371790792921803,0.266777273312063,0.0564754477884696,0.26589918764112536
1.0032015777088654,0.41405085665469693,0.08004433975247331,0.26326150551395927,0.05152607968632749,0.2624165237923032
1.0032486597339958,0.4030953535584088,0.07486177795882988,0.251751202986526,0.04533069736270323,0.2509490673890923
1.0032957417591262,0.38301151602067063,0.06805127344649098,0.2324239377319079,0.03798004232094432,0.23168900305032877
1.0033428237842565,0.3514583105172215,0.05936136555076997,0.2047530276495091,0.029361682952701994,0.2041272108321004
1.003389905809387,0.3042863356687068,0.048515317282182675,0.16911475512504195,0.019810112508089252,0.16864954751507588
1.0034369878345173,0.2364892670841809,0.036176707968644556,0.12615890065588273,0.00972727420684046,0.12590392447081342
1.0034840698596477,0.14805992805189566,0.023462260067799622,0.07745804013496241,6.037356436247591e-05,0.07743485963864982
1.003531151884778,0.05937981673678241,0.015025954117326027,0.035632586371168055,-0.006638674749624402,0.035780831324525565
1.0035782339099084,0.016571701488668728,0.014185365497121833,0.012038086514572617,-0.008118748734098976,0.012228046130029648
1.0036253159350388,0.04141534161646615,0.023318821253376455,0.014399178728297872,-0.0009585802579393959,0.014417897489652597
1.0036723979601692,0.0978579156313711,0.0388546058986166,0.03595348541122598,0.012896672933277127,0.03564030464827108
1.0037194799852995,0.14599333246590304,0.056931541473414796,0.06503465797160808,0.02732543303660358,0.06439479029742878
1.00376656201043,0.17300879075255565,0.06929604265198434,0.0922030709843016,0.04134796896791324,0.09128408834834867
1.0038136440355603,0.18229222765708752,0.07917376209705106,0.11374971918924169,0.050348534364342064,0.11268510330293764
1.0038607260606907,0.18262972424027749,0.08469584073165515,0.12736778710133306,0.057298427506781456,0.12620696732591136
1.003907808085821,0.18292620727983336,0.0863772586107872,0.13485525602086357,0.06519790876786823,0.13358870934950368
1.0039548901109514,0.18798821740501145,0.08811453495457915,0.13913083302593265,0.0708537817906748,0.13779576776222352
1.0040019721360818,0.19658928748535154,0.08796870127896866,0.1397247738744464,0.07359873709682921,0.13835486888120654
1.0040490541612122,0.20361099360789395,0.08471169975900725,0.1356935801867525,0.07322436673507575,0.1343165637785487
1.0040961361863425,0.20356945018764083,0.07773306347592378,0.1287855413388881,0.07102085942803346,0.1274192518182433
1.004143218211473,0.19261735903368254,0.06820643907928202,0.11776025800915435,0.0678066332908836,0.11641278367600345
1.0041903002366033,0.1692114287165738,0.056548306009350645,0.09836742477706704,0.06073629671762613,0.0970942171737677
1.0042373822617336,0.13469585530973552,0.043772254706504775,0.07519967777083232,0.05023487390551641,0.07408733110184465
1.004284464286864,0.094068350002802,0.030928938769461716,0.051842634052145065,0.037670724966926285,0.050972135654334165
1.0043315463119944,0.0558705414627791,0.019508682881821903,0.03082107495389939,0.023022991553669582,0.030273848099735465
1.0043786283371248,0.029785725493520713,0.01239127037230239,0.019809015244991575,0.008882295132450903,0.019593162997327353
1.0044257103622551,0.022326134922130727,0.009652154514172166,0.01684685304795892,-0.002335918351634645,0.016897645854619572
1.0044727923873855,0.03362727707623793,0.010621377525145624,0.01768087969631584,-0.008246777327582593,0.01787244358338577
1.004519874412516,0.057935866130881315,0.014682688697281992,0.0238553638180855,-0.00886970043104422,0.024060243118315616
1.0045669564376463,0.08691312585069338,0.02149941285993034,0.038233159934289905,-0.0031776616782715384,0.03829793841840194
1.0046140384627766,0.11302745450084833,0.029871765019451973,0.05542672474865837,0.008562547507921212,0.05521050961551672
1.004661120487907,0.13143773576861661,0.03792242584509066,0.07126698378066398,0.022314794241319186,0.0707380040553152
1.0047082025130374,0.140315951549541,0.04380546652289892,0.0817840112464661,0.03608613776049249,0.0809640925108768
1.0047552845381678,0.14016084842095028,0.04521160887339511,0.0846685751900148,0.047741504975440885,0.08361659271602478
1.0048023665632981,0.13271042804166153,0.043486644032100244,0.08028160564993014,0.05597622046114053,0.07906420371734449
1.0048494485884285,0.1199532079956697,0.0398476504556524,0.06958311394397716,0.06285733721173213,0.06821415626851686
1.0048965306135589,0.10352759540252561,0.036457632621587716,0.05738407400153901,0.06733867588974107,0.05590129029698226
1.0049436126386893,0.08458770500586026,0.030856894616311626,0.04469505929439128,0.06756558843087399,0.043179395553294204
1.0049906946638196,0.06411017510052013,0.0268637237079521,0.03435472552873721,0.06397618397075056,0.03289405828321499
1.00503777668895,0.043500849939608656,0.021740417456262984,0.022887706523455283,0.05831160924052574,0.021532691417759032
1.0050848587140804,0.02497562650004661,0.017103023485010953,0.013888116903115118,0.04997957118269295,0.012712266898079657
1.0051319407392107,0.011013597455985432,0.013577599681648015,0.011624969459267675,0.03938785157522181,0.010693820065830112
1.0051790227643411,0.003334338693202587,0.011818241942387054,0.009001101837417943,0.027253516336175992,0.008353857523992154
1.0052261047894715,0.0027948227754708652,0.006949423737671142,0.005716764128480125,0.015527694791103231,0.005346682278146253
1.0052731868146019,0.010164673003053454,0.0033293926780938125,0.005314070387151807,0.006134747081427901,0.0051668353105959065
1.0053202688397322,0.026566180290056158,0.0029178227292048007,0.008193549268036414,-0.0022545580090701863,0.008244845319582472
1.0053673508648626,0.05291846997433676,0.004622289408524661,0.011498759854167706,-0.00653106933504091,0.011650986065259026
1.005414432889993,0.08828034555015178,0.007892502085976935,0.017065936640710815,-0.006557044980665817,0.017217292126551174
1.0054615149151234,0.12763762777320273,0.011170307341219295,0.025647230237824777,-0.00308176169500552,0.02571329703612468
1.0055085969402537,0.16155770115500132,0.014347347843569341,0.038076850744054896,0.005168354728578758,0.0379440146921346
1.0055556789653841,0.18078890709766565,0.01827578785590271,0.05135766337998839,0.016344465285162355,0.05096295743723306
1.0056027609905145,0.18307418566708303,0.02015576198795271,0.06056084021799014,0.028320841669206145,0.05989813660037877
1.0056498430156449,0.1741533504439713,0.02197499940547955,0.06655908741414072,0.03848815241767134,0.06567985482247296
1.0056969250407752,0.16242605985016223,0.0220930978381876,0.07063087442771013,0.046870216725442226,0.06958109830041787
1.0057440070659056,0.15418810481596457,0.020634847302666025,0.07107575192890922,0.05111370648249732,0.06994069387935807
1.005791089091036,0.1523552110015489,0.017445475287174647,0.0660360559428213,0.0515904230041127,0.0648849609565643
1.0058381711161664,0.15691036178882456,0.015591019616989684,0.06130313889977103,0.05046185289444542,0.060169290098285186
1.0058852531412967,0.16538784679386007,0.015504118738468815,0.06307528196508604,0.04809109944303831,0.06199243821985063
1.005932335166427,0.17322460684996496,0.013891555961973808,0.06323184659303546,0.04363973743964366,0.06224181271933873
1.0059794171915575,0.17475929729964576,0.010746065889986455,0.05880087400333982,0.03678732457148184,0.05795335613966073
1.0060264992166879,0.16548577922015562,0.007513525446332653,0.05204155960234529,0.029724738436732744,0.05134572654621415
1.0060735812418182,0.1445721481217929,0.004631299819389585,0.04234591607178599,0.021498214425440348,0.0418339184117451
1.0061206632669486,0.11538472372115638,0.0020494396903178104,0.03266210113426135,0.012975145446900108,0.03234764133029678
1.006167745292079,0.08342022676517998,0.0004849570423558748,0.0259645785337829,0.005630322844374064,0.025823944197453253
1.0062148273172093,0.053714935068683495,0.0013709769862890334,0.01794830890199036,0.0012158836003016225,0.017914361268280804
1.0062619093423397,0.029620632829972474,0.003097044762394068,0.006428025048282717,-0.0006438630274174894,0.006441515010435517
1.00630899136747,0.012907514843990737,0.005892632493509457,-0.004503164505502606,0.0007684467193841643,-0.004520160406648762
1.0063560733926005,0.004292560353454192,0.00967033315830354,-0.010519166817943732,0.004264548538935023,-0.010617651810376319
1.0064031554177308,0.0038095921685766332,0.015611775009482047,-0.007972360122875525,0.007551337624795273,-0.008149834250101034
1.0064502374428612,0.010924293923755681,0.025040166571546504,0.0013341291502741227,0.015382226762175846,0.0009681976297260996
1.0064973194679916,0.02453035587728399,0.03306999231172409,0.011333716656649779,0.02505667891459238,0.010738341001858033
1.006544401493122,0.042966387475684646,0.03946776648429106,0.020787738978896356,0.0340447065450564,0.019984632793255644
1.0065914835182523,0.06411092062196938,0.042985451826602156,0.03329944681240632,0.03991666808897936,0.03236844155084203
1.0066385655433827,0.08556714248621351,0.04708344915883599,0.049462130528264495,0.04323749603294895,0.048469246303548784
1.006685647568513,0.10493697207975199,0.04931311842605457,0.06485229624100503,0.04425867676726268,0.06385075181644664
1.0067327295936435,0.12014720761669652,0.04979415080157949,0.07640706666955516,0.04332371832429947,0.07543500436161428
1.0067798116187738,0.12974860817624662,0.046737407485587384,0.08294186479002422,0.04069467211781446,0.08202852262056333
1.0068268936439042,0.1331160769266914,0.044466379202687305,0.08436945777741765,0.03617298274024387,0.0835492384864026
1.0068739756690346,0.13051634907150206,0.0393809785617378,0.08386978816652868,0.03160690836974281,0.08314398001617782
1.006921057694165,0.12301693370584733,0.03234321098950975,0.08185258015702256,0.025782209936503857,0.08124963390154981
1.0069681397192953,0.11219272060745543,0.023811950505681072,0.07585112215539112,0.018799302633444284,0.07539998448320541
1.0070152217444257,0.09964098937742749,0.01577464150106629,0.06985230351433948,0.012173656797045749,0.06955049917148616
1.007062303769556,0.08648287672211809,0.009540428034616215,0.06302251331950957,0.0070352646512345535,0.06284007124385488
1.0071093857946865,0.07315337862299943,0.006018784410535169,0.053521194673379444,0.0032535760394058204,0.053429381600970785
1.0071564678198168,0.05967551136841471,0.0030534995965565332,0.042771215350936226,-0.00036988907883174136,0.04276792223575825
1.0072035498449472,0.046352747241279996,0.0001775293441970292,0.029687677967592516,-0.002212122583546031,0.029731885812439136
1.0072506318700776,0.03458526276589038,-0.0012595645439811072,0.01916866027493343,-0.002129185558376735,0.019213876279949884
1.007297713895208,0.02727830692374265,-0.0012208525134504854,0.01473006896934623,-0.0020071967083237973,0.014773636883377928
1.0073447959203383,0.0280866607277734,0.0005733756191574316,0.01711698325886342,-0.0007909050396055532,0.017130946091261926
1.0073918779454687,0.03925806445151868,0.006468571098858266,0.028584290137595406,0.003711562366060693,0.02848829051764759
1.007438959970599,0.059562255279517966,0.014333094673322342,0.043832242766228824,0.009714164060953432,0.04359166651606053
1.0074860419957294,0.08449757331606145,0.021399755869624587,0.058037587268334905,0.017173401432761554,0.057623506288272675
1.0075331240208598,0.10858230355013457,0.026761257064479474,0.06858033205585247,0.02406522308149229,0.06801256020803931
1.0075802060459902,0.12742598805780986,0.030848814164014752,0.07621925524513734,0.028844131691996237,0.07554931686320471
1.0076272880711206,0.13840784538629322,0.03236662683491099,0.07904744927672683,0.031594154700421706,0.07832000463984239
1.007674370096251,0.14057521646913557,0.03158704909919476,0.0769603579802706,0.032604111914990394,0.07621075183144871
1.0077214521213813,0.1345761316442056,0.029215338893366916,0.07084930100861353,0.03152550665314371,0.07012020385670754
