freq,gls,usurper,pdc_unbiased,shape_periodogram,shift_periodogram
1.0,0.02176245538732735,-0.0038633422607102018,-0.007335655112181927,0.007317133278736172,-0.007631200951979513
1.0000470820251304,0.05134779247241603,0.007557837437185377,0.016081221596065367,0.012376308610034548,0.015558809450078103
1.0000941640502607,0.09689124580742478,0.02038857971201729,0.05094334186944231,0.020548082201653616,0.05006698041669741
1.0001412460753911,0.14848755125694818,0.03379337896465793,0.08456655871201842,0.030861129248445165,0.08327594493959933
1.0001883281005215,0.19664060203551523,0.04461873166045233,0.10917973127593883,0.038402957449852934,0.10761137699826269
1.0002354101256519,0.23592916525893703,0.05169537616974908,0.12678225514793529,0.043888676971305565,0.12502858084857105
1.0002824921507822,0.26363730657080775,0.056995210242260445,0.13936052532630389,0.04694614298094248,0.1375133546052738
1.0003295741759126,0.2780607972143743,0.05917874325286906,0.14663287491158739,0.04930147651163975,0.14471532363528578
1.000376656201043,0.27778293516045677,0.058437902988229345,0.14742341655727248,0.05088675415804663,0.14545481250798253
1.0004237382261734,0.2619162710265795,0.05557945184142724,0.139633635428265,0.051118108095013826,0.137647157072687
1.0004708202513037,0.23107843684954268,0.0498435084247016,0.12167319492364326,0.04897791087194103,0.11973804634086119
1.0005179022764341,0.1884924826566669,0.042043606003983235,0.09811663264576473,0.045292931280376876,0.09629140097610452
1.0005649843015645,0.1401213853463462,0.03571925330309088,0.07552593926328457,0.04103469077070366,0.07384670451888414
1.0006120663266949,0.09311329616242185,0.03174320929175312,0.056936636782797936,0.03749796612372389,0.0553889311416772
1.0006591483518252,0.05338098213176131,0.03097890956890676,0.04656239048066332,0.03260339483190407,0.04520726597282469
1.0007062303769556,0.024158292773911582,0.02981894977968782,0.0379052596807291,0.025761953771115682,0.036825651670884516
1.000753312402086,0.006389706849983347,0.029148311612594215,0.024925530867037873,0.018499706385453236,0.024146650353307875
1.0008003944272164,4.4957735270936574e-05,0.03080243459187812,0.013623927240606612,0.01385182543394345,0.013042804113514566
1.0008474764523467,0.004476680458159687,0.027743172579123503,0.005279248516488982,0.01401899315848121,0.004697404547673994
1.000894558477477,0.016631009383087918,0.026086147684468125,0.00604487589630294,0.01764883078412028,0.005313144693414171
1.0009416405026075,0.030279800796216314,0.028390689375686055,0.01614856324889533,0.024309207101148148,0.015137695824253937
1.0009887225277379,0.04019506929021177,0.03448020090764101,0.031662352407458065,0.03143718406560848,0.0303565371813469
1.0010358045528682,0.045271217739530065,0.04144677985005302,0.049643587368788454,0.03957340251359764,0.048013694252924136
1.0010828865779986,0.04665854735345898,0.04422603181429929,0.06394396252727896,0.0482557911481425,0.06198454304796732
1.001129968603129,0.04557434040645729,0.04327741484193179,0.06951556918541625,0.055214080186530706,0.0672990583444516
1.0011770506282593,0.04281463251624272,0.03756044845627661,0.06676401531502141,0.05885530262295885,0.06440839284826415
1.0012241326533897,0.03911406922799136,0.0318024204433299,0.05756222886158259,0.0606640179274943,0.0551260863864376
1.00127121467852,0.035734840091298535,0.026957887438223617,0.04469056838221148,0.06082082399560067,0.04223085141286921
1.0013182967036505,0.034632288517627896,0.021867449612559337,0.03354469161607427,0.05973559707063209,0.03111336756450306
1.0013653787287808,0.03686446430802818,0.02269396503739029,0.03235087082016887,0.058140042173947463,0.02998111895552641
1.0014124607539112,0.040499198873267514,0.028580479013745996,0.04235422606047071,0.05753967946933168,0.040018816902638775
1.0014595427790416,0.04245011553894062,0.03400946804186711,0.05148956578485458,0.05745156849197128,0.04916784689840122
1.001506624804172,0.04142424671447975,0.03888270553906369,0.057489670337512934,0.05470670333544665,0.055279302083870524
1.0015537068293023,0.03772147907862947,0.04101057093925008,0.05838903434484734,0.049410749564261676,0.05638163041699272
1.0016007888544327,0.032149333674356434,0.03963600090719043,0.05286952532393206,0.041677814431939075,0.05115811688016037
1.001647870879563,0.025799799790141527,0.03363211838887141,0.040386054375886556,0.031508408518455565,0.03907550370287179
1.0016949529046935,0.020580986012262138,0.025899777596246065,0.02276083148008517,0.019346622910401408,0.021948764333504105
1.0017420349298238,0.01993155776046648,0.02010304597322374,0.008396000375120035,0.010841736693731525,0.007942497838447443
1.0017891169549542,0.027489951613850306,0.018973397247491783,0.00883020356959996,0.010946269937771065,0.008372063520620634
1.0018361989800846,0.042074300128446054,0.020210053292340605,0.022145335055818467,0.01588740375173216,0.021474846509463817
1.001883281005215,0.05845891480384451,0.0255835855678552,0.04104344236602053,0.025144140836996665,0.03998738926069895
1.0019303630303453,0.07582159493280267,0.029180590276877447,0.05832937685591873,0.03337206893217052,0.05694288444989843
1.0019774450554757,0.09824195100672209,0.03189415229389344,0.07041397317164165,0.038925484528513625,0.06881351851676543
1.002024527080606,0.1303669711588208,0.030733685797107203,0.07896421651578898,0.04089273924632739,0.07729164272932815
1.0020716091057364,0.17464242099810953,0.02795371600408258,0.08832693698111686,0.04098438505429926,0.0866547365256698
1.0021186911308668,0.22917237164395338,0.031876608145753355,0.11355266104308831,0.041353062292419855,0.11187972662893023
1.0021657731559972,0.2864808872447173,0.039749970561311236,0.14880372324738836,0.04438556622413661,0.14705196769062015
1.0022128551811276,0.335488571803669,0.0479418079558448,0.17945522269565434,0.048216322068448066,0.17761437287538498
1.002259937206258,0.3667004160945303,0.054084853866745504,0.20044309409803335,0.05072690552082876,0.19855760030584105
1.0023070192313883,0.37630521047742305,0.05757019557363048,0.20989430295355302,0.05062538508573181,0.2080272032257893
1.0023541012565187,0.3658732131217113,0.057977249622002194,0.20800353236518512,0.04784370836761133,0.20621375949912085
1.002401183281649,0.3393357840705059,0.053772074532332605,0.19716291122807472,0.04258726900017501,0.19551744238152835
1.0024482653067794,0.30043566038503033,0.04778188246477451,0.1783931936762516,0.03419699139452689,0.17700328946486119
1.0024953473319098,0.25183659939415354,0.042298168148505476,0.15384153094853617,0.02377169423898904,0.15281053379184872
1.0025424293570402,0.1956066522565673,0.034202844921742394,0.12081929242955049,0.013130577473578946,0.12019883929894891
1.0025895113821706,0.13475970805500284,0.019108085808770138,0.07564140824241966,0.0024245325907065554,0.075478631545363
1.002636593407301,0.07582916802294695,0.002788722239084093,0.025728531183742454,-0.0068839489821756455,0.025990757100505954
1.0026836754324313,0.03145358980808763,-0.00468265865582747,-0.0040036080406334615,-0.010139460185958214,-0.0035824663111497803
1.0027307574575617,0.01779891286180085,0.0022609642823809262,-0.006351274616742859,-0.0031271005252957074,-0.0062170211463509345
1.002777839482692,0.04358985242398123,0.010686850590814742,0.006591376950054447,0.00911917392925549,0.00621017892794657
1.0028249215078224,0.1037077589167159,0.0222819586657763,0.04281328660270074,0.022130699380681827,0.041877464499853134
1.0028720035329528,0.18101238562213362,0.03879444969094207,0.0979436666785688,0.03024869832050663,0.09667589422759741
1.0029190855580832,0.25636899888384335,0.05824434592261527,0.15380629462607742,0.044035130088131896,0.15207091562523467
1.0029661675832136,0.31832235074100634,0.07058644521043668,0.19704252226634572,0.05624905653838498,0.19499209878306292
1.003013249608344,0.36361141655314383,0.07860728871426029,0.228525784613192,0.061749307516292956,0.2264009078283697
1.0030603316334743,0.39341420767750745,0.08424948377955216,0.24979870354304085,0.06529183230514823,0.24764969737992396
1.0031074136586047,0.4102870696014962,0.08637395640797214,0.26258314989231946,0.06706858346694591,0.26043554856540735
1.003154495683735,0.41662904201390033,0.08686500970652483,0.266777273312063,0.06713934163335913,0.2646417656514828
1.0032015777088654,0.41405085665469693,0.08546564485397536,0.26326150551395927,0.06537498232405888,0.2611516064931379
1.0032486597339958,0.4030953535584088,0.08209530555531072,0.251751202986526,0.061952758903197354,0.24968335373101846
1.0032957417591262,0.38301151602067063,0.07670969876925435,0.2324239377319079,0.05650434766110504,0.23044087813530267
1.0033428237842565,0.3514583105172215,0.06892401247300908,0.2047530276495091,0.04886800603917315,0.20292851658265568
1.003389905809387,0.3042863356687068,0.05856630339185583,0.16911475512504195,0.03934806944606121,0.16754772807049717
1.0034369878345173,0.2364892670841809,0.04515911621496098,0.12615890065588273,0.02830993160325457,0.1249632562675181
1.0034840698596477,0.14805992805189566,0.029659637890951194,0.07745804013496241,0.016268680201685343,0.07673809855018295
1.003531151884778,0.05937981673678241,0.01661607428166572,0.035632586371168055,0.005449373557847464,0.035378677078982616
1.0035782339099084,0.016571701488668728,0.010808136844543237,0.012038086514572617,-0.0018334000854900363,0.01210343123833545
1.0036253159350388,0.04141534161646615,0.0161161329170191,0.014399178728297872,-0.0010973146207085224,0.01443216843755128
1.0036723979601692,0.0978579156313711,0.026529462931039024,0.03595348541122598,0.0053034305699610745,0.035705293042808436
1.0037194799852995,0.14599333246590304,0.03934275843326885,0.06503465797160808,0.01770770220010661,0.06426434004481456
1.00376656201043,0.17300879075255565,0.05144145875693757,0.0922030709843016,0.03171587815112933,0.09087981805358396
1.0038136440355603,0.18229222765708752,0.06001789632349175,0.11374971918924169,0.042876716249461086,0.11202233298917087
1.0038607260606907,0.18262972424027749,0.06591904936464402,0.12736778710133306,0.053973233888602146,0.12526925841737982
1.003907808085821,0.18292620727983336,0.07088150649223764,0.13485525602086357,0.06411552380188582,0.1324380104208099
1.0039548901109514,0.18798821740501145,0.07289880709526543,0.13913083302593265,0.07235803517520022,0.13646774359388097
1.0040019721360818,0.19658928748535154,0.06978281934086329,0.1397247738744464,0.07725149090227436,0.13691628957727758
1.0040490541612122,0.20361099360789395,0.07061012199142788,0.1356935801867525,0.07799193059562891,0.13284944960935716
1.0040961361863425,0.20356945018764083,0.06888776301116868,0.1287855413388881,0.07617056786833536,0.12597430274489507
1.004143218211473,0.19261735903368254,0.0589756856122416,0.11776025800915435,0.07110996790294469,0.11507719537610574
1.0041903002366033,0.1692114287165738,0.04634221554365803,0.09836742477706704,0.06303678496423178,0.09591194854838919
1.0042373822617336,0.13469585530973552,0.031965200095917023,0.07519967777083232,0.05230243682236082,0.07309753990534638
1.004284464286864,0.094068350002802,0.020174020347643307,0.051842634052145065,0.03904058250714851,0.05023397778774108
1.0043315463119944,0.0558705414627791,0.011465489466232591,0.03082107495389939,0.024541735912788448,0.029793692882178154
1.0043786283371248,0.029785725493520713,0.006760806703033945,0.019809015244991575,0.010787763413346297,0.019348913690903614
1.0044257103622551,0.022326134922130727,0.004930873041826595,0.01684685304795892,0.0006160764452755984,0.01680716023917742
1.0044727923873855,0.03362727707623793,0.005608889268032131,0.01768087969631584,-0.004271869746880604,0.017842017691408495
1.004519874412516,0.057935866130881315,0.008623794363421018,0.0238553638180855,-0.004687879174464809,0.024028426968536704
1.0045669564376463,0.08691312585069338,0.014052557084040624,0.038233159934289905,-0.0001500573949768729,0.03820688731556568
1.0046140384627766,0.11302745450084833,0.021123028318988425,0.05542672474865837,0.007940033703062049,0.055055715614325706
1.004661120487907,0.13143773576861661,0.028301859143810747,0.07126698378066398,0.015711824353195382,0.07057265191102895
1.0047082025130374,0.140315951549541,0.034168093229078364,0.0817840112464661,0.023194295884088233,0.08078998208406571
1.0047552845381678,0.14016084842095028,0.03672353739425233,0.0846685751900148,0.028940251064751385,0.08345158051902594
1.0048023665632981,0.13271042804166153,0.0369972789651389,0.08028160564993014,0.03204455116521615,0.07894580445234274
1.0048494485884285,0.1199532079956697,0.03576070599029746,0.06958311394397716,0.03465419565679093,0.06814675032448159
1.0048965306135589,0.10352759540252561,0.03440397256217405,0.05738407400153901,0.03385936385131757,0.05597854593461015
1.0049436126386893,0.08458770500586026,0.030530494688646763,0.04469505929439128,0.030026047037553644,0.043442674942227914
1.0049906946638196,0.06411017510052013,0.0254756150721505,0.03435472552873721,0.023661100721869346,0.03336129501539381
1.00503777668895,0.043500849939608656,0.020588064982476263,0.022887706523455283,0.018089920307128603,0.022126812819879046
1.0050848587140804,0.02497562650004661,0.015273255635059553,0.013888116903115118,0.012148241379327204,0.013376711565385026
1.0051319407392107,0.011013597455985432,0.014071887722993785,0.011624969459267675,0.0053214567295395985,0.01139595427317632
1.0051790227643411,0.003334338693202587,0.012392331694437696,0.009001101837417943,-0.0004145645839435953,0.009010539352667084
1.0052261047894715,0.0027948227754708652,0.010143128370785891,0.005716764128480125,-0.003176614625813682,0.005842863911515554
1.0052731868146019,0.010164673003053454,0.007062959422544485,0.005314070387151807,-0.006437925687237067,0.00557501927162295
1.0053202688397322,0.026566180290056158,0.0047862757038186895,0.008193549268036414,-0.008970989107322318,0.008556661947878743
1.0053673508648626,0.05291846997433676,0.0039379867171154105,0.011498759854167706,-0.008276628336844312,0.011830474173498239
1.005414432889993,0.08828034555015178,0.0030911167577261033,0.017065936640710815,-0.006183094515655444,0.01730651284281332
1.0054615149151234,0.12763762777320273,0.003260892005444519,0.025647230237824777,-0.00271467446484515,0.025737327196191494
1.0055085969402537,0.16155770115500132,0.004011574812533004,0.038076850744054896,0.004872002627155394,0.03784460415535336
1.0055556789653841,0.18078890709766565,0.005492411789390231,0.05135766337998839,0.013775333743553018,0.05075335491159542
1.0056027609905145,0.18307418566708303,0.006781077282725344,0.06056084021799014,0.021985070039331624,0.059622630182109705
1.0056498430156449,0.1741533504439713,0.008010300876819604,0.06655908741414072,0.02630776655258863,0.06544803369168563
1.0056969250407752,0.16242605985016223,0.00919831971020034,0.07063087442771013,0.030130744197354866,0.06936965712010552
1.0057440070659056,0.15418810481596457,0.010383879831370558,0.07107575192890922,0.0315427795676834,0.06975969930346365
1.005791089091036,0.1523552110015489,0.011378506644138527,0.0660360559428213,0.03126238123370355,0.06473134522227691
1.0058381711161664,0.15691036178882456,0.012764064295729585,0.06130313889977103,0.03026880604765709,0.06003788832863249
1.0058852531412967,0.16538784679386007,0.017670169505889115,0.06307528196508604,0.02876535586832732,0.06186865804999911
1.005932335166427,0.17322460684996496,0.02053627352116206,0.06323184659303546,0.025783917834833043,0.062142383114509384
1.0059794171915575,0.17475929729964576,0.02099014399185486,0.05880087400333982,0.02241368608977519,0.05784640679399185
1.0060264992166879,0.16548577922015562,0.020793332849200364,0.05204155960234529,0.01903494373045732,0.05122525091732115
1.0060735812418182,0.1445721481217929,0.01885611244856895,0.04234591607178599,0.015602634263618903,0.04167364148133683
1.0061206632669486,0.11538472372115638,0.017968361757066988,0.03266210113426135,0.011073268390658569,0.03218064029170555
1.006167745292079,0.08342022676517998,0.015294868689280885,0.0259645785337829,0.0064558316001632485,0.025677229049394314
1.0062148273172093,0.053714935068683495,0.013545210108512866,0.01794830890199036,0.0030010570792533353,0.01780950121241943
1.0062619093423397,0.029620632829972474,0.011643493615862041,0.006428025048282717,0.00027567746515580525,0.006411200435332294
1.00630899136747,0.012907514843990737,0.009232621067535845,-0.004503164505502606,0.000835956507429161,-0.0045337949493573955
1.0063560733926005,0.004292560353454192,0.007141231555453473,-0.010519166817943732,0.002477447290948088,-0.01061236013862098
1.0064031554177308,0.0038095921685766332,0.006142525433200396,-0.007972360122875525,0.005798527802294035,-0.00820470596632317
1.0064502374428612,0.010924293923755681,0.007923282206056422,0.0013341291502741227,0.014513936084512801,0.0007348322231897971
1.0064973194679916,0.02453035587728399,0.010828677302820982,0.011333716656649779,0.023205655878838334,0.01037054680095345
1.006544401493122,0.042966387475684646,0.014439541665201684,0.020787738978896356,0.031688567918152125,0.01947449730486311
1.0065914835182523,0.06411092062196938,0.01900160185071703,0.03329944681240632,0.03626878038943623,0.03179950974531833
1.0066385655433827,0.08556714248621351,0.02251457023258731,0.049462130528264495,0.03786726463457983,0.04789918191706014
1.006685647568513,0.10493697207975199,0.024691396566412425,0.06485229624100503,0.03894943734534298,0.06324963658509222
1.0067327295936435,0.12014720761669652,0.025094782963567604,0.07640706666955516,0.03974553497168165,0.07477701901787966
1.0067798116187738,0.12974860817624662,0.02453511642405085,0.08294186479002422,0.04012762609736601,0.08129959013432637
1.0068268936439042,0.1331160769266914,0.024731384637034916,0.08436945777741765,0.038613289163367995,0.08278462498286021
1.0068739756690346,0.13051634907150206,0.0235797825736233,0.08386978816652868,0.03668826152644706,0.08235747068073944
1.006921057694165,0.12301693370584733,0.020122099434165347,0.08185258015702256,0.03368045172682423,0.08045425206067061
1.0069681397192953,0.11219272060745543,0.01563892019987115,0.07585112215539112,0.029318496177614263,0.07462070181166944
1.0070152217444257,0.09964098937742749,0.011782320738183506,0.06985230351433948,0.023749403567789443,0.06884068656660988
1.007062303769556,0.08648287672211809,0.007990885507475726,0.06302251331950957,0.018961261482964432,0.06220333998253166
1.0071093857946865,0.07315337862299943,0.004830259092054084,0.053521194673379444,0.014623093784614214,0.05288129267146554
1.0071564678198168,0.05967551136841471,0.002553758478526485,0.042771215350936226,0.010694107443693045,0.042297747854653914
1.0072035498449472,0.046352747241279996,-0.000520479968412514,0.029687677967592516,0.006799945212001332,0.029383232499080314
1.0072506318700776,0.03458526276589038,-0.0017496927212509604,0.01916866027493343,0.0039602143961839165,0.018989380071083327
1.007297713895208,0.02727830692374265,-0.0004951216710555312,0.01473006896934623,0.0006993230065065371,0.014688741425117393
1.0073447959203383,0.0280866607277734,0.003085597103643512,0.01711698325886342,-0.0004366346022281358,0.017120431931129484
1.0073918779454687,0.03925806445151868,0.00932624234707137,0.028584290137595406,-0.0008590783071939305,0.028595394906382295
1.007438959970599,0.059562255279517966,0.015439579978460424,0.043832242766228824,-0.001658141311696673,0.043863273146550516
1.0074860419957294,0.08449757331606145,0.02123853327543831,0.058037587268334905,-0.00262582261154376,0.05809631591335665
1.0075331240208598,0.10858230355013457,0.02635316474690609,0.06858033205585247,-0.0013032463002810733,0.06857572103636148
1.0075802060459902,0.12742598805780986,0.030367701349316847,0.07621925524513734,0.0011118726400060981,0.07610947188929706
1.0076272880711206,0.13840784538629322,0.03245898872005057,0.07904744927672683,0.002845998758419887,0.07886479495114372
1.007674370096251,0.14057521646913557,0.03121842271050054,0.0769603579802706,0.006749148356169129,0.07662134138705771
1.0077214521213813,0.1345761316442056,0.028159680782129326,0.07084930100861353,0.010801046667190417,0.07035159516706262
