freq,gls,usurper,pdc_unbiased,shape_periodogram,shift_periodogram
1.0,0.02176245538732735,0.016994732715282953,-0.007335655112181927,0.0027232401942936845,-0.00738868714038333
1.0000470820251304,0.05134779247241603,0.02105590083777918,0.016081221596065367,0.0017816955132169937,0.01604240184471807
1.0000941640502607,0.09689124580742478,0.026919390146800875,0.05094334186944231,0.005357081441139414,0.05082715196821346
1.0001412460753911,0.14848755125694818,0.033055039105498576,0.08456655871201842,0.012882857693899198,0.08430173924324827
1.0001883281005215,0.19664060203551523,0.03955035159291875,0.10917973127593883,0.023370754506268944,0.10872826742212281
1.0002354101256519,0.23592916525893703,0.04522907554438208,0.12678225514793529,0.031129965624635856,0.12620962624716353
1.0002824921507822,0.26363730657080775,0.04677261892928773,0.13936052532630389,0.03470140495222003,0.13874097018407053
1.0003295741759126,0.2780607972143743,0.04829181348441563,0.14663287491158739,0.036961764907278205,0.1459859888165988
1.000376656201043,0.27778293516045677,0.04975270430635873,0.14742341655727248,0.038590508166607335,0.14675443345619343
1.0004237382261734,0.2619162710265795,0.048108992255711726,0.139633635428265,0.039548481706493194,0.13894458956823255
1.0004708202513037,0.23107843684954268,0.04417032083146038,0.12167319492364326,0.03873533143068136,0.12098082720908346
1.0005179022764341,0.1884924826566669,0.038731764255358576,0.09811663264576473,0.03670153562327468,0.0974385127678637
1.0005649843015645,0.1401213853463462,0.03492273437595479,0.07552593926328457,0.034008403240684534,0.07487942302816851
1.0006120663266949,0.09311329616242185,0.03257663167552641,0.056936636782797936,0.029837821590142578,0.05635627274238484
1.0006591483518252,0.05338098213176131,0.033206562191748376,0.04656239048066332,0.02342831483915281,0.046098556446211435
1.0007062303769556,0.024158292773911582,0.033402672949533516,0.0379052596807291,0.015077892135995474,0.03760097329927178
1.000753312402086,0.006389706849983347,0.03436882694031468,0.024925530867037873,0.005803628699549551,0.024804972886070607
1.0008003944272164,4.4957735270936574e-05,0.03625709319754017,0.013623927240606612,-0.0016713628352821508,0.013654645905212684
1.0008474764523467,0.004476680458159687,0.03458150172776998,0.005279248516488982,-0.003468113149479085,0.0053475990252918
1.000894558477477,0.016631009383087918,0.03758801482991723,0.00604487589630294,-0.0006097110877055453,0.006055863695282819
1.0009416405026075,0.030279800796216314,0.043879982026125364,0.01614856324889533,0.0065094063769134515,0.016015505277383903
1.0009887225277379,0.04019506929021177,0.0524266806286457,0.031662352407458065,0.017634422329543428,0.031308643917565424
1.0010358045528682,0.045271217739530065,0.058399056751928746,0.049643587368788454,0.0313096566374945,0.04903361129619131
1.0010828865779986,0.04665854735345898,0.061333531534573084,0.06394396252727896,0.04534030633330274,0.06309431678794541
1.001129968603129,0.04557434040645729,0.06283300190417548,0.06951556918541625,0.056855485630985705,0.06848271951647071
1.0011770506282593,0.04281463251624272,0.060828075457205893,0.06676401531502141,0.06319648898121026,0.06562540139249098
1.0012241326533897,0.03911406922799136,0.055150065071671944,0.05756222886158259,0.06502440426509164,0.05637521451108842
1.00127121467852,0.035734840091298535,0.04745927263966823,0.04469056838221148,0.06446601594232308,0.0434860710986993
1.0013182967036505,0.034632288517627896,0.03991500066528319,0.03354469161607427,0.0633531189473068,0.032337593454175084
1.0013653787287808,0.03686446430802818,0.037260537828790324,0.03235087082016887,0.06178173069466398,0.031169847073052506
1.0014124607539112,0.040499198873267514,0.04006664599232969,0.04235422606047071,0.06083867623289906,0.041208105127461
1.0014595427790416,0.04245011553894062,0.044366933289837256,0.05148956578485458,0.06006863604874267,0.05037304426554935
1.001506624804172,0.04142424671447975,0.04557109601636276,0.057489670337512934,0.05495662427645643,0.05646923606641862
1.0015537068293023,0.03772147907862947,0.04486485956067474,0.05838903434484734,0.046279172854885794,0.057517679159459864
1.0016007888544327,0.032149333674356434,0.04273768677904961,0.05286952532393206,0.034916169739757905,0.0521951232684158
1.001647870879563,0.025799799790141527,0.03981243914486089,0.040386054375886556,0.020722775891250288,0.03997301142673406
1.0016949529046935,0.020580986012262138,0.03342243177852406,0.02276083148008517,0.006706558155793185,0.022622730305071403
1.0017420349298238,0.01993155776046648,0.03011363885620405,0.008396000375120035,-0.003180871731908646,0.008457987964951605
1.0017891169549542,0.027489951613850306,0.030088675829289813,0.00883020356959996,-0.004119114940749945,0.008910903184241594
1.0018361989800846,0.042074300128446054,0.03091016817583601,0.022145335055818467,0.0006771333529274445,0.022127375094484526
1.001883281005215,0.05845891480384451,0.036156429809446916,0.04104344236602053,0.010753450942437957,0.04082302294948138
1.0019303630303453,0.07582159493280267,0.04165939161441829,0.05832937685591873,0.02202188731075344,0.05789343006594208
1.0019774450554757,0.09824195100672209,0.04457806472235249,0.07041397317164165,0.033807594485170865,0.06976831262192357
1.002024527080606,0.1303669711588208,0.0415015469248754,0.07896421651578898,0.04306408180641359,0.07816706776572072
1.0020716091057364,0.17464242099810953,0.03589057251019565,0.08832693698111686,0.05010015770550513,0.08742769857271414
1.0021186911308668,0.22917237164395338,0.036677315175231234,0.11355266104308831,0.054601876124961535,0.11262468951150353
1.0021657731559972,0.2864808872447173,0.04110023374837225,0.14880372324738836,0.05875736215051158,0.14788764305030414
1.0022128551811276,0.335488571803669,0.04569166320069359,0.17945522269565434,0.06260478387267596,0.17856682445258545
1.002259937206258,0.3667004160945303,0.04860859121400216,0.20044309409803335,0.06499269869077241,0.19958673723525203
1.0023070192313883,0.37630521047742305,0.04957625718805645,0.20989430295355302,0.06553441745778801,0.20905814732518146
1.0023541012565187,0.3658732131217113,0.04824446551902473,0.20800353236518512,0.06419733431649254,0.20717047118537082
1.002401183281649,0.3393357840705059,0.04643243413353997,0.19716291122807472,0.06082618894990335,0.19632757358074523
1.0024482653067794,0.30043566038503033,0.04436279457279091,0.1783931936762516,0.05287462640158125,0.1775912954483517
1.0024953473319098,0.25183659939415354,0.03965914661190682,0.15384153094853617,0.0399187225336621,0.153160171156661
1.0025424293570402,0.1956066522565673,0.031554022417219094,0.12081929242955049,0.02355091928990234,0.1203674818245592
1.0025895113821706,0.13475970805500284,0.022468204491519296,0.07564140824241966,0.006280063248264831,0.07550328399718292
1.002636593407301,0.07582916802294695,0.01697781747779401,0.025728531183742454,-0.005450920138820571,0.025832703573802768
1.0026836754324313,0.03145358980808763,0.018848789455097825,-0.0040036080406334615,-0.004902194802039086,-0.0039047904220802718
1.0027307574575617,0.01779891286180085,0.027897190523656246,-0.006351274616742859,0.008762463811579257,-0.006525531570706384
1.002777839482692,0.04358985242398123,0.028233210671415893,0.006591376950054447,0.028076429005784675,0.006030815546310865
1.0028249215078224,0.1037077589167159,0.03216223927592825,0.04281328660270074,0.04244879434819571,0.041995643649933544
1.0028720035329528,0.18101238562213362,0.043258913556315094,0.0979436666785688,0.04789347978287896,0.09709015601831841
1.0029190855580832,0.25636899888384335,0.05732505529793643,0.15380629462607742,0.05094737285981425,0.1529868155597348
1.0029661675832136,0.31832235074100634,0.0668846679415589,0.19704252226634572,0.050470427986840226,0.1962934584777026
1.003013249608344,0.36361141655314383,0.07150530183142975,0.228525784613192,0.04874876145932449,0.2278391621262765
1.0030603316334743,0.39341420767750745,0.07308842830180695,0.24979870354304085,0.046661070348693774,0.24915864497821924
1.0031074136586047,0.4102870696014962,0.07218374663214971,0.26258314989231946,0.04422400052818107,0.2619778934401781
1.003154495683735,0.41662904201390033,0.07050056338281568,0.266777273312063,0.0412522681375581,0.266199263202291
1.0032015777088654,0.41405085665469693,0.067668895535473,0.26326150551395927,0.037569683474361036,0.2627101379035355
1.0032486597339958,0.4030953535584088,0.06354590530974276,0.251751202986526,0.03294903599737198,0.2512341901175427
1.0032957417591262,0.38301151602067063,0.05803273473156072,0.2324239377319079,0.027340916917183374,0.231958655768342
1.0033428237842565,0.3514583105172215,0.05084954475033435,0.2047530276495091,0.020627477282437082,0.20436841603369843
1.003389905809387,0.3042863356687068,0.04198640184332596,0.16911475512504195,0.01319507126827113,0.1688434229784515
1.0034369878345173,0.2364892670841809,0.031787240749652765,0.12615890065588273,0.005178821338105309,0.12603458121263353
1.0034840698596477,0.14805992805189566,0.02101071776890692,0.07745804013496241,-0.0023932956717954124,0.07749029988894932
1.003531151884778,0.05937981673678241,0.014326800602444976,0.035632586371168055,-0.007660430755366135,0.035779463278471736
1.0035782339099084,0.016571701488668728,0.014263879103567027,0.012038086514572617,-0.009033943815132475,0.012216855575795193
1.0036253159350388,0.04141534161646615,0.022432921289791262,0.014399178728297872,-0.0033233330722471084,0.014462838447305518
1.0036723979601692,0.0978579156313711,0.03507355759565004,0.03595348541122598,0.00805746082432306,0.03578658617846247
1.0037194799852995,0.14599333246590304,0.04970484347069649,0.06503465797160808,0.019646538166949553,0.06464358059113379
1.00376656201043,0.17300879075255565,0.05889490357656519,0.0922030709843016,0.030783861028422024,0.09161980234495475
1.0038136440355603,0.18229222765708752,0.06657528069556973,0.11374971918924169,0.03801824274540112,0.1130620236125871
1.0038607260606907,0.18262972424027749,0.07112636056251928,0.12736778710133306,0.043632531991992095,0.12660951956806124
1.003907808085821,0.18292620727983336,0.07331988797849917,0.13485525602086357,0.0502338583324679,0.13401710650194285
1.0039548901109514,0.18798821740501145,0.07519112316241862,0.13913083302593265,0.05558583395309447,0.1382330828087576
1.0040019721360818,0.19658928748535154,0.07496588570613136,0.1397247738744464,0.058487055279863184,0.1387941920733128
1.0040490541612122,0.20361099360789395,0.07204096313444933,0.1356935801867525,0.05854151424429784,0.13475467188057189
1.0040961361863425,0.20356945018764083,0.06518623106498603,0.1287855413388881,0.057158278864349495,0.1278504621709459
1.004143218211473,0.19261735903368254,0.05592797335215443,0.11776025800915435,0.05462637727124071,0.11683876774651056
1.0041903002366033,0.1692114287165738,0.045458568630843216,0.09836742477706704,0.04897513838655807,0.09749813963844368
1.0042373822617336,0.13469585530973552,0.03467017787983191,0.07519967777083232,0.04036020583435608,0.07444441686098409
1.004284464286864,0.094068350002802,0.02425746717969895,0.051842634052145065,0.029568257408302687,0.051265502520136605
1.0043315463119944,0.0558705414627791,0.015283436428330634,0.03082107495389939,0.016803367764611273,0.030483544513301507
1.0043786283371248,0.029785725493520713,0.010201890000363216,0.019809015244991575,0.004057933228018764,0.01972408602717263
1.0044257103622551,0.022326134922130727,0.008974622696916837,0.01684685304795892,-0.006030406216377445,0.016964374408654028
1.0044727923873855,0.03362727707623793,0.010795856055199305,0.01768087969631584,-0.011006170533251557,0.017898494320922748
1.004519874412516,0.057935866130881315,0.014809577466981074,0.0238553638180855,-0.011029202129556645,0.02407249928782891
1.0045669564376463,0.08691312585069338,0.02087987691954362,0.038233159934289905,-0.005419555371794064,0.03833425945751433
1.0046140384627766,0.11302745450084833,0.027866747734108407,0.05542672474865837,0.0050468754266926,0.055315873661508703
1.004661120487907,0.13143773576861661,0.03434541927192272,0.07126698378066398,0.016977206046944852,0.07092591696541602
1.0047082025130374,0.140315951549541,0.038715057522161034,0.0817840112464661,0.029229128646476518,0.08122333025709833
1.0047552845381678,0.14016084842095028,0.03879695873733006,0.0846685751900148,0.03982105556995656,0.08392972589819339
1.0048023665632981,0.13271042804166153,0.036064352394959844,0.08028160564993014,0.04751238986371112,0.07941336932857092
1.0048494485884285,0.1199532079956697,0.031502639516205175,0.06958311394397716,0.05458065649492983,0.06858695408067271
1.0048965306135589,0.10352759540252561,0.027963051157588206,0.05738407400153901,0.058978072553220774,0.056296193587498385
1.0049436126386893,0.08458770500586026,0.02273623154815154,0.04469505929439128,0.05946318853891593,0.04357703623904495
1.0049906946638196,0.06411017510052013,0.018991278957323332,0.03435472552873721,0.05602354191429674,0.03328127007957466
1.00503777668895,0.043500849939608656,0.014729116520070737,0.022887706523455283,0.050675172290317684,0.021898283260646405
1.0050848587140804,0.02497562650004661,0.011050756927082846,0.013888116903115118,0.043027183631420086,0.013036908542612226
1.0051319407392107,0.011013597455985432,0.009658708856663777,0.011624969459267675,0.03306478533886083,0.01096732343505023
1.0051790227643411,0.003334338693202587,0.009751121418874692,0.009001101837417943,0.02183732160846663,0.008564549968352767
1.0052261047894715,0.0027948227754708652,0.006483951127206884,0.005716764128480125,0.010995294770817853,0.0054960080013145216
1.0052731868146019,0.010164673003053454,0.004553456820637841,0.005314070387151807,0.002361708934816738,0.0052657790126713925
1.0053202688397322,0.026566180290056158,0.005029747194074608,0.008193549268036414,-0.005325330853587986,0.008298546868883738
1.0053673508648626,0.05291846997433676,0.007009714928778252,0.011498759854167706,-0.008468854411677485,0.011666258123445466
1.005414432889993,0.08828034555015178,0.010590000698538366,0.017065936640710815,-0.00747518828749022,0.017212474486064087
1.0054615149151234,0.12763762777320273,0.01409323148144756,0.025647230237824777,-0.0033870398606842067,0.02570993761281691
1.0055085969402537,0.16155770115500132,0.01673779505990932,0.038076850744054896,0.0043315939425096275,0.037983134827796826
1.0055556789653841,0.18078890709766565,0.02004845283836577,0.05135766337998839,0.014320129147888576,0.05106729570312518
1.0056027609905145,0.18307418566708303,0.02101077207616674,0.06056084021799014,0.024899189421876983,0.060071942808223845
1.0056498430156449,0.1741533504439713,0.022049014230795673,0.06655908741414072,0.033777884577199685,0.06591200634112457
1.0056969250407752,0.16242605985016223,0.02187694770276829,0.07063087442771013,0.041523965130722235,0.06985223412653428
1.0057440070659056,0.15418810481596457,0.020166562723172642,0.07107575192890922,0.045268931687622464,0.07023443269542727
1.005791089091036,0.1523552110015489,0.016781309880226688,0.0660360559428213,0.045627508618420465,0.06518362550024254
1.0058381711161664,0.15691036178882456,0.014381028432907735,0.06130313889977103,0.044750183216772946,0.06046103013025526
1.0058852531412967,0.16538784679386007,0.01439652297205749,0.06307528196508604,0.04267219826198805,0.06227059659971501
1.005932335166427,0.17322460684996496,0.013646178132979624,0.06323184659303546,0.038660409236970415,0.062496979601394435
1.0059794171915575,0.17475929729964576,0.011326434035892553,0.05880087400333982,0.03276313918334893,0.05816821938719104
1.0060264992166879,0.16548577922015562,0.009048648611359941,0.05204155960234529,0.02706657103443405,0.05151071841665977
1.0060735812418182,0.1445721481217929,0.006880229209943399,0.04234591607178599,0.020424846055026976,0.04193869067838407
1.0061206632669486,0.11538472372115638,0.0046959555065633094,0.03266210113426135,0.01327254261408131,0.03239333375997074
1.006167745292079,0.08342022676517998,0.003063284546252473,0.0259645785337829,0.0071517840287524,0.02581712242699043
1.0062148273172093,0.053714935068683495,0.0038081012899511546,0.01794830890199036,0.0037698097047374167,0.017869468692026932
1.0062619093423397,0.029620632829972474,0.005334683850781903,0.006428025048282717,0.0021504294356280663,0.006383738053346644
1.00630899136747,0.012907514843990737,0.007751701688438849,-0.004503164505502606,0.0037325150865601363,-0.004576959870801901
1.0063560733926005,0.004292560353454192,0.011315880859821733,-0.010519166817943732,0.00738602278491154,-0.010665081385436492
1.0064031554177308,0.0038095921685766332,0.01677146104665721,-0.007972360122875525,0.010093470002905537,-0.008173075738480936
1.0064502374428612,0.010924293923755681,0.02514907532442913,0.0013341291502741227,0.016276597878340494,0.001008392112679148
1.0064973194679916,0.02453035587728399,0.03191220567564856,0.011333716656649779,0.023710525672737376,0.010860273450953183
1.006544401493122,0.042966387475684646,0.03663075366484551,0.020787738978896356,0.030197379352748504,0.020189082599416666
1.0065914835182523,0.06411092062196938,0.038073614966562176,0.03329944681240632,0.0336903753860797,0.0326384396505817
1.0066385655433827,0.08556714248621351,0.040162916533255065,0.049462130528264495,0.03516603749918283,0.04878142281518407
1.006685647568513,0.10493697207975199,0.04131080974025661,0.06485229624100503,0.03477554854481064,0.06418670725942649
1.0067327295936435,0.12014720761669652,0.0407047598238546,0.07640706666955516,0.03327848907109197,0.07577364618142343
1.0067798116187738,0.12974860817624662,0.037221984257058666,0.08294186479002422,0.030423922764791028,0.08236085707552193
1.0068268936439042,0.1331160769266914,0.03503312893496456,0.08436945777741765,0.02650370823187682,0.08385736732742904
1.0068739756690346,0.13051634907150206,0.03066301365047111,0.08386978816652868,0.022659490694987048,0.08342585087302477
1.006921057694165,0.12301693370584733,0.024706086536020782,0.08185258015702256,0.018287969048587767,0.08148765997966574
1.0069681397192953,0.11219272060745543,0.017399555553844818,0.07585112215539112,0.0129602245290059,0.07558530658864047
1.0070152217444257,0.09964098937742749,0.010972841983075354,0.06985230351433948,0.007678015661497144,0.06968796324628938
1.007062303769556,0.08648287672211809,0.006130229302432838,0.06302251331950957,0.003930941088394638,0.06293226729114447
1.0071093857946865,0.07315337862299943,0.0036028756356987703,0.053521194673379444,0.001183255316127253,0.05348698379036689
1.0071564678198168,0.05967551136841471,0.001073478693847779,0.042771215350936226,-0.0014838346159530046,0.042792320973800486
1.0072035498449472,0.046352747241279996,-0.0015881842718368576,0.029687677967592516,-0.0026942577800388554,0.029735676058108486
1.0072506318700776,0.03458526276589038,-0.0027335051151054727,0.01916866027493343,-0.0019952544505658525,0.0192047560031038
1.007297713895208,0.02727830692374265,-0.002342214564309366,0.01473006896934623,-0.001196420943445841,0.01475105848487358
1.0073447959203383,0.0280866607277734,-0.001057589573241306,0.01711698325886342,9.08792778985035e-05,0.017111741880063196
1.0073918779454687,0.03925806445151868,0.0034167025754549395,0.028584290137595406,0.003370654555766731,0.028511390987144166
1.007438959970599,0.059562255279517966,0.009523110435104133,0.043832242766228824,0.007591102608584366,0.04367332427769722
1.0074860419957294,0.08449757331606145,0.014737303054871836,0.058037587268334905,0.012186605306426943,0.05778772828250224
1.0075331240208598,0.10858230355013457,0.018195608578531364,0.06858033205585247,0.016928864267512375,0.06824012774117201
1.0075802060459902,0.12742598805780986,0.02119281969512738,0.07621925524513734,0.020720678221739754,0.07580935442318489
1.0076272880711206,0.13840784538629322,0.022221287665642738,0.07904744927672683,0.02288116557456821,0.07859871289870397
1.007674370096251,0.14057521646913557,0.021053710284290202,0.0769603579802706,0.023739373842533745,0.07649577304224436
1.0077214521213813,0.1345761316442056,0.01892339789200373,0.07084930100861353,0.0225763197974853,0.07040479695372573
