freq,gls,usurper,pdc_unbiased,shape_periodogram,shift_periodogram
1.0,0.02176245538732735,0.02723682819704891,-0.007335655112181927,-0.00013318812715207957,-0.007321049030369604
1.0000470820251304,0.05134779247241603,0.043779833274999846,0.016081221596065367,0.009702068135460698,0.015603123773117383
1.0000941640502607,0.09689124580742478,0.05919504835552377,0.05094334186944231,0.02766814286066268,0.0495956344041843
1.0001412460753911,0.14848755125694818,0.07510135322072584,0.08456655871201842,0.04457694502571054,0.0824578117848626
1.0001883281005215,0.19664060203551523,0.08783637584599303,0.10917973127593883,0.05977170610823828,0.10645615187621407
1.0002354101256519,0.23592916525893703,0.09469837638963333,0.12678225514793529,0.07050241328109862,0.12367376216501169
1.0002824921507822,0.26363730657080775,0.09652558965912077,0.13936052532630389,0.07601180818497079,0.13608391853933585
1.0003295741759126,0.2780607972143743,0.09708358021874357,0.14663287491158739,0.07894365834518316,0.14327611397980888
1.000376656201043,0.27778293516045677,0.09685512659498645,0.14742341655727248,0.07935880749110286,0.1440549156583359
1.0004237382261734,0.2619162710265795,0.09302503311588035,0.139633635428265,0.07805007418503974,0.13628460757007846
1.0004708202513037,0.23107843684954268,0.08502549601608157,0.12167319492364326,0.07420628575245236,0.11841055295956085
1.0005179022764341,0.1884924826566669,0.07471007370634976,0.09811663264576473,0.06862837732327665,0.09501436997658202
1.0005649843015645,0.1401213853463462,0.06673308263212988,0.07552593926328457,0.06314486695067385,0.07261044780186138
1.0006120663266949,0.09311329616242185,0.06167908276750459,0.056936636782797936,0.057057521724867395,0.054262954701682194
1.0006591483518252,0.05338098213176131,0.06100365416715753,0.04656239048066332,0.0496006194632532,0.04421544679251934
1.0007062303769556,0.024158292773911582,0.06021283411649634,0.0379052596807291,0.04041024211172564,0.03597627809158183
1.000753312402086,0.006389706849983347,0.0569549298712509,0.024925530867037873,0.02955390793673731,0.023505068266197884
1.0008003944272164,4.4957735270936574e-05,0.055834380107160755,0.013623927240606612,0.019592253458630204,0.012680575597225525
1.0008474764523467,0.004476680458159687,0.052551800029944556,0.005279248516488982,0.0159781005274139,0.0045149182298758785
1.000894558477477,0.016631009383087918,0.054339709211781134,0.00604487589630294,0.017835478222738302,0.005191716509308141
1.0009416405026075,0.030279800796216314,0.06327522438006375,0.01614856324889533,0.02467101194921331,0.014963421418013566
1.0009887225277379,0.04019506929021177,0.077054842373116,0.031662352407458065,0.03694841189423515,0.029894446943971833
1.0010358045528682,0.045271217739530065,0.08935835890482313,0.049643587368788454,0.05141874549444223,0.04721613641284137
1.0010828865779986,0.04665854735345898,0.0937531005472737,0.06394396252727896,0.06573857827990887,0.060898854305784976
1.001129968603129,0.04557434040645729,0.09425660721415387,0.06951556918541625,0.07668784806360947,0.06601325681263746
1.0011770506282593,0.04281463251624272,0.08829794226111085,0.06676401531502141,0.08254266423576892,0.0630069247805658
1.0012241326533897,0.03911406922799136,0.07885930295459571,0.05756222886158259,0.08464600368950698,0.05368739786743659
1.00127121467852,0.035734840091298535,0.06859965545806933,0.04469056838221148,0.08416231096195244,0.04079785087412236
1.0013182967036505,0.034632288517627896,0.06075284988205423,0.03354469161607427,0.08423152905349182,0.029616917079766332
1.0013653787287808,0.03686446430802818,0.06318951993391268,0.03235087082016887,0.0853950236505728,0.028367173364110602
1.0014124607539112,0.040499198873267514,0.07231966141576592,0.04235422606047071,0.08812285216490452,0.038279449478969385
1.0014595427790416,0.04245011553894062,0.08058303617684422,0.05148956578485458,0.08968564115000696,0.047377482078340714
1.001506624804172,0.04142424671447975,0.0848474020254316,0.057489670337512934,0.08678312653282262,0.05352301804705438
1.0015537068293023,0.03772147907862947,0.08387351147948793,0.05838903434484734,0.07970778346258033,0.0547288500460392
1.0016007888544327,0.032149333674356434,0.07983705355266267,0.05286952532393206,0.0673289239406061,0.0497369882116671
1.001647870879563,0.025799799790141527,0.07252204629230481,0.040386054375886556,0.05085039940058955,0.03797971169507196
1.0016949529046935,0.020580986012262138,0.06107452483823352,0.02276083148008517,0.03312032331656132,0.021174654588182212
1.0017420349298238,0.01993155776046648,0.052030712902002826,0.008396000375120035,0.019439204954140463,0.007464640492377777
1.0017891169549542,0.027489951613850306,0.04958640269195854,0.00883020356959996,0.01582746719375237,0.008069508307857525
1.0018361989800846,0.042074300128446054,0.0503331646042626,0.022145335055818467,0.020868375969004115,0.021134377629330035
1.001883281005215,0.05845891480384451,0.05601453908141117,0.04104344236602053,0.03154724604068385,0.039521947493670787
1.0019303630303453,0.07582159493280267,0.06562205236574324,0.05832937685591873,0.04279038445247436,0.05629255755612206
1.0019774450554757,0.09824195100672209,0.07349237829782024,0.07041397317164165,0.05300869333197092,0.06792999291558537
1.002024527080606,0.1303669711588208,0.07275723285950565,0.07896421651578898,0.0604347990100618,0.07616914265897318
1.0020716091057364,0.17464242099810953,0.06718962343991,0.08832693698111686,0.06520495248667971,0.08534587757056344
1.0021186911308668,0.22917237164395338,0.07092220284636293,0.11355266104308831,0.06960687398261871,0.11044617667079458
1.0021657731559972,0.2864808872447173,0.08058524784436463,0.14880372324738836,0.07459290258746401,0.1456074349418253
1.0022128551811276,0.335488571803669,0.09002424490068864,0.17945522269565434,0.07891068977658271,0.17621904670507338
1.002259937206258,0.3667004160945303,0.09627559523111329,0.20044309409803335,0.0810153045870615,0.19722582289233315
1.0023070192313883,0.37630521047742305,0.09857018030644109,0.20989430295355302,0.08028723505733809,0.2067376125819068
1.0023541012565187,0.3658732131217113,0.09666459600597313,0.20800353236518512,0.07676364782312647,0.20494174599814605
1.002401183281649,0.3393357840705059,0.09104225588411242,0.19716291122807472,0.07014414855319448,0.19426653973747565
1.0024482653067794,0.30043566038503033,0.08285557479611283,0.1783931936762516,0.0601386448382199,0.17578287908138315
1.0024953473319098,0.25183659939415354,0.07237051616211042,0.15384153094853617,0.046499231369441126,0.15170024798264345
1.0025424293570402,0.1956066522565673,0.05855570753530958,0.12081929242955049,0.031722650163103924,0.1192696192152009
1.0025895113821706,0.13475970805500284,0.03953468293675042,0.07564140824241966,0.015799421711809078,0.07482166528711676
1.002636593407301,0.07582916802294695,0.020275607089991272,0.025728531183742454,0.0033799730518701853,0.025539259746535526
1.0026836754324313,0.03145358980808763,0.016481181426411008,-0.0040036080406334615,-0.00012779333777841948,-0.00399301868591878
1.0027307574575617,0.01779891286180085,0.028029852670160414,-0.006351274616742859,0.00996921362128885,-0.006817960629249308
1.002777839482692,0.04358985242398123,0.03336571812568883,0.006591376950054447,0.02828081329268613,0.005242739208674045
1.0028249215078224,0.1037077589167159,0.04160569833392182,0.04281328660270074,0.04633017542571423,0.04061358996724378
1.0028720035329528,0.18101238562213362,0.05841083588512736,0.0979436666785688,0.06218454831469105,0.09510380187252293
1.0029190855580832,0.25636899888384335,0.08048648513436754,0.15380629462607742,0.07327297303395762,0.1506719603812078
1.0029661675832136,0.31832235074100634,0.10177355184713645,0.19704252226634572,0.07437524359232596,0.1940129478603289
1.003013249608344,0.36361141655314383,0.11228952105368793,0.228525784613192,0.07448198324351984,0.22560728051767617
1.0030603316334743,0.39341420767750745,0.11863825964074942,0.24979870354304085,0.07467642731221436,0.24695672658273088
1.0031074136586047,0.4102870696014962,0.12073281467326633,0.26258314989231946,0.07309880831808557,0.25983128328644
1.003154495683735,0.41662904201390033,0.12031107784719804,0.266777273312063,0.07043683990983733,0.26410827538650333
1.0032015777088654,0.41405085665469693,0.11741143047553766,0.26326150551395927,0.06616384217484704,0.2606915568724734
1.0032486597339958,0.4030953535584088,0.11204917565234114,0.251751202986526,0.06015008533733103,0.24931528215594823
1.0032957417591262,0.38301151602067063,0.10415136873185761,0.2324239377319079,0.05248601162919827,0.23017999729293454
1.0033428237842565,0.3514583105172215,0.09328177279361283,0.2047530276495091,0.04293110949423694,0.20279704668474313
1.003389905809387,0.3042863356687068,0.0791798877735521,0.16911475512504195,0.0317535489387173,0.16756667172951958
1.0034369878345173,0.2364892670841809,0.0625457551182881,0.12615890065588273,0.019489165071925475,0.12513820443760573
1.0034840698596477,0.14805992805189566,0.04416259813760941,0.07745804013496241,0.007405672120625961,0.07702459175948617
1.003531151884778,0.05937981673678241,0.030157141217170867,0.035632586371168055,-0.0013765529296250328,0.03565771190782726
1.0035782339099084,0.016571701488668728,0.026058617313776206,0.012038086514572617,-0.0032163457128760024,0.012177308685404672
1.0036253159350388,0.04141534161646615,0.03558799427758763,0.014399178728297872,0.005099098199319331,0.014140973916102095
1.0036723979601692,0.0978579156313711,0.05208186869539875,0.03595348541122598,0.01936176126148613,0.03500153813999285
1.0037194799852995,0.14599333246590304,0.0713228479758008,0.06503465797160808,0.03741619177651322,0.06323929307829501
1.00376656201043,0.17300879075255565,0.08671386985169229,0.0922030709843016,0.0554977832455225,0.08963324760223869
1.0038136440355603,0.18229222765708752,0.09924964724642948,0.11374971918924169,0.06911082765371765,0.11066310827601525
1.0038607260606907,0.18262972424027749,0.1069056562678261,0.12736778710133306,0.08160495128330188,0.12384777249900146
1.003907808085821,0.18292620727983336,0.10951876449150372,0.13485525602086357,0.09276939569148225,0.13096997675532385
1.0039548901109514,0.18798821740501145,0.11054231655705993,0.13913083302593265,0.09803076181060007,0.13508909611359227
1.0040019721360818,0.19658928748535154,0.10964578537286385,0.1397247738744464,0.09852093677341967,0.13566997493520852
1.0040490541612122,0.20361099360789395,0.10888083001595858,0.1356935801867525,0.09537934792637373,0.131723088964615
1.0040961361863425,0.20356945018764083,0.10456895734801305,0.1287855413388881,0.09058009377432785,0.1249485487139346
1.004143218211473,0.19261735903368254,0.09398434255717686,0.11776025800915435,0.08257137447921024,0.11417027961826955
1.0041903002366033,0.1692114287165738,0.07985536968786648,0.09836742477706704,0.07218682402692465,0.09512229868269105
1.0042373822617336,0.13469585530973552,0.06368231563107696,0.07519967777083232,0.05974724334809217,0.07242903476153392
1.004284464286864,0.094068350002802,0.048832252352211905,0.051842634052145065,0.04487399996854954,0.04971088778151344
1.0043315463119944,0.0558705414627791,0.036530704198071806,0.03082107495389939,0.029140138469146405,0.02941649454168218
1.0043786283371248,0.029785725493520713,0.029300038547667284,0.019809015244991575,0.015253193382705211,0.01906474955410235
1.0044257103622551,0.022326134922130727,0.027128353454543994,0.01684685304795892,0.00498466636971691,0.016591370453806195
1.0044727923873855,0.03362727707623793,0.02910796231950993,0.01768087969631584,0.000496944457217942,0.01763733549870516
1.004519874412516,0.057935866130881315,0.034652900207497776,0.0238553638180855,0.0015940530398128084,0.023752826426023138
1.0045669564376463,0.08691312585069338,0.04407753969530714,0.038233159934289905,0.008774057003792262,0.03777564264410919
1.0046140384627766,0.11302745450084833,0.05575910809875392,0.05542672474865837,0.021467045125179662,0.054361735453394865
1.004661120487907,0.13143773576861661,0.0659275300650041,0.07126698378066398,0.03555415358045561,0.06955437442126393
1.0047082025130374,0.140315951549541,0.07341354303525065,0.0817840112464661,0.048991591659981765,0.07948261206071239
1.0047552845381678,0.14016084842095028,0.07624352723712885,0.0846685751900148,0.060128645192059474,0.0818942827508932
1.0048023665632981,0.13271042804166153,0.07425911510589743,0.08028160564993014,0.06725775302265653,0.07720010161258019
1.0048494485884285,0.1199532079956697,0.06977184407528916,0.06958311394397716,0.07312602000716681,0.0662318546670884
1.0048965306135589,0.10352759540252561,0.06300343996846214,0.05738407400153901,0.07525700059347706,0.053913714152408185
1.0049436126386893,0.08458770500586026,0.054047784994859994,0.04469505929439128,0.07409538791372576,0.04124801161682071
1.0049906946638196,0.06411017510052013,0.04582245161132588,0.03435472552873721,0.07042070333398391,0.03105331174900125
1.00503777668895,0.043500849939608656,0.038115705277352106,0.022887706523455283,0.06413493034256,0.019858366313943533
1.0050848587140804,0.02497562650004661,0.031180369964629345,0.013888116903115118,0.05550866735225324,0.011253703110990661
1.0051319407392107,0.011013597455985432,0.027485341000954906,0.011624969459267675,0.04629577339596345,0.009423224672776582
1.0051790227643411,0.003334338693202587,0.023693089542704184,0.009001101837417943,0.0360107248831413,0.0072852941136250975
1.0052261047894715,0.0027948227754708652,0.018146621073113364,0.005716764128480125,0.026230024314310544,0.004465945437037981
1.0052731868146019,0.010164673003053454,0.012805541095679353,0.005314070387151807,0.016322031374212086,0.004533392192438256
1.0053202688397322,0.026566180290056158,0.009436506411034594,0.008193549268036414,0.006651291669332682,0.007868562889375898
1.0053673508648626,0.05291846997433676,0.009012303460773611,0.011498759854167706,0.0011195825969017824,0.01143261809473864
1.005414432889993,0.08828034555015178,0.012637212995195284,0.017065936640710815,-0.001344645026789519,0.017110537523588525
1.0054615149151234,0.12763762777320273,0.016865799606296892,0.025647230237824777,-0.0010904866142503627,0.02567006178551942
1.0055085969402537,0.16155770115500132,0.022069522023757136,0.038076850744054896,0.004389572715308307,0.0378262363977322
1.0055556789653841,0.18078890709766565,0.027260724269645372,0.05135766337998839,0.014250965572528113,0.05063067270906508
1.0056027609905145,0.18307418566708303,0.03078464005345079,0.06056084021799014,0.025993556697154606,0.05928460662156574
1.0056498430156449,0.1741533504439713,0.032780625257830404,0.06655908741414072,0.034380015499193686,0.06489996364825945
1.0056969250407752,0.16242605985016223,0.033425569593583254,0.07063087442771013,0.040969193125917854,0.06867697495338596
1.0057440070659056,0.15418810481596457,0.032816443181498886,0.07107575192890922,0.044553659346310184,0.06896325371607451
1.005791089091036,0.1523552110015489,0.030661953784651114,0.0660360559428213,0.044983129495180844,0.06390300666467047
1.0058381711161664,0.15691036178882456,0.02932316931176952,0.06130313889977103,0.044409467780723334,0.05919435594988284
1.0058852531412967,0.16538784679386007,0.03103773396705167,0.06307528196508604,0.04383276121702365,0.0609926537976643
1.005932335166427,0.17322460684996496,0.03008660436020018,0.06323184659303546,0.04181155897250413,0.06123952469347602
1.0059794171915575,0.17475929729964576,0.02748405393422263,0.05880087400333982,0.03772373724854977,0.056992236571987
1.0060264992166879,0.16548577922015562,0.024389664256174826,0.05204155960234529,0.032282240621809254,0.05048181186709772
1.0060735812418182,0.1445721481217929,0.020687648348839374,0.04234591607178599,0.024939030781876922,0.041129434311576826
1.0061206632669486,0.11538472372115638,0.017830887935844454,0.03266210113426135,0.01604963133524977,0.03186818783493333
1.006167745292079,0.08342022676517998,0.014547938314392736,0.0259645785337829,0.008097089409420239,0.02555188923857615
1.0062148273172093,0.053714935068683495,0.0130736874524932,0.01794830890199036,0.002394182482460969,0.017814434830413207
1.0062619093423397,0.029620632829972474,0.011355078530776535,0.006428025048282717,-0.0009394302483459071,0.0064653932466294155
1.00630899136747,0.012907514843990737,0.010667674612715138,-0.004503164505502606,-0.00022181737504048773,-0.004487545299348677
1.0063560733926005,0.004292560353454192,0.011313780049997276,-0.010519166817943732,0.003730517418381375,-0.01068454161953382
1.0064031554177308,0.0038095921685766332,0.01441469520539927,-0.007972360122875525,0.00892008019669966,-0.008387364855510115
1.0064502374428612,0.010924293923755681,0.02242771010838283,0.0013341291502741227,0.019485992132173086,0.00040709858452669614
1.0064973194679916,0.02453035587728399,0.03008782384551102,0.011333716656649779,0.031233444400311283,0.009842357522079433
1.006544401493122,0.042966387475684646,0.03634240244114982,0.020787738978896356,0.042808915996973416,0.018749192034278585
1.0065914835182523,0.06411092062196938,0.040838901880639725,0.03329944681240632,0.049591880774639926,0.030947919998568135
1.0066385655433827,0.08556714248621351,0.04548630002439101,0.049462130528264495,0.05201182507574377,0.04700790705673704
1.006685647568513,0.10493697207975199,0.04945967458654638,0.06485229624100503,0.05154916295836451,0.06242826836938037
1.0067327295936435,0.12014720761669652,0.05157694961085609,0.07640706666955516,0.0491156353859546,0.07409696422898761
1.0067798116187738,0.12974860817624662,0.051961191262235897,0.08294186479002422,0.04461358102095734,0.08083088745520722
1.0068268936439042,0.1331160769266914,0.05263082267317817,0.08436945777741765,0.038613774484172796,0.08252092085671386
1.0068739756690346,0.13051634907150206,0.04974774372812128,0.08386978816652868,0.03178394416350789,0.08232290920133087
1.006921057694165,0.12301693370584733,0.04347008166480359,0.08185258015702256,0.026183023434991022,0.0805567864579146
1.0069681397192953,0.11219272060745543,0.035623107775563136,0.07585112215539112,0.020248153791792105,0.07482760758111766
1.0070152217444257,0.09964098937742749,0.028709067840769355,0.06985230351433948,0.014385188092963068,0.0691025794721901
1.007062303769556,0.08648287672211809,0.02307967743474859,0.06302251331950957,0.009408163179486477,0.06251014947216267
1.0071093857946865,0.07315337862299943,0.019747983777424927,0.053521194673379444,0.005042177724168054,0.05322314028190904
1.0071564678198168,0.05967551136841471,0.01766000422085267,0.042771215350936226,0.0013244092356137164,0.04266032164522916
1.0072035498449472,0.046352747241279996,0.01388211924285221,0.029687677967592516,-0.0018181524499105346,0.02974049464186947
1.0072506318700776,0.03458526276589038,0.011843635353005741,0.01916866027493343,-0.0027510454654586717,0.0192777083300579
1.007297713895208,0.02727830692374265,0.011477217793426694,0.01473006896934623,-0.0026620646707525546,0.01483990691061834
1.0073447959203383,0.0280866607277734,0.014474800411674245,0.01711698325886342,-0.0009010707182820468,0.01714045699305225
1.0073918779454687,0.03925806445151868,0.022670810627053367,0.028584290137595406,0.004205471713167363,0.02835277947776302
1.007438959970599,0.059562255279517966,0.03286173662486251,0.043832242766228824,0.010683850635525722,0.04327927378154743
1.0074860419957294,0.08449757331606145,0.04189871920798917,0.058037587268334905,0.017601692072121457,0.057149173346758356
1.0075331240208598,0.10858230355013457,0.0484065196433138,0.06858033205585247,0.025280642867197663,0.06733214642957529
1.0075802060459902,0.12742598805780986,0.05305862494109742,0.07621925524513734,0.030648612131810606,0.07472518948347141
1.0076272880711206,0.13840784538629322,0.05365827319890193,0.07904744927672683,0.0337612721707993,0.07741362656299378
1.007674370096251,0.14057521646913557,0.05087810435078482,0.0769603579802706,0.0358346084964233,0.07523460656730128
1.0077214521213813,0.1345761316442056,0.047229221006627235,0.07084930100861353,0.035477056485871114,0.06914019744477548
1.0077685341465117,0.12269802495893224,0.04145870385311695,0.062425783036096825,0.03298394651348086,0.06083070168723022
