freq,gls,usurper,pdc_unbiased,shape_periodogram,shift_periodogram
1.0,0.02176245538732735,0.02760343221888013,-0.007335655112181927,0.007583443849214405,-0.007627350704020517
1.0000470820251304,0.05134779247241603,0.040943070949130723,0.016081221596065367,0.01319471034328057,0.015553429127376919
1.0000941640502607,0.09689124580742478,0.054547393535649656,0.05094334186944231,0.026574160753989974,0.04988463237936679
1.0001412460753911,0.14848755125694818,0.06909852097650708,0.08456655871201842,0.042857562351885585,0.08291610593368597
1.0001883281005215,0.19664060203551523,0.08303095549494804,0.10917973127593883,0.06112200966374153,0.10694139741600604
1.0002354101256519,0.23592916525893703,0.09301305206250111,0.12678225514793529,0.07523940131044035,0.1241540470545168
1.0002824921507822,0.26363730657080775,0.09751929803186764,0.13936052532630389,0.08376383749680336,0.13653735466558112
1.0003295741759126,0.2780607972143743,0.1004017102967639,0.14663287491158739,0.0890958608225506,0.1437007701441807
1.000376656201043,0.27778293516045677,0.10156736456670756,0.14742341655727248,0.09142080523456575,0.1444362021828127
1.0004237382261734,0.2619162710265795,0.09829001712550674,0.139633635428265,0.09160628109465607,0.13660464723801435
1.0004708202513037,0.23107843684954268,0.09092908124969647,0.12167319492364326,0.08836429457035512,0.11865087921782538
1.0005179022764341,0.1884924826566669,0.08112077339958404,0.09811663264576473,0.0829772413194986,0.09516127179008534
1.0005649843015645,0.1401213853463462,0.0732533291681792,0.07552593926328457,0.07728463746824506,0.07268117257190167
1.0006120663266949,0.09311329616242185,0.06745204924800165,0.056936636782797936,0.07044690856916225,0.05428002634917909
1.0006591483518252,0.05338098213176131,0.06460370444478135,0.04656239048066332,0.06110874944013601,0.04422221724666241
1.0007062303769556,0.024158292773911582,0.06074702247160222,0.0379052596807291,0.04925412087067413,0.0359938959682059
1.000753312402086,0.006389706849983347,0.05577161368603347,0.024925530867037873,0.03508477125138355,0.023547411894407795
1.0008003944272164,4.4957735270936574e-05,0.053113209898195436,0.013623927240606612,0.022528932330528682,0.012734201433670708
1.0008474764523467,0.004476680458159687,0.05009523287494182,0.005279248516488982,0.01826712818397548,0.00456024011621047
1.000894558477477,0.016631009383087918,0.052977214590107645,0.00604487589630294,0.021012023819544416,0.005218133601328067
1.0009416405026075,0.030279800796216314,0.06272798178989306,0.01614856324889533,0.029984531095484056,0.014968469028763243
1.0009887225277379,0.04019506929021177,0.07691087164785486,0.031662352407458065,0.0455463697660208,0.029886987160881638
1.0010358045528682,0.045271217739530065,0.0883501144951918,0.049643587368788454,0.06416121792425951,0.04719744436194768
1.0010828865779986,0.04665854735345898,0.09458162103348795,0.06394396252727896,0.08188062497830728,0.06090925254832272
1.001129968603129,0.04557434040645729,0.09785813547101908,0.06951556918541625,0.09496181605139851,0.06606440709178844
1.0011770506282593,0.04281463251624272,0.09522041759751393,0.06676401531502141,0.1011090496634624,0.06309829764658442
1.0012241326533897,0.03911406922799136,0.08731351314055975,0.05756222886158259,0.10153479276773962,0.053835666570812714
1.00127121467852,0.035734840091298535,0.07681982012702071,0.04469056838221148,0.09837845053787513,0.04101083035438252
1.0013182967036505,0.034632288517627896,0.0679987180241934,0.03354469161607427,0.09559471401262926,0.029915891160610227
1.0013653787287808,0.03686446430802818,0.06670551604054815,0.03235087082016887,0.09415649057403833,0.02876967512650628
1.0014124607539112,0.040499198873267514,0.07193312582419731,0.04235422606047071,0.09532861504520762,0.03877208449459252
1.0014595427790416,0.04245011553894062,0.07827653276753939,0.05148956578485458,0.09722590502028271,0.04788098895845806
1.001506624804172,0.04142424671447975,0.08123330947475911,0.057489670337512934,0.09451709826961363,0.054000521037986596
1.0015537068293023,0.03772147907862947,0.08060655202555457,0.05838903434484734,0.08646156135378781,0.05517893221192706
1.0016007888544327,0.032149333674356434,0.07628351649145605,0.05286952532393206,0.07286035819812142,0.05011841587658193
1.001647870879563,0.025799799790141527,0.06812493798361753,0.040386054375886556,0.054077882364110236,0.03829708106770377
1.0016949529046935,0.020580986012262138,0.0555085691395654,0.02276083148008517,0.03413570854023722,0.02141931433941979
1.0017420349298238,0.01993155776046648,0.046835314913373643,0.008396000375120035,0.018939662978194948,0.007648904360159772
1.0017891169549542,0.027489951613850306,0.04558255306522873,0.00883020356959996,0.016335455702675115,0.008184530009049977
1.0018361989800846,0.042074300128446054,0.04789888545049303,0.022145335055818467,0.023205015859539095,0.02122547394995166
1.001883281005215,0.05845891480384451,0.0564384503799752,0.04104344236602053,0.037231221581652256,0.03958413813065981
1.0019303630303453,0.07582159493280267,0.06814439041375252,0.05832937685591873,0.05336649095755736,0.05628395737777805
1.0019774450554757,0.09824195100672209,0.07672554477124922,0.07041397317164165,0.07035165710248312,0.06779051432372322
1.002024527080606,0.1303669711588208,0.07670827533473931,0.07896421651578898,0.0825655181334171,0.0759556891198794
1.0020716091057364,0.17464242099810953,0.07283405647213462,0.08832693698111686,0.09067845058678757,0.08509453897992668
1.0021186911308668,0.22917237164395338,0.07637491264790001,0.11355266104308831,0.09714161949700664,0.11024638985752284
1.0021657731559972,0.2864808872447173,0.08459188553200057,0.14880372324738836,0.10360224789294502,0.14552970534526574
1.0022128551811276,0.335488571803669,0.09248391159519213,0.17945522269565434,0.10916712852856787,0.17626556161526108
1.002259937206258,0.3667004160945303,0.09728456613262171,0.20044309409803335,0.11201942836434643,0.1973565848187424
1.0023070192313883,0.37630521047742305,0.09839117575742483,0.20989430295355302,0.11134012132782706,0.20688872020798244
1.0023541012565187,0.3658732131217113,0.09584514166035048,0.20800353236518512,0.10730772420941978,0.20504526058766565
1.002401183281649,0.3393357840705059,0.09147341101307993,0.19716291122807472,0.1000811166167715,0.19425669689033143
1.0024482653067794,0.30043566038503033,0.08548693621691578,0.1783931936762516,0.08815513548828065,0.17562961716089234
1.0024953473319098,0.25183659939415354,0.07621196324368698,0.15384153094853617,0.07051102145616488,0.15142740447390038
1.0025424293570402,0.1956066522565673,0.06135608720871424,0.12081929242955049,0.048509204261035686,0.1190060739359793
1.0025895113821706,0.13475970805500284,0.042593523315352474,0.07564140824241966,0.023071762360285887,0.07470707788861064
1.002636593407301,0.07582916802294695,0.026297008917012973,0.025728531183742454,0.0025722691484353732,0.025608184823616098
1.0026836754324313,0.03145358980808763,0.022040570627620954,-0.0040036080406334615,-0.0025415488100089733,-0.0039009658198475065
1.0027307574575617,0.01779891286180085,0.03120990790324514,-0.006351274616742859,0.012356492405088442,-0.0068310388672763265
1.002777839482692,0.04358985242398123,0.03924650478006956,0.006591376950054447,0.03931233299224562,0.005049964581268151
1.0028249215078224,0.1037077589167159,0.0535926233922531,0.04281328660270074,0.06450785517384595,0.04034335344840151
1.0028720035329528,0.18101238562213362,0.07486054247351613,0.0979436666785688,0.08308531152193978,0.09498434942075272
1.0029190855580832,0.25636899888384335,0.09654607194593208,0.15380629462607742,0.09431411974213853,0.15077966562494724
1.0029661675832136,0.31832235074100634,0.113633996164094,0.19704252226634572,0.09726287319523608,0.19418786084455733
1.003013249608344,0.36361141655314383,0.12223216091317621,0.228525784613192,0.09839629708533558,0.22583755769319316
1.0030603316334743,0.39341420767750745,0.12638470706799243,0.24979870354304085,0.0978469603438829,0.24724725260537198
1.0031074136586047,0.4102870696014962,0.12681847416530584,0.26258314989231946,0.09554184372676895,0.2601370055913919
1.003154495683735,0.41662904201390033,0.1251159362863033,0.266777273312063,0.09183920717931833,0.26440053147412224
1.0032015777088654,0.41405085665469693,0.12124730588554458,0.26326150551395927,0.08647676796843226,0.2609379879172559
1.0032486597339958,0.4030953535584088,0.11521060819124507,0.251751202986526,0.07924940404094598,0.2494879113270962
1.0032957417591262,0.38301151602067063,0.10680999381824592,0.2324239377319079,0.07012092756783132,0.23026139325087006
1.0033428237842565,0.3514583105172215,0.09565646589111179,0.2047530276495091,0.05884481959364691,0.20277545592985474
1.003389905809387,0.3042863356687068,0.08138742937389964,0.16911475512504195,0.045740025748710327,0.16744221350108293
1.0034369878345173,0.2364892670841809,0.06464941981570678,0.12615890065588273,0.03113305046533578,0.12493201706155749
1.0034840698596477,0.14805992805189566,0.046709629687142054,0.07745804013496241,0.016269909382205558,0.07677720541290371
1.003531151884778,0.05937981673678241,0.03357553286302328,0.035632586371168055,0.004890207056223006,0.03541443600329975
1.0035782339099084,0.016571701488668728,0.030575699433331056,0.012038086514572617,0.0009853854360337704,0.01199024858712008
1.0036253159350388,0.04141534161646615,0.040924117434598443,0.014399178728297872,0.008711606974249046,0.014047422608966615
1.0036723979601692,0.0978579156313711,0.0592520695488563,0.03595348541122598,0.0252023170126139,0.03495138378179564
1.0037194799852995,0.14599333246590304,0.08146261623600233,0.06503465797160808,0.04516325992363817,0.06329056431874416
1.00376656201043,0.17300879075255565,0.0981496782071582,0.0922030709843016,0.06467808009869971,0.0898165375720763
1.0038136440355603,0.18229222765708752,0.10981111093627093,0.11374971918924169,0.07719021448984116,0.11102313684119237
1.0038607260606907,0.18262972424027749,0.11541050516085477,0.12736778710133306,0.0867961125421395,0.12441319726178975
1.003907808085821,0.18292620727983336,0.11667515407345647,0.13485525602086357,0.09594909473134469,0.13169043443436343
1.0039548901109514,0.18798821740501145,0.11721053564019826,0.13913083302593265,0.10132136187416671,0.13585383114352645
1.0040019721360818,0.19658928748535154,0.11560203347826412,0.1397247738744464,0.10277836745352417,0.136415534552888
1.0040490541612122,0.20361099360789395,0.11214967154061475,0.1356935801867525,0.10144680434950049,0.13239359924588945
1.0040961361863425,0.20356945018764083,0.10500565605108277,0.1287855413388881,0.09858573548640429,0.12552020059441518
1.004143218211473,0.19261735903368254,0.09415099363776401,0.11776025800915435,0.09355586121532032,0.11457493693304333
1.0041903002366033,0.1692114287165738,0.08043541258424329,0.09836742477706704,0.0843806349164212,0.09536970519276737
1.0042373822617336,0.13469585530973552,0.06482343654809686,0.07519967777083232,0.07143557349697346,0.07255046245183032
1.004284464286864,0.094068350002802,0.04957312524750755,0.051842634052145065,0.055768012066214845,0.0497034179669569
1.0043315463119944,0.0558705414627791,0.03624172143673808,0.03082107495389939,0.03814589220537898,0.029326150194508304
1.0043786283371248,0.029785725493520713,0.027787533848426083,0.019809015244991575,0.021567146230909714,0.018953649877261843
1.0044257103622551,0.022326134922130727,0.02444372968913184,0.01684685304795892,0.008888355145794715,0.01648645300073697
1.0044727923873855,0.03362727707623793,0.02572957733459969,0.01768087969631584,0.002829637314910214,0.01755655784452901
1.004519874412516,0.057935866130881315,0.03099557869668651,0.0238553638180855,0.0032594111344469725,0.023709579618150258
1.0045669564376463,0.08691312585069338,0.04020620927169104,0.038233159934289905,0.011195767742289952,0.03776848426969317
1.0046140384627766,0.11302745450084833,0.052021273983345676,0.05542672474865837,0.026217131324656313,0.054380327863910366
1.004661120487907,0.13143773576861661,0.06327453428904127,0.07126698378066398,0.04359605183031354,0.06958286524950354
1.0047082025130374,0.140315951549541,0.07279774630791148,0.0817840112464661,0.06117228614463026,0.079496002191695
1.0047552845381678,0.14016084842095028,0.07689933150059326,0.0846685751900148,0.07583524202299648,0.08189766591105127
1.0048023665632981,0.13271042804166153,0.07589379795152196,0.08028160564993014,0.0858787850278446,0.0771699675899491
1.0048494485884285,0.1199532079956697,0.07202762353710258,0.06958311394397716,0.09361421691392098,0.06617650024349311
1.0048965306135589,0.10352759540252561,0.06795952529162207,0.05738407400153901,0.09726732879780055,0.05380097275791604
1.0049436126386893,0.08458770500586026,0.06137490281529175,0.04469505929439128,0.09659849347741523,0.04107806191852616
1.0049906946638196,0.06411017510052013,0.0558958310064441,0.03435472552873721,0.09196470314384958,0.030861402701810633
1.00503777668895,0.043500849939608656,0.04936267073977748,0.022887706523455283,0.08419863233432434,0.01964303341443573
1.0050848587140804,0.02497562650004661,0.04198165577616942,0.013888116903115118,0.0728116971376085,0.011054555736411483
1.0051319407392107,0.011013597455985432,0.036343972792801035,0.011624969459267675,0.05952075509226352,0.00930077718604309
1.0051790227643411,0.003334338693202587,0.03106203693426387,0.009001101837417943,0.04437876080529766,0.007262672437806179
1.0052261047894715,0.0027948227754708652,0.02227885576586026,0.005716764128480125,0.028499955741969035,0.004597603097936172
1.0052731868146019,0.010164673003053454,0.014134569453654313,0.005314070387151807,0.014697929287349412,0.004734629704883521
1.0053202688397322,0.026566180290056158,0.008980574193543962,0.008193549268036414,0.0027166170979126035,0.008080855870511475
1.0053673508648626,0.05291846997433676,0.007560178006108351,0.011498759854167706,-0.0034327560123218388,0.011624474603265404
1.005414432889993,0.08828034555015178,0.009422597578044633,0.017065936640710815,-0.004822209214586162,0.01724189597833103
1.0054615149151234,0.12763762777320273,0.012612957339986828,0.025647230237824777,-0.002143709280673976,0.025711519206411806
1.0055085969402537,0.16155770115500132,0.01723880789121764,0.038076850744054896,0.0069330376856797235,0.037777495882681165
1.0055556789653841,0.18078890709766565,0.02329445217158454,0.05135766337998839,0.020338364683778306,0.050534956715994235
1.0056027609905145,0.18307418566708303,0.027814569637614986,0.06056084021799014,0.0351002652968714,0.05918292873044092
1.0056498430156449,0.1741533504439713,0.03194658314491504,0.06655908741414072,0.047533786369924155,0.06473060398824684
1.0056969250407752,0.16242605985016223,0.034772387511588024,0.07063087442771013,0.05813072634620541,0.0684308685727497
1.0057440070659056,0.15418810481596457,0.03482360875670227,0.07107575192890922,0.06423308794732074,0.06866415909793008
1.005791089091036,0.1523552110015489,0.03260373993641792,0.0660360559428213,0.06589721039238888,0.06355737715839295
1.0058381711161664,0.15691036178882456,0.031708440739810044,0.06130313889977103,0.06547134598712966,0.058830568158366695
1.0058852531412967,0.16538784679386007,0.032904684182178956,0.06307528196508604,0.06364544034099293,0.060670108517812335
1.005932335166427,0.17322460684996496,0.03192187659168033,0.06323184659303546,0.05913658898510853,0.06098609675431918
1.0059794171915575,0.17475929729964576,0.028832655728206386,0.05880087400333982,0.05185230977832876,0.056810534383622296
1.0060264992166879,0.16548577922015562,0.02516680167068985,0.05204155960234529,0.04365295206683124,0.05034587659112162
1.0060735812418182,0.1445721481217929,0.021229104766675378,0.04234591607178599,0.03382753146063207,0.04101491048976755
1.0061206632669486,0.11538472372115638,0.017784927342965818,0.03266210113426135,0.023387770505018543,0.03173076203344408
1.006167745292079,0.08342022676517998,0.015544616036600492,0.0259645785337829,0.014836183580848686,0.02536670711623751
1.0062148273172093,0.053714935068683495,0.01603307700820482,0.01794830890199036,0.009409953039396783,0.017566782296085846
1.0062619093423397,0.029620632829972474,0.017102104770210406,0.006428025048282717,0.0066526633359889255,0.006162576752343129
1.00630899136747,0.012907514843990737,0.01840228153539582,-0.004503164505502606,0.0067607107896096525,-0.004764704662085762
1.0063560733926005,0.004292560353454192,0.020553118960409834,-0.010519166817943732,0.009223667436402707,-0.010872891608187165
1.0064031554177308,0.0038095921685766332,0.0241612035122433,-0.007972360122875525,0.011730412135664838,-0.008426392138290315
1.0064502374428612,0.010924293923755681,0.03221762588197026,0.0013341291502741227,0.01964845840215459,0.0005633498788781228
1.0064973194679916,0.02453035587728399,0.039506154526520426,0.011333716656649779,0.02988114272119221,0.010158952197112305
1.006544401493122,0.042966387475684646,0.04550670559062524,0.020787738978896356,0.04029855999120324,0.019209351711839965
1.0065914835182523,0.06411092062196938,0.04903743610461736,0.03329944681240632,0.047285501831535084,0.031459230065889486
1.0066385655433827,0.08556714248621351,0.05379565364621947,0.049462130528264495,0.051994026701428026,0.04745822039392302
1.006685647568513,0.10493697207975199,0.05666646791369365,0.06485229624100503,0.054190219997240656,0.06278424835745486
1.0067327295936435,0.12014720761669652,0.05735376093072304,0.07640706666955516,0.05415232343930504,0.07435346067933973
1.0067798116187738,0.12974860817624662,0.055263731740492726,0.08294186479002422,0.051750146379339036,0.08097909222906419
1.0068268936439042,0.1331160769266914,0.05383560153985199,0.08436945777741765,0.04723139559285817,0.08256530130886316
1.0068739756690346,0.13051634907150206,0.04925628571522862,0.08386978816652868,0.042188738520105205,0.08224257716196323
1.006921057694165,0.12301693370584733,0.042162181334199765,0.08185258015702256,0.03605008043771939,0.0804434950246294
1.0069681397192953,0.11219272060745543,0.03343767506682336,0.07585112215539112,0.028423447838621895,0.07471898869886155
1.0070152217444257,0.09964098937742749,0.02526471898035881,0.06985230351433948,0.020926685293372757,0.06899993031442908
1.007062303769556,0.08648287672211809,0.01900650297170379,0.06302251331950957,0.014901410716168528,0.062400783215173776
1.0071093857946865,0.07315337862299943,0.015529251683383082,0.053521194673379444,0.010134719305627574,0.053087523680219045
1.0071564678198168,0.05967551136841471,0.013144020544662977,0.042771215350936226,0.005994484385482412,0.04250495757841985
1.0072035498449472,0.046352747241279996,0.01077974347944132,0.029687677967592516,0.0035704424234487505,0.02952537560760447
1.0072506318700776,0.03458526276589038,0.010285425122215183,0.01916866027493343,0.003401184786412497,0.01902086372650683
1.007297713895208,0.02727830692374265,0.011532898425868387,0.01473006896934623,0.0038043487190963844,0.014569851713505238
1.0073447959203383,0.0280866607277734,0.01560408792725794,0.01711698325886342,0.006350242771398835,0.016855475407165397
1.0073918779454687,0.03925806445151868,0.025077314667627276,0.028584290137595406,0.013296096108827782,0.028044494138133827
1.007438959970599,0.059562255279517966,0.03701060380057779,0.043832242766228824,0.022429728647549618,0.04293306662521668
1.0074860419957294,0.08449757331606145,0.0480978645529273,0.058037587268334905,0.03286316026086122,0.056742425969329664
1.0075331240208598,0.10858230355013457,0.056993120669835425,0.06858033205585247,0.043217969608371515,0.06690841228520719
1.0075802060459902,0.12742598805780986,0.06321853627043011,0.07621925524513734,0.050554396250177554,0.0742914893117978
1.0076272880711206,0.13840784538629322,0.06540588176547883,0.07904744927672683,0.054741769175641095,0.07697648683833239
1.007674370096251,0.14057521646913557,0.06275378750612566,0.0769603579802706,0.05604772890514834,0.07484144452598175
1.0077214521213813,0.1345761316442056,0.05786724836303444,0.07084930100861353,0.0540638161953151,0.06879241646068378
1.0077685341465117,0.12269802495893224,0.050150358475180165,0.062425783036096825,0.048938097661497586,0.060543662871679955
