freq,gls,usurper,pdc_unbiased,shape_periodogram,shift_periodogram
1.0,0.02176245538732735,0.008288512373703729,-0.007335655112181927,0.010420433174399196,-0.0074269359482236
1.0000470820251304,0.05134779247241603,0.009909673713548523,0.016081221596065367,0.009809315572520233,0.01599558952855175
1.0000941640502607,0.09689124580742478,0.012721812506606707,0.05094334186944231,0.011324016961581232,0.05084596263717488
1.0001412460753911,0.14848755125694818,0.015122880863940421,0.08456655871201842,0.017230203370602812,0.0844266577120909
1.0001883281005215,0.19664060203551523,0.017410860989272487,0.10917973127593883,0.0275520477941522,0.10897972495860897
1.0002354101256519,0.23592916525893703,0.02070608534162711,0.12678225514793529,0.037489963180458365,0.1265448838331358
1.0002824921507822,0.26363730657080775,0.025165003543854033,0.13936052532630389,0.045181119835406486,0.13911075721397248
1.0003295741759126,0.2780607972143743,0.027481784555727508,0.14663287491158739,0.04920702002346701,0.14638418973480846
1.000376656201043,0.27778293516045677,0.027508096550239988,0.14742341655727248,0.05208092525132338,0.14717239703676427
1.0004237382261734,0.2619162710265795,0.026989278974901207,0.139633635428265,0.052654914536995924,0.13937068572236913
1.0004708202513037,0.23107843684954268,0.025383341855616894,0.12167319492364326,0.05126309085365879,0.12138726009538407
1.0005179022764341,0.1884924826566669,0.023043640092379553,0.09811663264576473,0.04920677984323619,0.0978059396774658
1.0005649843015645,0.1401213853463462,0.021894845819292724,0.07552593926328457,0.04742396569355733,0.07519581905779237
1.0006120663266949,0.09311329616242185,0.022141416012995734,0.056936636782797936,0.0454210771594855,0.05659722973253562
1.0006591483518252,0.05338098213176131,0.024070180522918986,0.04656239048066332,0.0423343698683334,0.046232792911107504
1.0007062303769556,0.024158292773911582,0.02568858074595553,0.0379052596807291,0.036967033546165144,0.03760675489486956
1.000753312402086,0.006389706849983347,0.027585479655324468,0.024925530867037873,0.030362105401681137,0.0246705589070566
1.0008003944272164,4.4957735270936574e-05,0.028645282605715614,0.013623927240606612,0.025262156996666167,0.013406731939752952
1.0008474764523467,0.004476680458159687,0.02868187079030757,0.005279248516488982,0.024008832971620916,0.0050704691069129075
1.000894558477477,0.016631009383087918,0.03267348759667031,0.00604487589630294,0.025923182527896976,0.005819816760830648
1.0009416405026075,0.030279800796216314,0.0378374229041754,0.01614856324889533,0.03124538420084942,0.015882445097265656
1.0009887225277379,0.04019506929021177,0.043279749129136326,0.031662352407458065,0.038757936743624974,0.031346091985112554
1.0010358045528682,0.045271217739530065,0.04685085434684485,0.049643587368788454,0.048414595222184026,0.04927732243661877
1.0010828865779986,0.04665854735345898,0.05180558274551801,0.06394396252727896,0.056871802503450766,0.06354943382840883
1.001129968603129,0.04557434040645729,0.05393153229429451,0.06951556918541625,0.06383212065394207,0.06909872648426309
1.0011770506282593,0.04281463251624272,0.053725002190926935,0.06676401531502141,0.067025046757852,0.06632746500785286
1.0012241326533897,0.03911406922799136,0.05267414806504642,0.05756222886158259,0.06581666390418069,0.05711047858172793
1.00127121467852,0.035734840091298535,0.04920237076682092,0.04469056838221148,0.061490066825691,0.04423603623384553
1.0013182967036505,0.034632288517627896,0.046317121002684564,0.03354469161607427,0.05768048838302398,0.03309465491613809
1.0013653787287808,0.03686446430802818,0.043758642476983994,0.03235087082016887,0.05590691033538113,0.03191113308624462
1.0014124607539112,0.040499198873267514,0.04179180069549504,0.04235422606047071,0.05670636135064595,0.04192516028967955
1.0014595427790416,0.04245011553894062,0.04258561647175045,0.05148956578485458,0.060107963572385355,0.05105587432859847
1.001506624804172,0.04142424671447975,0.0442294040482793,0.057489670337512934,0.061903840662999775,0.05705762802326083
1.0015537068293023,0.03772147907862947,0.04593687512456691,0.05838903434484734,0.06012553194454456,0.05796797028921212
1.0016007888544327,0.032149333674356434,0.04454952161190354,0.05286952532393206,0.05464881075931951,0.052469576936430756
1.001647870879563,0.025799799790141527,0.039567561361445035,0.040386054375886556,0.04618338633567118,0.04002408071840974
1.0016949529046935,0.020580986012262138,0.03357380131090961,0.02276083148008517,0.036063931678635835,0.0224592909140603
1.0017420349298238,0.01993155776046648,0.030563821739236358,0.008396000375120035,0.029262058831268315,0.008143185687202084
1.0017891169549542,0.027489951613850306,0.02902680476580426,0.00883020356959996,0.029661126974178657,0.008574169497549732
1.0018361989800846,0.042074300128446054,0.02874648499618886,0.022145335055818467,0.032896792648198274,0.021868721668308604
1.001883281005215,0.05845891480384451,0.03271467834089747,0.04104344236602053,0.039643443497923155,0.04072787568509932
1.0019303630303453,0.07582159493280267,0.03413340413692533,0.05832937685591873,0.04808934764876666,0.05797541038498009
1.0019774450554757,0.09824195100672209,0.03218176780043311,0.07041397317164165,0.057283023976035775,0.07002825807989116
1.002024527080606,0.1303669711588208,0.027302760753919617,0.07896421651578898,0.06123260959609981,0.07857701322857549
1.0020716091057364,0.17464242099810953,0.023617644922239625,0.08832693698111686,0.06343993355692733,0.0879508011342434
1.0021186911308668,0.22917237164395338,0.0225728471252195,0.11355266104308831,0.06531245429267814,0.11322659461159353
1.0021657731559972,0.2864808872447173,0.023942051584144135,0.14880372324738836,0.06792504322628605,0.14855900741467043
1.0022128551811276,0.335488571803669,0.025260798457383174,0.17945522269565434,0.07031339936238613,0.17929234296218974
1.002259937206258,0.3667004160945303,0.025557971196559927,0.20044309409803335,0.07158704079772452,0.2003401327950316
1.0023070192313883,0.37630521047742305,0.024743204954897766,0.20989430295355302,0.07114801460837594,0.2098131238741887
1.0023541012565187,0.3658732131217113,0.02339746647954834,0.20800353236518512,0.06933814545598979,0.20790695856733554
1.002401183281649,0.3393357840705059,0.02170495653089316,0.19716291122807472,0.0673208800468816,0.19703028681558885
1.0024482653067794,0.30043566038503033,0.01988470986380839,0.1783931936762516,0.06252277527108037,0.17820302031582314
1.0024953473319098,0.25183659939415354,0.018989896272520512,0.15384153094853617,0.05266919235882699,0.15359938026933548
1.0025424293570402,0.1956066522565673,0.017188105930556988,0.12081929242955049,0.039815098099283006,0.12056819551072598
1.0025895113821706,0.13475970805500284,0.01699492953466389,0.07564140824241966,0.022686696327822834,0.07546105741189438
1.002636593407301,0.07582916802294695,0.017753109203861403,0.025728531183742454,0.007852112520230442,0.02565970952070357
1.0026836754324313,0.03145358980808763,0.013934364275603598,-0.0040036080406334615,0.0068156731162931665,-0.004063176380677039
1.0027307574575617,0.01779891286180085,0.011210826688794513,-0.006351274616742859,0.022063401187544854,-0.0065456400824054
1.002777839482692,0.04358985242398123,0.015405718426606114,0.006591376950054447,0.03904385725090764,0.006254329513491627
1.0028249215078224,0.1037077589167159,0.026561716892830264,0.04281328660270074,0.05350365249412489,0.0424054635087014
1.0028720035329528,0.18101238562213362,0.03862447656879554,0.0979436666785688,0.057309053997116895,0.09760462215556147
1.0029190855580832,0.25636899888384335,0.04563720216074777,0.15380629462607742,0.05855867208791102,0.153563565759933
1.0029661675832136,0.31832235074100634,0.04609441442641195,0.19704252226634572,0.06110688510762104,0.19688512474780384
1.003013249608344,0.36361141655314383,0.04806051489577551,0.228525784613192,0.06066515027422291,0.22842651687577262
1.0030603316334743,0.39341420767750745,0.04817575374059995,0.24979870354304085,0.05788383025124896,0.2497225473301219
1.0031074136586047,0.4102870696014962,0.04721450953547412,0.26258314989231946,0.05598477497825725,0.2625170986029932
1.003154495683735,0.41662904201390033,0.04558049039591066,0.266777273312063,0.053320286953350504,0.266702590130849
1.0032015777088654,0.41405085665469693,0.043449260650445715,0.26326150551395927,0.04991262956936897,0.26316532262118536
1.0032486597339958,0.4030953535584088,0.04078414832032084,0.251751202986526,0.04574476985801973,0.2516261098475458
1.0032957417591262,0.38301151602067063,0.03747327304830774,0.2324239377319079,0.04090231416087554,0.23227013952342646
1.0033428237842565,0.3514583105172215,0.03348416365879452,0.2047530276495091,0.03527286331624688,0.20457808135156233
1.003389905809387,0.3042863356687068,0.02861898131724631,0.16911475512504195,0.029171144275337752,0.1689339528053058
1.0034369878345173,0.2364892670841809,0.023197733704421238,0.12615890065588273,0.022747779117422404,0.12599194416716236
1.0034840698596477,0.14805992805189566,0.01801973516082251,0.07745804013496241,0.016210582580409673,0.0773246428893055
1.003531151884778,0.05937981673678241,0.01543822142291362,0.035632586371168055,0.011301862491843015,0.035534801593977296
1.0035782339099084,0.016571701488668728,0.01740613098728217,0.012038086514572617,0.010181561743930903,0.011949188397877402
1.0036253159350388,0.04141534161646615,0.024970783214710624,0.014399178728297872,0.016103968563468168,0.014259630284870295
1.0036723979601692,0.0978579156313711,0.036072821594832855,0.03595348541122598,0.029575801710041816,0.035709459287902465
1.0037194799852995,0.14599333246590304,0.050529297143832703,0.06503465797160808,0.04271284565588093,0.06471966674726924
1.00376656201043,0.17300879075255565,0.06248367890141129,0.0922030709843016,0.052248964185551645,0.09187267968511396
1.0038136440355603,0.18229222765708752,0.06917651507899433,0.11374971918924169,0.057229238719111626,0.11343791225628419
1.0038607260606907,0.18262972424027749,0.07015636135626022,0.12736778710133306,0.05932563742323884,0.1270767114775133
1.003907808085821,0.18292620727983336,0.07270611087519359,0.13485525602086357,0.05820917295383749,0.13457877630603945
1.0039548901109514,0.18798821740501145,0.07436189642049311,0.13913083302593265,0.058097151976403666,0.1388620032494512
1.0040019721360818,0.19658928748535154,0.07169235608532532,0.1397247738744464,0.057407206910002784,0.13945739803224386
1.0040490541612122,0.20361099360789395,0.06641330826957215,0.1356935801867525,0.05929333414318696,0.13541784323702286
1.0040961361863425,0.20356945018764083,0.05944572800362956,0.1287855413388881,0.05802751910053373,0.1284985101623104
1.004143218211473,0.19261735903368254,0.05394512107703053,0.11776025800915435,0.05610656735606045,0.1174575582940612
1.0041903002366033,0.1692114287165738,0.04664665930632158,0.09836742477706704,0.052025633191181905,0.09804660277727306
1.0042373822617336,0.13469585530973552,0.03861688829412639,0.07519967777083232,0.04493209423953266,0.07488223293115331
1.004284464286864,0.094068350002802,0.03016614048975719,0.051842634052145065,0.036821529640829895,0.05155467115374815
1.0043315463119944,0.0558705414627791,0.022072905666361806,0.03082107495389939,0.027893420883694054,0.030588099354294154
1.0043786283371248,0.029785725493520713,0.016962113206426915,0.019809015244991575,0.01931671379821149,0.019643022560715748
1.0044257103622551,0.022326134922130727,0.014440047976693694,0.01684685304795892,0.012849490971340125,0.016735220234482644
1.0044727923873855,0.03362727707623793,0.01412678123885704,0.01768087969631584,0.010128338555863186,0.017592536338926264
1.004519874412516,0.057935866130881315,0.015757332120896774,0.0238553638180855,0.010700707088615567,0.023762272828438943
1.0045669564376463,0.08691312585069338,0.019212037458793237,0.038233159934289905,0.016080509108606374,0.038096240338487374
1.0046140384627766,0.11302745450084833,0.022829281315501958,0.05542672474865837,0.026110490640882188,0.055215991068994455
1.004661120487907,0.13143773576861661,0.02601046905185896,0.07126698378066398,0.038289328577360934,0.07098361372467407
1.0047082025130374,0.140315951549541,0.0302407879325502,0.0817840112464661,0.04991260899816271,0.08144942676755798
1.0047552845381678,0.14016084842095028,0.030421725177721404,0.0846685751900148,0.05908860221729166,0.08430017165984588
1.0048023665632981,0.13271042804166153,0.028783311154637246,0.08028160564993014,0.06596381446304983,0.07987985273341541
1.0048494485884285,0.1199532079956697,0.024440898907827812,0.06958311394397716,0.06968473635236289,0.06914247329963057
1.0048965306135589,0.10352759540252561,0.02255099194627559,0.05738407400153901,0.07030435063026662,0.056910177654762584
1.0049436126386893,0.08458770500586026,0.02110234961648165,0.04469505929439128,0.0667983213158192,0.04420922665411723
1.0049906946638196,0.06411017510052013,0.018695840175657827,0.03435472552873721,0.061114466298368024,0.0338829312000521
1.00503777668895,0.043500849939608656,0.015795101553243488,0.022887706523455283,0.05494827237437926,0.022440357775784212
1.0050848587140804,0.02497562650004661,0.01230870097863346,0.013888116903115118,0.048702361328209126,0.013477610572202956
1.0051319407392107,0.011013597455985432,0.007821062592908703,0.011624969459267675,0.043018891127405104,0.011258658085776302
1.0051790227643411,0.003334338693202587,0.005437899017799892,0.009001101837417943,0.03512448369491497,0.00869886530286651
1.0052261047894715,0.0027948227754708652,0.003883746497545719,0.005716764128480125,0.022966763746957285,0.005517079511437272
1.0052731868146019,0.010164673003053454,0.0055198787331191415,0.005314070387151807,0.011873322751246682,0.005210361833304458
1.0053202688397322,0.026566180290056158,0.008069831992523497,0.008193549268036414,0.005614395477956821,0.008144250021389316
1.0053673508648626,0.05291846997433676,0.009747394818906985,0.011498759854167706,0.002613487350797256,0.011475498797793665
1.005414432889993,0.08828034555015178,0.008810058956649025,0.017065936640710815,0.0010328155963819873,0.017056260889765428
1.0054615149151234,0.12763762777320273,0.008962637697209919,0.025647230237824777,0.0016124084713327314,0.025632189978548478
1.0055085969402537,0.16155770115500132,0.010780705005296326,0.038076850744054896,0.006329767661420919,0.03802089882491201
1.0055556789653841,0.18078890709766565,0.013100535636530495,0.05135766337998839,0.014151120547206637,0.05123750373270284
1.0056027609905145,0.18307418566708303,0.013354783562606753,0.06056084021799014,0.022758208451174045,0.060376096272582516
1.0056498430156449,0.1741533504439713,0.014963647808441572,0.06655908741414072,0.031479367969426686,0.066315688143932
1.0056969250407752,0.16242605985016223,0.015915083939126197,0.07063087442771013,0.038989512923183804,0.07034283509086939
1.0057440070659056,0.15418810481596457,0.01415038249350844,0.07107575192890922,0.044331591057941266,0.07075733432334788
1.005791089091036,0.1523552110015489,0.01065912604314743,0.0660360559428213,0.04654303828396092,0.0656998833725775
1.0058381711161664,0.15691036178882456,0.00911857483893367,0.06130313889977103,0.046268010832703786,0.060963324444943096
1.0058852531412967,0.16538784679386007,0.008815139771615299,0.06307528196508604,0.042843013457148756,0.06275767236702502
1.005932335166427,0.17322460684996496,0.009149380776453475,0.06323184659303546,0.037972087178980464,0.06294442361900113
1.0059794171915575,0.17475929729964576,0.007031507990394883,0.05880087400333982,0.03221460373086125,0.058548531239611484
1.0060264992166879,0.16548577922015562,0.004524821086267443,0.05204155960234529,0.027580622948297925,0.05181891218987241
1.0060735812418182,0.1445721481217929,0.002427304089805795,0.04234591607178599,0.023122888603496147,0.04215379379853162
1.0061206632669486,0.11538472372115638,0.0006601231176445087,0.03266210113426135,0.02030453446474933,0.03249018677344411
1.006167745292079,0.08342022676517998,0.0011179763666523837,0.0259645785337829,0.018595032396744853,0.025805524479257713
1.0062148273172093,0.053714935068683495,0.0037155775046976793,0.01794830890199036,0.017836438481369083,0.017794480248501502
1.0062619093423397,0.029620632829972474,0.007776317478395299,0.006428025048282717,0.020178355040548407,0.006252527235975329
1.00630899136747,0.012907514843990737,0.011075646290246622,-0.004503164505502606,0.02063294260621448,-0.004684496197343597
1.0063560733926005,0.004292560353454192,0.015495789138390318,-0.010519166817943732,0.021003864642490697,-0.01070485215461517
1.0064031554177308,0.0038095921685766332,0.019354199767868067,-0.007972360122875525,0.02273566162000665,-0.008173056783294785
1.0064502374428612,0.010924293923755681,0.0239335529126338,0.0013341291502741227,0.024665216544188292,0.0011186290133404523
1.0064973194679916,0.02453035587728399,0.030438566029571224,0.011333716656649779,0.028103695313969994,0.011091837608346923
1.006544401493122,0.042966387475684646,0.035682534039116275,0.020787738978896356,0.031206417339944816,0.020524092960068036
1.0065914835182523,0.06411092062196938,0.040760809422112215,0.03329944681240632,0.03399903372245911,0.03302028419941423
1.0066385655433827,0.08556714248621351,0.04551171816232729,0.049462130528264495,0.03640692370343841,0.04917540976611352
1.006685647568513,0.10493697207975199,0.04766232080236869,0.06485229624100503,0.03880480293172196,0.06456088349116737
1.0067327295936435,0.12014720761669652,0.046415533893754475,0.07640706666955516,0.03962349554238259,0.07611995329684591
1.0067798116187738,0.12974860817624662,0.04314142619361519,0.08294186479002422,0.0371399915214543,0.0826737671649363
1.0068268936439042,0.1331160769266914,0.03905041079944468,0.08436945777741765,0.03317145200838976,0.08412509409725942
1.0068739756690346,0.13051634907150206,0.03607054167199489,0.08386978816652868,0.028624553569440898,0.0836528399177742
1.006921057694165,0.12301693370584733,0.03228276215434179,0.08185258015702256,0.021591606700316235,0.0816813747163393
1.0069681397192953,0.11219272060745543,0.02675284739581233,0.07585112215539112,0.014993357229116655,0.07572665453621773
1.0070152217444257,0.09964098937742749,0.020079821967960182,0.06985230351433948,0.009242768117774332,0.06977233676655878
1.007062303769556,0.08648287672211809,0.014780514195868791,0.06302251331950957,0.005308363332485558,0.06297482935136019
1.0071093857946865,0.07315337862299943,0.009652659565027156,0.053521194673379444,0.0030236614732894957,0.05349305630887081
1.0071564678198168,0.05967551136841471,0.00399674483735736,0.042771215350936226,0.001812951133767119,0.04275383400072239
1.0072035498449472,0.046352747241279996,0.0009281220581704568,0.029687677967592516,0.0028272018307743075,0.029661959402899465
1.0072506318700776,0.03458526276589038,-0.0015392292951129434,0.01916866027493343,0.004631232759830732,0.019127636761797105
1.007297713895208,0.02727830692374265,-0.0018715097741134746,0.01473006896934623,0.006532505463247099,0.014672685609159996
1.0073447959203383,0.0280866607277734,-0.0009592637246918556,0.01711698325886342,0.009746899272539656,0.017031901252140314
1.0073918779454687,0.03925806445151868,0.0015978957172880232,0.028584290137595406,0.014535781029225077,0.028459186523786276
1.007438959970599,0.059562255279517966,0.006699813392013558,0.043832242766228824,0.019680962069818474,0.04366732035697925
1.0074860419957294,0.08449757331606145,0.011737625629039588,0.058037587268334905,0.026950238701979906,0.057821710035885036
1.0075331240208598,0.10858230355013457,0.01595186410956804,0.06858033205585247,0.03300757082206519,0.06832802905329556
1.0075802060459902,0.12742598805780986,0.017511640484463926,0.07621925524513734,0.037299267966419206,0.0759454031983274
1.0076272880711206,0.13840784538629322,0.01910272653861637,0.07904744927672683,0.04062238608925891,0.07875696413919789
1.007674370096251,0.14057521646913557,0.018597166588370274,0.0769603579802706,0.04285452287006491,0.07665582488698447
1.0077214521213813,0.1345761316442056,0.01565163908580538,0.07084930100861353,0.04330870445905259,0.07053639278864011
