freq,gls,usurper,pdc_unbiased,shape_periodogram,shift_periodogram
1.0,0.02176245538732735,0.03383535314754708,-0.007335655112181927,0.009825274348143585,-0.007896416260899427
1.0000470820251304,0.05134779247241603,0.05384383663352559,0.016081221596065367,0.022654913416999926,0.014737113141373848
1.0000941640502607,0.09689124580742478,0.07312156792733851,0.05094334186944231,0.04314600848800698,0.04839529247714719
1.0001412460753911,0.14848755125694818,0.09263817501172572,0.08456655871201842,0.06373553370516356,0.08090867633235622
1.0001883281005215,0.19664060203551523,0.10920167600428211,0.10917973127593883,0.08344011280081363,0.10457421436614352
1.0002354101256519,0.23592916525893703,0.11993540478649613,0.12678225514793529,0.09803250227040866,0.12156156605084513
1.0002824921507822,0.26363730657080775,0.12486691385675781,0.13936052532630389,0.10671134058354628,0.1338283809159086
1.0003295741759126,0.2780607972143743,0.12780919954365363,0.14663287491158739,0.11218921342641912,0.14091940679062967
1.000376656201043,0.27778293516045677,0.12919469194386424,0.14742341655727248,0.11467204448060013,0.14161387931099376
1.0004237382261734,0.2619162710265795,0.1260863200797653,0.139633635428265,0.11470171658839053,0.13376477768679132
1.0004708202513037,0.23107843684954268,0.11796555016447152,0.12167319492364326,0.11109480950700726,0.11583434795955298
1.0005179022764341,0.1884924826566669,0.10706540600791971,0.09811663264576473,0.10524425385991971,0.09240614114905354
1.0005649843015645,0.1401213853463462,0.09932174508790098,0.07552593926328457,0.10039135314525689,0.06994209922819716
1.0006120663266949,0.09311329616242185,0.09558664227623562,0.056936636782797936,0.09622195402298124,0.05149227221991242
1.0006591483518252,0.05338098213176131,0.09708006359589674,0.04656239048066332,0.09152261442444237,0.04133523941264561
1.0007062303769556,0.024158292773911582,0.0984952530014488,0.0379052596807291,0.0851804232478186,0.033003145108306924
1.000753312402086,0.006389706849983347,0.09686402453358875,0.024925530867037873,0.07586829694624901,0.020521820060762995
1.0008003944272164,4.4957735270936574e-05,0.09664902370052553,0.013623927240606612,0.06669542690495885,0.009734221171925446
1.0008474764523467,0.004476680458159687,0.09526727399574968,0.005279248516488982,0.06486125175992256,0.001491426861102686
1.000894558477477,0.016631009383087918,0.09969129379880229,0.00604487589630294,0.07001974110780054,0.0019566573116233995
1.0009416405026075,0.030279800796216314,0.11268297777057125,0.01614856324889533,0.08208495394332453,0.011374477633459845
1.0009887225277379,0.04019506929021177,0.13138744505301,0.031662352407458065,0.1011198447466032,0.02585196203581831
1.0010358045528682,0.045271217739530065,0.14860181022376942,0.049643587368788454,0.12291046718121046,0.042738672826689215
1.0010828865779986,0.04665854735345898,0.15758686210585454,0.06394396252727896,0.14312224847464916,0.05611066172182271
1.001129968603129,0.04557434040645729,0.16084871692289093,0.06951556918541625,0.15720067539874139,0.06104558076250759
1.0011770506282593,0.04281463251624272,0.15562712621882516,0.06676401531502141,0.16302800354846697,0.05797255125358568
1.0012241326533897,0.03911406922799136,0.1439167494787904,0.05756222886158259,0.16191021409797615,0.048704286519850516
1.00127121467852,0.035734840091298535,0.1293036612631323,0.04469056838221148,0.1561546322616238,0.03597206405912116
1.0013182967036505,0.034632288517627896,0.117622157425604,0.03354469161607427,0.15152338006782912,0.024951581870230475
1.0013653787287808,0.03686446430802818,0.11784940294511796,0.03235087082016887,0.15070183536661894,0.02379038030883316
1.0014124607539112,0.040499198873267514,0.12732617924010214,0.04235422606047071,0.15436787857077083,0.03370403113647458
1.0014595427790416,0.04245011553894062,0.13816402750574447,0.05148956578485458,0.15908275961614285,0.04269941950801172
1.001506624804172,0.04142424671447975,0.14467960507600994,0.057489670337512934,0.15866982916807637,0.04879561245439579
1.0015537068293023,0.03772147907862947,0.14476860935654287,0.05838903434484734,0.1517602817603544,0.050057878219313956
1.0016007888544327,0.032149333674356434,0.13935439829029506,0.05286952532393206,0.13709257469072877,0.04524085993488726
1.001647870879563,0.025799799790141527,0.12825685344025,0.040386054375886556,0.11557781206352101,0.03381834118803688
1.0016949529046935,0.020580986012262138,0.11140920707729883,0.02276083148008517,0.09128596956945523,0.017475426045008444
1.0017420349298238,0.01993155776046648,0.09770450503222186,0.008396000375120035,0.07182073120618879,0.004204974459470287
1.0017891169549542,0.027489951613850306,0.09329008151952313,0.00883020356959996,0.0660937261527884,0.004972417296445432
1.0018361989800846,0.042074300128446054,0.09426415329696385,0.022145335055818467,0.07145357000407364,0.017989708450390985
1.001883281005215,0.05845891480384451,0.10174370759592767,0.04104344236602053,0.08442450277426493,0.03619094733748741
1.0019303630303453,0.07582159493280267,0.11266588200970712,0.05832937685591873,0.09812877276110007,0.052788989810576975
1.0019774450554757,0.09824195100672209,0.11961080376446388,0.07041397317164165,0.10944457496498529,0.06434109308368274
1.002024527080606,0.1303669711588208,0.11531059030955622,0.07896421651578898,0.11437067900868225,0.07269327904439733
1.0020716091057364,0.17464242099810953,0.1056587065039658,0.08832693698111686,0.11502216066228396,0.0820844145012796
1.0021186911308668,0.22917237164395338,0.10710392788080032,0.11355266104308831,0.11728621668959163,0.10737945458696893
1.0021657731559972,0.2864808872447173,0.11663881412296337,0.14880372324738836,0.12265288682544666,0.1426845815888327
1.0022128551811276,0.335488571803669,0.1266157222732638,0.17945522269565434,0.12812377607096143,0.173418537092273
1.002259937206258,0.3667004160945303,0.13287527448562803,0.20044309409803335,0.13064167817073555,0.19454005868454882
1.0023070192313883,0.37630521047742305,0.13433003244106617,0.20989430295355302,0.1291053454778443,0.2041371089738331
1.0023541012565187,0.3658732131217113,0.13092604341024294,0.20800353236518512,0.12372919373697383,0.20238933096805356
1.002401183281649,0.3393357840705059,0.12406535843299374,0.19716291122807472,0.11472784030084081,0.19174358608321032
1.0024482653067794,0.30043566038503033,0.1144367914470826,0.1783931936762516,0.10164294519338554,0.1733143828403435
1.0024953473319098,0.25183659939415354,0.10139011369801501,0.15384153094853617,0.08335863617112788,0.1493995682755504
1.0025424293570402,0.1956066522565673,0.08281566576222925,0.12081929242955049,0.06122674436631164,0.11733911719972362
1.0025895113821706,0.13475970805500284,0.05831295282565471,0.07564140824241966,0.0358879261107226,0.07348529065873478
1.002636593407301,0.07582916802294695,0.034136182853966864,0.025728531183742454,0.014129382971166431,0.02486417108877875
1.0026836754324313,0.03145358980808763,0.025881796673291733,-0.0040036080406334615,0.00515618694431519,-0.004297502120447918
1.0027307574575617,0.01779891286180085,0.03459776947857179,-0.006351274616742859,0.01469516481044695,-0.007198060018667822
1.002777839482692,0.04358985242398123,0.0408578342408216,0.006591376950054447,0.036432722821265924,0.0044588332547792165
1.0028249215078224,0.1037077589167159,0.052940912303218075,0.04281328660270074,0.05894379936899917,0.03938061283540032
1.0028720035329528,0.18101238562213362,0.07620138786551925,0.0979436666785688,0.08022305730468646,0.09346325898995257
1.0029190855580832,0.25636899888384335,0.10378374031618741,0.15380629462607742,0.09638207119254957,0.14879898438738248
1.0029661675832136,0.31832235074100634,0.1281706683960866,0.19704252226634572,0.10221884603435369,0.19206209137300315
1.003013249608344,0.36361141655314383,0.14099137589995997,0.228525784613192,0.10545394529701137,0.2236556629791716
1.0030603316334743,0.39341420767750745,0.14853649145978565,0.24979870354304085,0.10708029525328605,0.24504192841984482
1.0031074136586047,0.4102870696014962,0.1514169639051549,0.26258314989231946,0.10634857087252081,0.2579473758972246
1.003154495683735,0.41662904201390033,0.15142707320030138,0.266777273312063,0.10406330292227582,0.2622357727869906
1.0032015777088654,0.41405085665469693,0.14872373874346018,0.26326150551395927,0.09992384252553525,0.2588088714979428
1.0032486597339958,0.4030953535584088,0.1432581922211536,0.251751202986526,0.09368190224418273,0.24740880161087123
1.0032957417591262,0.38301151602067063,0.134862991330784,0.2324239377319079,0.08531581227914027,0.22825280196571973
1.0033428237842565,0.3514583105172215,0.12314371432485201,0.2047530276495091,0.07459268890560897,0.20087131190581994
1.003389905809387,0.3042863356687068,0.10782445777623376,0.16911475512504195,0.06188683062604646,0.16568560245853237
1.0034369878345173,0.2364892670841809,0.08950490558337452,0.12615890065588273,0.04754180242883561,0.12337718774634195
1.0034840698596477,0.14805992805189566,0.06938212320095147,0.07745804013496241,0.03307459526725243,0.07545635838123993
1.003531151884778,0.05937981673678241,0.05517358042076972,0.035632586371168055,0.023495699242579215,0.03421393921780809
1.0035782339099084,0.016571701488668728,0.054124488744816394,0.012038086514572617,0.02430780215028933,0.010603627199810938
1.0036253159350388,0.04141534161646615,0.07058299176882206,0.014399178728297872,0.039853604945422096,0.012061016166557836
1.0036723979601692,0.0978579156313711,0.09653856183136601,0.03595348541122598,0.06479707468786335,0.032188215121560934
1.0037194799852995,0.14599333246590304,0.12583647999511763,0.06503465797160808,0.09428181778158555,0.059723889149399495
1.00376656201043,0.17300879075255565,0.14873421664979214,0.0922030709843016,0.12153261403361093,0.08567465079139057
1.0038136440355603,0.18229222765708752,0.16495714930249455,0.11374971918924169,0.13991439802985697,0.10658344547502588
1.0038607260606907,0.18262972424027749,0.17396920169328675,0.12736778710133306,0.15398873845898262,0.11978643555164288
1.003907808085821,0.18292620727983336,0.17665141273275262,0.13485525602086357,0.16513468174294516,0.12695941786146683
1.0039548901109514,0.18798821740501145,0.17699718044898008,0.13913083302593265,0.17003394144351422,0.13112760021904576
1.0040019721360818,0.19658928748535154,0.17459586230453833,0.1397247738744464,0.16978152507042932,0.1317401189724838
1.0040490541612122,0.20361099360789395,0.1707754290071368,0.1356935801867525,0.16511356824860612,0.12781142067707682
1.0040961361863425,0.20356945018764083,0.1625243546120941,0.1287855413388881,0.15790202642003792,0.12107169548685821
1.004143218211473,0.19261735903368254,0.14794405441190453,0.11776025800915435,0.14674347295419018,0.11035085288617362
1.0041903002366033,0.1692114287165738,0.12870019222197354,0.09836742477706704,0.1310500851563741,0.09144432743854948
1.0042373822617336,0.13469585530973552,0.10685858072914584,0.07519967777083232,0.11198426578251403,0.06902529225902083
1.004284464286864,0.094068350002802,0.0865357473041719,0.051842634052145065,0.0908383857252983,0.04666959163920928
1.0043315463119944,0.0558705414627791,0.06932324336011737,0.03082107495389939,0.06918540363722439,0.026803682195647757
1.0043786283371248,0.029785725493520713,0.058917486883651504,0.019809015244991575,0.05090557900109138,0.016830333844833158
1.0044257103622551,0.022326134922130727,0.05525346457043012,0.01684685304795892,0.03821755963860938,0.014601226153828717
1.0044727923873855,0.03362727707623793,0.05731682115957075,0.01768087969631584,0.033234215179756714,0.01572241556770296
1.004519874412516,0.057935866130881315,0.06412489850840171,0.0238553638180855,0.035382816195088485,0.02176686079387282
1.0045669564376463,0.08691312585069338,0.07593129158956764,0.038233159934289905,0.045435024695621364,0.03556096498413766
1.0046140384627766,0.11302745450084833,0.0906342271814719,0.05542672474865837,0.062102927927800894,0.05182682314781039
1.004661120487907,0.13143773576861661,0.10391957271471898,0.07126698378066398,0.08040732733187939,0.06670611140105202
1.0047082025130374,0.140315951549541,0.11412985675681084,0.0817840112464661,0.09786016381046174,0.07635706710498442
1.0047552845381678,0.14016084842095028,0.11802251109046143,0.0846685751900148,0.1115658053353537,0.07857211197141885
1.0048023665632981,0.13271042804166153,0.11557059925129799,0.08028160564993014,0.1193938420702825,0.07377026562285642
1.0048494485884285,0.1199532079956697,0.10918558980532177,0.06958311394397716,0.12435566857031256,0.0627464696280262
1.0048965306135589,0.10352759540252561,0.10026231589314051,0.05738407400153901,0.12406219064267192,0.05047295549876788
1.0049436126386893,0.08458770500586026,0.08780649084208424,0.04469505929439128,0.11916918904935969,0.03795821657611101
1.0049906946638196,0.06411017510052013,0.0763967416825159,0.03435472552873721,0.11109132650498188,0.028001213631591602
1.00503777668895,0.043500849939608656,0.06499742959252869,0.022887706523455283,0.09982249437830944,0.01711711350378022
1.0050848587140804,0.02497562650004661,0.053703054099784465,0.013888116903115118,0.08531937305254515,0.008923044571030717
1.0051319407392107,0.011013597455985432,0.04607388957815943,0.011624969459267675,0.07042317445435778,0.007518061538440824
1.0051790227643411,0.003334338693202587,0.03914442195613083,0.009001101837417943,0.0547760062554201,0.005800780156563242
1.0052261047894715,0.0027948227754708652,0.029558827575020766,0.005716764128480125,0.03920517114359268,0.0034236940159469063
1.0052731868146019,0.010164673003053454,0.02055251254398006,0.005314070387151807,0.0247351887927997,0.00386395119087341
1.0053202688397322,0.026566180290056158,0.014763030013115743,0.008193549268036414,0.01199016260264283,0.00748106633731477
1.0053673508648626,0.05291846997433676,0.012600346447925721,0.011498759854167706,0.004717485489884397,0.01120429940659716
1.005414432889993,0.08828034555015178,0.01478042442411896,0.017065936640710815,0.001543975812425392,0.01694693807161839
1.0054615149151234,0.12763762777320273,0.018213418798312057,0.025647230237824777,0.002101787670700809,0.025481242105438874
1.0055085969402537,0.16155770115500132,0.02319114898510226,0.038076850744054896,0.008729841736202028,0.03750563728673542
1.0055556789653841,0.18078890709766565,0.028876763947002428,0.05135766337998839,0.019760498249746072,0.05013248126484087
1.0056027609905145,0.18307418566708303,0.03280541096552144,0.06056084021799014,0.03226181273114437,0.05861739029629479
1.0056498430156449,0.1741533504439713,0.03528704741573269,0.06655908741414072,0.041626966519452045,0.06408988235670664
1.0056969250407752,0.16242605985016223,0.03666690294086929,0.07063087442771013,0.049452519731451657,0.0677308359191582
1.0057440070659056,0.15418810481596457,0.03630124768095055,0.07107575192890922,0.053909979212694005,0.06793296076887549
1.005791089091036,0.1523552110015489,0.034269983580918324,0.0660360559428213,0.0548274063000544,0.06284118991077958
1.0058381711161664,0.15691036178882456,0.033508401009767964,0.06130313889977103,0.054757233538852174,0.058110234186557815
1.0058852531412967,0.16538784679386007,0.03568620077591946,0.06307528196508604,0.05463838306485439,0.05988956671830816
1.005932335166427,0.17322460684996496,0.0357848425862458,0.06323184659303546,0.05262129842724579,0.06015684241053
1.0059794171915575,0.17475929729964576,0.033925565037685,0.05880087400333982,0.048116297509042304,0.055973957167730244
1.0060264992166879,0.16548577922015562,0.03135043457907844,0.05204155960234529,0.04225519412215176,0.04954300315682543
1.0060735812418182,0.1445721481217929,0.028227105875342783,0.04234591607178599,0.034629222687330825,0.040284047942723965
1.0061206632669486,0.11538472372115638,0.02591786374385295,0.03266210113426135,0.02604885333192546,0.03110053529254891
1.006167745292079,0.08342022676517998,0.023587373079557317,0.0259645785337829,0.018779084541172216,0.024830857762652328
1.0062148273172093,0.053714935068683495,0.023258295320687638,0.01794830890199036,0.014238402822262812,0.017089654199306782
1.0062619093423397,0.029620632829972474,0.022854026121617098,0.006428025048282717,0.011963787691906229,0.00571992938390835
1.00630899136747,0.012907514843990737,0.02271900552531488,-0.004503164505502606,0.01254696063973724,-0.00522749986957668
1.0063560733926005,0.004292560353454192,0.023896061046190215,-0.010519166817943732,0.01610090751195745,-0.011441426015155475
1.0064031554177308,0.0038095921685766332,0.027637599267796433,-0.007972360122875525,0.020880816183611445,-0.009178220706227739
1.0064502374428612,0.010924293923755681,0.03721468780867985,0.0013341291502741227,0.03186389289093951,-0.0005263864700731641
1.0064973194679916,0.02453035587728399,0.04635698590489827,0.011333716656649779,0.04474855913005326,0.008714275255664594
1.006544401493122,0.042966387475684646,0.05404055280550767,0.020787738978896356,0.057413907374562395,0.017435170599279327
1.0065914835182523,0.06411092062196938,0.05960562524740322,0.03329944681240632,0.06564772191284338,0.02948412959743555
1.0066385655433827,0.08556714248621351,0.06581750792368646,0.049462130528264495,0.07060486364544977,0.045388089429077356
1.006685647568513,0.10493697207975199,0.07069402470184176,0.06485229624100503,0.07259798074028306,0.06069370031726905
1.0067327295936435,0.12014720761669652,0.07296047091896304,0.07640706666955516,0.07190049291351627,0.07230606213190512
1.0067798116187738,0.12974860817624662,0.07239072298974995,0.08294186479002422,0.06834999443941528,0.07903892121956442
1.0068268936439042,0.1331160769266914,0.07154018385746704,0.08436945777741765,0.06218500117779967,0.08079317326015445
1.0068739756690346,0.13051634907150206,0.06663550923740663,0.08386978816652868,0.05489875882698362,0.08068017869975205
1.006921057694165,0.12301693370584733,0.05812947308806401,0.08185258015702256,0.04726414262377605,0.07907274162353191
1.0069681397192953,0.11219272060745543,0.047774458320462634,0.07585112215539112,0.03831869684474225,0.07356081414157095
1.0070152217444257,0.09964098937742749,0.03803863701010585,0.06985230351433948,0.029297280867219513,0.06806693851941024
1.007062303769556,0.08648287672211809,0.030079684329479925,0.06302251331950957,0.02166404304007956,0.06167424382429601
1.0071093857946865,0.07315337862299943,0.025109683707101826,0.053521194673379444,0.015361869895993998,0.05254459416911972
1.0071564678198168,0.05967551136841471,0.021959608863635006,0.042771215350936226,0.010332412770266586,0.04209995975892927
1.0072035498449472,0.046352747241279996,0.018176710712924385,0.029687677967592516,0.006687776771207922,0.029248406802963735
1.0072506318700776,0.03458526276589038,0.016539176792430665,0.01916866027493343,0.005727727182364171,0.018802562879105065
1.007297713895208,0.02727830692374265,0.01714511957348496,0.01473006896934623,0.006257777447263188,0.014340517595623058
1.0073447959203383,0.0280866607277734,0.021477565221181126,0.01711698325886342,0.009341958740217855,0.016544092107409127
1.0073918779454687,0.03925806445151868,0.032076744130320155,0.028584290137595406,0.017120518661480864,0.027542609985333227
1.007438959970599,0.059562255279517966,0.045021467146492695,0.043832242766228824,0.026930746037468395,0.04220710795708196
1.0074860419957294,0.08449757331606145,0.056824844184833544,0.058037587268334905,0.03720951043351001,0.05581853750369883
1.0075331240208598,0.10858230355013457,0.06586933285501614,0.06858033205585247,0.04748355930222675,0.06578799345653837
1.0075802060459902,0.12742598805780986,0.07175755154570215,0.07621925524513734,0.054086200576274744,0.07306918863726229
1.0076272880711206,0.13840784538629322,0.0727802126173828,0.07904744927672683,0.057233477599122465,0.07572977934247384
1.007674370096251,0.14057521646913557,0.06891314612324655,0.0769603579802706,0.05817499128637508,0.07359066855344604
1.0077214521213813,0.1345761316442056,0.0632282525307123,0.07084930100861353,0.05567758805692826,0.06761044348829809
1.0077685341465117,0.12269802495893224,0.0545903078789966,0.062425783036096825,0.05024041350579448,0.05948158503757316
1.007815616171642,0.10844877640211482,0.044922126571492096,0.054884533548136764,0.04198796594894121,0.052399734873544726
