freq,gls,usurper,pdc_unbiased,shape_periodogram,shift_periodogram
1.0,0.02176245538732735,0.034556359957361095,-0.007335655112181927,0.008587550550816739,-0.00795477495864714
1.0000470820251304,0.05134779247241603,0.061188380261815174,0.016081221596065367,0.028346718896658987,0.01393288005764283
1.0000941640502607,0.09689124580742478,0.08723049997036578,0.05094334186944231,0.05574855747119816,0.046739926698550996
1.0001412460753911,0.14848755125694818,0.1135474953049774,0.08456655871201842,0.08124688672499694,0.07860404701842519
1.0001883281005215,0.19664060203551523,0.1343282829897584,0.10917973127593883,0.10280733333880471,0.10188861067346963
1.0002354101256519,0.23592916525893703,0.14692380377469544,0.12678225514793529,0.11826707790669692,0.11865012334870455
1.0002824921507822,0.26363730657080775,0.1539907464112048,0.13936052532630389,0.1272031947860682,0.1308128081386124
1.0003295741759126,0.2780607972143743,0.15731230588914719,0.14663287491158739,0.132136527546919,0.137879114333317
1.000376656201043,0.27778293516045677,0.15755762709020218,0.14742341655727248,0.1336301587902601,0.13859599714915982
1.0004237382261734,0.2619162710265795,0.15281225186825628,0.139633635428265,0.13153046592525755,0.13084512929244296
1.0004708202513037,0.23107843684954268,0.14165350394456538,0.12167319492364326,0.12530337228909458,0.11308362489684333
1.0005179022764341,0.1884924826566669,0.12702101664280538,0.09811663264576473,0.11658947779021757,0.08989037969164347
1.0005649843015645,0.1401213853463462,0.11606659227900736,0.07552593926328457,0.1097352853055028,0.06761793935421652
1.0006120663266949,0.09311329616242185,0.11025831343259575,0.056936636782797936,0.10466424789525779,0.04929109474427782
1.0006591483518252,0.05338098213176131,0.11090942225027203,0.04656239048066332,0.10022920859647605,0.03919022373229437
1.0007062303769556,0.024158292773911582,0.11196849240417611,0.0379052596807291,0.09458085679009877,0.030910812756713174
1.000753312402086,0.006389706849983347,0.1082649880791146,0.024925530867037873,0.08611961177956785,0.018519246279336352
1.0008003944272164,4.4957735270936574e-05,0.10634517253116384,0.013623927240606612,0.07763284577046826,0.007832022666427288
1.0008474764523467,0.004476680458159687,0.10350206177776954,0.005279248516488982,0.07543167717773826,-0.0003512425891374515
1.000894558477477,0.016631009383087918,0.10751699996346797,0.00604487589630294,0.08037968963702821,4.5128338820525265e-05
1.0009416405026075,0.030279800796216314,0.12214794853634413,0.01614856324889533,0.09275509265871196,0.009240884611898422
1.0009887225277379,0.04019506929021177,0.1441476155631281,0.031662352407458065,0.11171252780336947,0.023414973770531172
1.0010358045528682,0.045271217739530065,0.1661043658988038,0.049643587368788454,0.13271147703581146,0.04001044014517562
1.0010828865779986,0.04665854735345898,0.1778189319226222,0.06394396252727896,0.15187570283436255,0.05313422372460394
1.001129968603129,0.04557434040645729,0.1812906902878962,0.06951556918541625,0.16486386535136055,0.05791527894314327
1.0011770506282593,0.04281463251624272,0.17450552038911818,0.06676401531502141,0.16976374163049457,0.05480516322146957
1.0012241326533897,0.03911406922799136,0.16167500903492218,0.05756222886158259,0.1682905802270058,0.0455740797097883
1.00127121467852,0.035734840091298535,0.14614500794232893,0.04469056838221148,0.1623712924269458,0.03294422664802522
1.0013182967036505,0.034632288517627896,0.1344065412973846,0.03354469161607427,0.15824173427315197,0.02196289616110022
1.0013653787287808,0.03686446430802818,0.13727062119630937,0.03235087082016887,0.15939559684024168,0.02067301064668161
1.0014124607539112,0.040499198873267514,0.15041586847839766,0.04235422606047071,0.16567716715239686,0.030347738141433725
1.0014595427790416,0.04245011553894062,0.16418819669677379,0.05148956578485458,0.17265365767548896,0.039121051820327594
1.001506624804172,0.04142424671447975,0.17305085703320194,0.057489670337512934,0.17437324434393242,0.04509091226004773
1.0015537068293023,0.03772147907862947,0.17309312226324278,0.05838903434484734,0.16898703365681822,0.046365260156919545
1.0016007888544327,0.032149333674356434,0.165545379901279,0.05286952532393206,0.1545758443457037,0.041756367706342334
1.001647870879563,0.025799799790141527,0.14985296735141734,0.040386054375886556,0.13262601653432027,0.030691381450821155
1.0016949529046935,0.020580986012262138,0.1282040752323588,0.02276083148008517,0.10682030166235276,0.014835430906156489
1.0017420349298238,0.01993155776046648,0.10963788621549307,0.008396000375120035,0.08602427996794576,0.0019769265056959213
1.0017891169549542,0.027489951613850306,0.10253135392167984,0.00883020356959996,0.07858270386755058,0.0029657365759641506
1.0018361989800846,0.042074300128446054,0.10350932691015559,0.022145335055818467,0.08302792924591033,0.015962040331762895
1.001883281005215,0.05845891480384451,0.11205661033427432,0.04104344236602053,0.09516987047544176,0.0340147076140356
1.0019303630303453,0.07582159493280267,0.1241793465384027,0.05832937685591873,0.10759868814326405,0.0504864346306539
1.0019774450554757,0.09824195100672209,0.13236180496363287,0.07041397317164165,0.11509032193507227,0.06211973612582928
1.002024527080606,0.1303669711588208,0.12852342745785292,0.07896421651578898,0.11573153914422124,0.07067599386174565
1.0020716091057364,0.17464242099810953,0.11853773228526787,0.08832693698111686,0.11280565358990349,0.08028468933991195
1.0021186911308668,0.22917237164395338,0.12213388240192209,0.11355266104308831,0.11375433962013548,0.10560279984396485
1.0021657731559972,0.2864808872447173,0.13577116182036153,0.14880372324738836,0.11941755338951153,0.14077400304716634
1.0022128551811276,0.335488571803669,0.14956339437811736,0.17945522269565434,0.12551717999661688,0.17136979180148607
1.002259937206258,0.3667004160945303,0.15840828609348734,0.20044309409803335,0.1283910605948332,0.1924287573868965
1.0023070192313883,0.37630521047742305,0.1608243584724492,0.20989430295355302,0.1267237698605435,0.20205578829559676
1.0023541012565187,0.3658732131217113,0.15680569489964605,0.20800353236518512,0.12071117751945781,0.20042426587918935
1.002401183281649,0.3393357840705059,0.14679467091274584,0.19716291122807472,0.11072134437285919,0.18997666912699793
1.0024482653067794,0.30043566038503033,0.13254096055258824,0.1783931936762516,0.0968165121921655,0.17181731586509713
1.0024953473319098,0.25183659939415354,0.11523644426378611,0.15384153094853617,0.07906137243098843,0.14819248016928427
1.0025424293570402,0.1956066522565673,0.09295861968920671,0.12081929242955049,0.05935512593714584,0.11636561710974538
1.0025895113821706,0.13475970805500284,0.06272648835828173,0.07564140824241966,0.03657177542583364,0.07278126832063066
1.002636593407301,0.07582916802294695,0.031870888332640054,0.025728531183742454,0.017096570372515968,0.024389337902438916
1.0026836754324313,0.03145358980808763,0.020619901900611647,-0.0040036080406334615,0.009014767902718192,-0.004663705107210907
1.0027307574575617,0.01779891286180085,0.03102491737315483,-0.006351274616742859,0.01761030373977775,-0.007645604752940738
1.002777839482692,0.04358985242398123,0.04198430255538086,0.006591376950054447,0.03720914040972847,0.0038060998650255216
1.0028249215078224,0.1037077589167159,0.06086606459206673,0.04281328660270074,0.06052299111646614,0.038270686978043124
1.0028720035329528,0.18101238562213362,0.09192174038155831,0.0979436666785688,0.08640818298340176,0.09166855566361065
1.0029190855580832,0.25636899888384335,0.12692554056151062,0.15380629462607742,0.10825170025083701,0.14644264969441512
1.0029661675832136,0.31832235074100634,0.15805766537962868,0.19704252226634572,0.11795667981640409,0.18949547725145408
1.003013249608344,0.36361141655314383,0.1748946540072698,0.228525784613192,0.12304815746915457,0.22104285898606382
1.0030603316334743,0.39341420767750745,0.18551090291843797,0.24979870354304085,0.1262010662609829,0.2424124924870599
1.0031074136586047,0.4102870696014962,0.19007395646829542,0.26258314989231946,0.12634393910044164,0.2553352046173817
1.003154495683735,0.41662904201390033,0.19043266159283326,0.266777273312063,0.12433952391039278,0.2596508022201321
1.0032015777088654,0.41405085665469693,0.18700420097462037,0.26326150551395927,0.11979161508674764,0.2562692150573069
1.0032486597339958,0.4030953535584088,0.17971106577678042,0.251751202986526,0.11257471246645698,0.24493839647526938
1.0032957417591262,0.38301151602067063,0.16839954827849923,0.2324239377319079,0.10272250332041676,0.22589182365626279
1.0033428237842565,0.3514583105172215,0.1525144580296542,0.2047530276495091,0.08996030012160168,0.19868827645197526
1.003389905809387,0.3042863356687068,0.13180580111238158,0.16911475512504195,0.0746009308827938,0.1637780019896565
1.0034369878345173,0.2364892670841809,0.10687350345898033,0.12615890065588273,0.05709023073305366,0.12185785261825326
1.0034840698596477,0.14805992805189566,0.07916225381004481,0.07745804013496241,0.03934436572945155,0.07439824124338114
1.003531151884778,0.05937981673678241,0.05835281836606146,0.035632586371168055,0.027430508667430662,0.03350825096021823
1.0035782339099084,0.016571701488668728,0.05367605785086092,0.012038086514572617,0.02788441923882377,0.00993329573488231
1.0036253159350388,0.04141534161646615,0.07103708096996315,0.014399178728297872,0.04524848791072081,0.011003156816486444
1.0036723979601692,0.0978579156313711,0.10062691070367355,0.03595348541122598,0.07249819719895809,0.030546535972882517
1.0037194799852995,0.14599333246590304,0.13462568519664758,0.06503465797160808,0.10561298055842817,0.05735702113245304
1.00376656201043,0.17300879075255565,0.164276099929459,0.0922030709843016,0.1363834107418644,0.08267978233979274
1.0038136440355603,0.18229222765708752,0.18678382026783028,0.11374971918924169,0.15978751175620634,0.10306062418873585
1.0038607260606907,0.18262972424027749,0.20126965378541706,0.12736778710133306,0.17868768651073555,0.11584820526383996
1.003907808085821,0.18292620727983336,0.20863783487096874,0.13485525602086357,0.1924129034064022,0.12277396085253273
1.0039548901109514,0.18798821740501145,0.21202282038809017,0.13913083302593265,0.19818946902932671,0.12685850839182533
1.0040019721360818,0.19658928748535154,0.21049044499252884,0.1397247738744464,0.19805134260235452,0.1274724765574065
1.0040490541612122,0.20361099360789395,0.20760402388686747,0.1356935801867525,0.19250910236438215,0.12362515331828026
1.0040961361863425,0.20356945018764083,0.1999194353626475,0.1287855413388881,0.1826481207647334,0.11708323231338263
1.004143218211473,0.19261735903368254,0.18319806152964493,0.11776025800915435,0.16733860626441474,0.10670071390764405
1.0041903002366033,0.1692114287165738,0.15952249588638445,0.09836742477706704,0.14748210970263018,0.08821761368525585
1.0042373822617336,0.13469585530973552,0.1320402409278678,0.07519967777083232,0.12457605260765713,0.06630232376509264
1.004284464286864,0.094068350002802,0.10626463645515644,0.051842634052145065,0.09999732271216681,0.04450405887152431
1.0043315463119944,0.0558705414627791,0.08409816279361573,0.03082107495389939,0.07596416738696155,0.025160377623197946
1.0043786283371248,0.029785725493520713,0.06996827175119472,0.019809015244991575,0.056876324557366985,0.015547517127585205
1.0044257103622551,0.022326134922130727,0.06398642423380613,0.01684685304795892,0.04443394705125911,0.013507073553701163
1.0044727923873855,0.03362727707623793,0.06484655928959004,0.01768087969631584,0.0402589782483924,0.014648126635493593
1.004519874412516,0.057935866130881315,0.0716805131020889,0.0238553638180855,0.04351578315852718,0.020571900529480307
1.0045669564376463,0.08691312585069338,0.08496324813682708,0.038233159934289905,0.05459990490107745,0.03412177433321292
1.0046140384627766,0.11302745450084833,0.10190364535281322,0.05542672474865837,0.07181941652830881,0.05007859160769113
1.004661120487907,0.13143773576861661,0.11702109990484413,0.07126698378066398,0.0900937624683817,0.06467200156094678
1.0047082025130374,0.140315951549541,0.12865086990408015,0.0817840112464661,0.1063609053635783,0.07413117412130546
1.0047552845381678,0.14016084842095028,0.13370762586561122,0.0846685751900148,0.11854875895344963,0.07623019797686646
1.0048023665632981,0.13271042804166153,0.13155810982617125,0.08028160564993014,0.12437723388580997,0.07143299314801975
1.0048494485884285,0.1199532079956697,0.1244004120106005,0.06958311394397716,0.12675851121863382,0.06050101706000478
1.0048965306135589,0.10352759540252561,0.11282403245398118,0.05738407400153901,0.12329246100620105,0.048454932926007166
1.0049436126386893,0.08458770500586026,0.09802920162944756,0.04469505929439128,0.11536711662601554,0.03624639585361665
1.0049906946638196,0.06411017510052013,0.08328096659637878,0.03435472552873721,0.10539866668959846,0.026572750964213437
1.00503777668895,0.043500849939608656,0.06972780894604602,0.022887706523455283,0.09366634358604514,0.015925940943340183
1.0050848587140804,0.02497562650004661,0.05701429856566528,0.013888116903115118,0.08005662671420798,0.00791690089233774
1.0051319407392107,0.011013597455985432,0.04891681909803039,0.011624969459267675,0.06750585431677047,0.0065834349687629665
1.0051790227643411,0.003334338693202587,0.04098457740193769,0.009001101837417943,0.054915273079697395,0.0048960879506977865
1.0052261047894715,0.0027948227754708652,0.03190883515966225,0.005716764128480125,0.04232210528332824,0.0025529403076100434
1.0052731868146019,0.010164673003053454,0.023921221997159528,0.005314070387151807,0.029086986785175368,0.0031355618925132354
1.0053202688397322,0.026566180290056158,0.01894415300013693,0.008193549268036414,0.01802694132630911,0.006830169064097437
1.0053673508648626,0.05291846997433676,0.017074887462627433,0.011498759854167706,0.011340594228102893,0.010623539471320718
1.005414432889993,0.08828034555015178,0.019471949796066458,0.017065936640710815,0.0076497252865827085,0.01644990126153612
1.0054615149151234,0.12763762777320273,0.023707738941425135,0.025647230237824777,0.006914214266234261,0.025062543224050386
1.0055085969402537,0.16155770115500132,0.030297900577192366,0.038076850744054896,0.01197380646437923,0.0370846082456627
1.0055556789653841,0.18078890709766565,0.03725029423946545,0.05135766337998839,0.0215222369386529,0.04963107578092962
1.0056027609905145,0.18307418566708303,0.04218351646610267,0.06056084021799014,0.032729336132180216,0.058000922111625455
1.0056498430156449,0.1741533504439713,0.04506037437698677,0.06655908741414072,0.04013971244029496,0.06345715420621392
1.0056969250407752,0.16242605985016223,0.04672277388189162,0.07063087442771013,0.04584874933683153,0.06711747871430429
1.0057440070659056,0.15418810481596457,0.04722110339233223,0.07107575192890922,0.04932153928382506,0.06731599862553943
1.005791089091036,0.1523552110015489,0.04580492443739653,0.0660360559428213,0.049893695683483466,0.06223972973941069
1.0058381711161664,0.15691036178882456,0.044598293199865066,0.06130313889977103,0.04957630030561705,0.05753335133522269
1.0058852531412967,0.16538784679386007,0.04725201777239808,0.06307528196508604,0.049970300584220737,0.05927591708884291
1.005932335166427,0.17322460684996496,0.04730630913011326,0.06323184659303546,0.04939708114455173,0.059473156133884014
1.0059794171915575,0.17475929729964576,0.044655358217792276,0.05880087400333982,0.04646990239084279,0.05525553031171508
1.0060264992166879,0.16548577922015562,0.04050947880127425,0.05204155960234529,0.04143302162174841,0.048867007712978215
1.0060735812418182,0.1445721481217929,0.034939868188399614,0.04234591607178599,0.03434140672038732,0.039702181719536066
1.0061206632669486,0.11538472372115638,0.030719396884818298,0.03266210113426135,0.025932222429798535,0.030654455213883568
1.006167745292079,0.08342022676517998,0.025982225206095628,0.0259645785337829,0.018219929231440942,0.024541719275685703
1.0062148273172093,0.053714935068683495,0.023162538197743717,0.01794830890199036,0.012781454509453265,0.0169489336237562
1.0062619093423397,0.029620632829972474,0.02019461144754041,0.006428025048282717,0.009754146425609837,0.005684432183449882
1.00630899136747,0.012907514843990737,0.01804807655089541,-0.004503164505502606,0.010624590734095028,-0.005281805443417859
1.0063560733926005,0.004292560353454192,0.018731702653173834,-0.010519166817943732,0.015503367436374562,-0.011645200172334745
1.0064031554177308,0.0038095921685766332,0.023062214790052722,-0.007972360122875525,0.02307797216820746,-0.00967047663079295
1.0064502374428612,0.010924293923755681,0.03413915569674265,0.0013341291502741227,0.03754615254599484,-0.0014654305062385175
1.0064973194679916,0.02453035587728399,0.046443609450526294,0.011333716656649779,0.05339419358290985,0.007338760328231853
1.006544401493122,0.042966387475684646,0.05761770648942652,0.020787738978896356,0.06884488039975636,0.01564514234977729
1.0065914835182523,0.06411092062196938,0.06784633842466736,0.03329944681240632,0.07921240330104024,0.027404995187961027
1.0066385655433827,0.08556714248621351,0.07785981400015117,0.049462130528264495,0.0851967034053572,0.04316037244358017
1.006685647568513,0.10493697207975199,0.0862451245171825,0.06485229624100503,0.08803622557018062,0.058382959814671946
1.0067327295936435,0.12014720761669652,0.09104269516459886,0.07640706666955516,0.08746897291679898,0.07000434983015184
1.0067798116187738,0.12974860817624662,0.09280171778057363,0.08294186479002422,0.08293417328816716,0.07686187744473456
1.0068268936439042,0.1331160769266914,0.09229425015603787,0.08436945777741765,0.07547907006234897,0.07879770640257107
1.0068739756690346,0.13051634907150206,0.08750296598906272,0.08386978816652868,0.06589053192255669,0.07895300253933414
1.006921057694165,0.12301693370584733,0.07805648552823136,0.08185258015702256,0.05640943111697784,0.07759066160163919
1.0069681397192953,0.11219272060745543,0.0660033551058906,0.07585112215539112,0.04619743598593944,0.07230805288397048
1.0070152217444257,0.09964098937742749,0.05428422694614604,0.06985230351433948,0.0356476097498378,0.0670669543925123
1.007062303769556,0.08648287672211809,0.043995656872695105,0.06302251331950957,0.026417216947136044,0.06091440156920271
1.0071093857946865,0.07315337862299943,0.03614441581740712,0.053521194673379444,0.018464809436948042,0.05201323096776955
1.0071564678198168,0.05967551136841471,0.030545616526052977,0.042771215350936226,0.012345455306348953,0.04173943991911602
1.0072035498449472,0.046352747241279996,0.02371733576328453,0.029687677967592516,0.007341859886938436,0.02906036875235423
1.0072506318700776,0.03458526276589038,0.0195059210327832,0.01916866027493343,0.005525498218562934,0.01870470409127751
1.007297713895208,0.02727830692374265,0.01829762182195464,0.01473006896934623,0.005771990220980575,0.01425993442390355
1.0073447959203383,0.0280866607277734,0.02214457387063533,0.01711698325886342,0.008826530903813086,0.016413403409160848
1.0073918779454687,0.03925806445151868,0.03337271765033726,0.028584290137595406,0.0166396981075351,0.02727165983549152
1.007438959970599,0.059562255279517966,0.04793997784972558,0.043832242766228824,0.026330054814774805,0.04177076199531507
1.0074860419957294,0.08449757331606145,0.061786730871500925,0.058037587268334905,0.03640568018005494,0.05521665325259251
1.0075331240208598,0.10858230355013457,0.07244378590029414,0.06858033205585247,0.04685539765537522,0.06499749258260083
1.0075802060459902,0.12742598805780986,0.07941717869429613,0.07621925524513734,0.054124669229312215,0.07211836865479056
1.0076272880711206,0.13840784538629322,0.08074448866403788,0.07904744927672683,0.05777849953452169,0.07469063380970346
1.007674370096251,0.14057521646913557,0.07740068854820756,0.0769603579802706,0.059764475348273984,0.07246530236187633
1.0077214521213813,0.1345761316442056,0.07157903931522092,0.07084930100861353,0.05828523548007662,0.06645813504825988
1.0077685341465117,0.12269802495893224,0.06251670200648612,0.062425783036096825,0.053186015266200794,0.058398197783762394
1.007815616171642,0.10844877640211482,0.05277412946196947,0.054884533548136764,0.0458682536133791,0.05138676433958608
