freq,gls,usurper,pdc_unbiased,shape_periodogram,shift_periodogram
1.0,0.02176245538732735,0.005868505486239833,-0.007335655112181927,0.005693818273695364,-0.007377079973514149
1.0000470820251304,0.05134779247241603,0.008646558773620437,0.016081221596065367,0.003992366527126905,0.016051832377586728
1.0000941640502607,0.09689124580742478,0.013187534154040675,0.05094334186944231,0.006537987241817827,0.05089560529947583
1.0001412460753911,0.14848755125694818,0.017082558423521105,0.08456655871201842,0.013973193245450346,0.08447175178010485
1.0001883281005215,0.19664060203551523,0.019508003090073882,0.10917973127593883,0.02531317144904559,0.1090301569457901
1.0002354101256519,0.23592916525893703,0.022245247064704043,0.12678225514793529,0.03539726522747218,0.12660517607775046
1.0002824921507822,0.26363730657080775,0.026192549965248578,0.13936052532630389,0.04364151510215447,0.13917801950388703
1.0003295741759126,0.2780607972143743,0.028128392759455608,0.14663287491158739,0.047697981860690505,0.14645563434305864
1.000376656201043,0.27778293516045677,0.02757713420718818,0.14742341655727248,0.04970414657902482,0.14724705955114728
1.0004237382261734,0.2619162710265795,0.026602254008209307,0.139633635428265,0.049381698597972964,0.13944731927202728
1.0004708202513037,0.23107843684954268,0.02446673623605309,0.12167319492364326,0.04738591871593099,0.12146666290696083
1.0005179022764341,0.1884924826566669,0.021795729252966387,0.09811663264576473,0.0458142934326419,0.09788669500665972
1.0005649843015645,0.1401213853463462,0.020057758510388216,0.07552593926328457,0.04467509808387108,0.07527580008979472
1.0006120663266949,0.09311329616242185,0.02005865101417512,0.056936636782797936,0.04488131234777772,0.05666647765771731
1.0006591483518252,0.05338098213176131,0.021440607774978155,0.04656239048066332,0.04547934569899256,0.04627849967283057
1.0007062303769556,0.024158292773911582,0.023286076195722268,0.0379052596807291,0.04507264142109492,0.037614584365726546
1.000753312402086,0.006389706849983347,0.02365723228513401,0.024925530867037873,0.041682322324664844,0.024642720516688917
1.0008003944272164,4.4957735270936574e-05,0.02198380477669011,0.013623927240606612,0.03808518542243907,0.013355717453728459
1.0008474764523467,0.004476680458159687,0.021166495398482296,0.005279248516488982,0.037169039450560666,0.005011648488537747
1.000894558477477,0.016631009383087918,0.025105730414451296,0.00604487589630294,0.037466096653799706,0.00577568573810755
1.0009416405026075,0.030279800796216314,0.029175879161988397,0.01614856324889533,0.040285232781413396,0.01586747660309906
1.0009887225277379,0.04019506929021177,0.034121658388968495,0.031662352407458065,0.04327536064386844,0.03137590229123793
1.0010358045528682,0.045271217739530065,0.03892839671676621,0.049643587368788454,0.04641063646581684,0.04935827226759249
1.0010828865779986,0.04665854735345898,0.04509653997881545,0.06394396252727896,0.0506170736321296,0.06365682842956447
1.001129968603129,0.04557434040645729,0.04826159065124963,0.06951556918541625,0.05413114459340259,0.06922300470719767
1.0011770506282593,0.04281463251624272,0.04912482917378116,0.06676401531502141,0.05466432673405019,0.06646537599843393
1.0012241326533897,0.03911406922799136,0.04831206384879455,0.05756222886158259,0.051713550871889134,0.05726198074414191
1.00127121467852,0.035734840091298535,0.044281034115375074,0.04469056838221148,0.04672962284364232,0.04439817910647567
1.0013182967036505,0.034632288517627896,0.04217889632487895,0.03354469161607427,0.04242488184108232,0.0332649906164608
1.0013653787287808,0.03686446430802818,0.04159312441509954,0.03235087082016887,0.04185729059426253,0.03207345965466408
1.0014124607539112,0.040499198873267514,0.040652583805554775,0.04235422606047071,0.0452023748343364,0.04206741505192729
1.0014595427790416,0.04245011553894062,0.04138782627969914,0.05148956578485458,0.05216279114251969,0.05117896820828205
1.001506624804172,0.04142424671447975,0.04240454852412374,0.057489670337512934,0.059522817009396524,0.05715741882051969
1.0015537068293023,0.03772147907862947,0.042930964745108255,0.05838903434484734,0.06372751299468274,0.058042904279952824
1.0016007888544327,0.032149333674356434,0.0406209886863663,0.05286952532393206,0.06377166493802774,0.05251180223408378
1.001647870879563,0.025799799790141527,0.03503127407984359,0.040386054375886556,0.060415004167787154,0.040018653327891035
1.0016949529046935,0.020580986012262138,0.028964200879032554,0.02276083148008517,0.05441971591569773,0.022397024791044152
1.0017420349298238,0.01993155776046648,0.02426423909667739,0.008396000375120035,0.05023539079716518,0.008039787600859579
1.0017891169549542,0.027489951613850306,0.021290982469458406,0.00883020356959996,0.05030058750589375,0.008474084134423378
1.0018361989800846,0.042074300128446054,0.021484043162051568,0.022145335055818467,0.05156010820519319,0.021798165631610234
1.001883281005215,0.05845891480384451,0.023573461324739833,0.04104344236602053,0.05586626013081583,0.04069960748906274
1.0019303630303453,0.07582159493280267,0.024840227196414575,0.05832937685591873,0.05947719645805545,0.05799881693659717
1.0019774450554757,0.09824195100672209,0.023197353480002746,0.07041397317164165,0.06035383884607648,0.07010259395152275
1.002024527080606,0.1303669711588208,0.01982148831297786,0.07896421651578898,0.06008586663078833,0.07866948148308299
1.0020716091057364,0.17464242099810953,0.017976117372497002,0.08832693698111686,0.0593164634717898,0.08805110194773243
1.0021186911308668,0.22917237164395338,0.018142363672991144,0.11355266104308831,0.058924471430580716,0.11332280150395284
1.0021657731559972,0.2864808872447173,0.02032824215548423,0.14880372324738836,0.061933028917709076,0.14864234105562443
1.0022128551811276,0.335488571803669,0.022598629100900724,0.17945522269565434,0.06585599765554179,0.17937041126618286
1.002259937206258,0.3667004160945303,0.023919819188799898,0.20044309409803335,0.06904654615120485,0.20042381581137683
1.0023070192313883,0.37630521047742305,0.024221490172559406,0.20989430295355302,0.07071788203431836,0.20990956778641262
1.0023541012565187,0.3658732131217113,0.024220539975343233,0.20800353236518512,0.07104420673917011,0.2080165128556164
1.002401183281649,0.3393357840705059,0.024321470307041054,0.19716291122807472,0.07117501293010665,0.19714958622611217
1.0024482653067794,0.30043566038503033,0.022078931532219417,0.1783931936762516,0.07002208955665809,0.17832614406976638
1.0024953473319098,0.25183659939415354,0.01891683861114015,0.15384153094853617,0.0653001063725745,0.15369861852898878
1.0025424293570402,0.1956066522565673,0.01522196908029725,0.12081929242955049,0.057534033063152336,0.12060274298743298
1.0025895113821706,0.13475970805500284,0.014371210223725263,0.07564140824241966,0.04569275725710632,0.0753874795595326
1.002636593407301,0.07582916802294695,0.013355070853396657,0.025728531183742454,0.03276562789759235,0.025502931523785907
1.0026836754324313,0.03145358980808763,0.008717125269675765,-0.0040036080406334615,0.028670341212849223,-0.004214213331300022
1.0027307574575617,0.01779891286180085,0.0028766855349366465,-0.006351274616742859,0.039896017926078414,-0.006647190588035174
1.002777839482692,0.04358985242398123,0.005336375266661953,0.006591376950054447,0.04985048457073727,0.006235605268091183
1.0028249215078224,0.1037077589167159,0.015562195593181791,0.04281328660270074,0.059093977312611914,0.042456636615434744
1.0028720035329528,0.18101238562213362,0.027326823658344865,0.0979436666785688,0.05734070801226872,0.09768829422487714
1.0029190855580832,0.25636899888384335,0.034300352071518186,0.15380629462607742,0.05626757492909919,0.15364426974549247
1.0029661675832136,0.31832235074100634,0.03823984389168831,0.19704252226634572,0.05459943036656852,0.1969448152909658
1.003013249608344,0.36361141655314383,0.040961581544781356,0.228525784613192,0.05146342418330212,0.22846082274820048
1.0030603316334743,0.39341420767750745,0.04200366074184697,0.24979870354304085,0.051288638890129565,0.249761270020621
1.0031074136586047,0.4102870696014962,0.042665113589607714,0.26258314989231946,0.05060165634554762,0.26255845573830383
1.003154495683735,0.41662904201390033,0.042394980856649014,0.266777273312063,0.0487153237462518,0.2667469836466123
1.0032015777088654,0.41405085665469693,0.04127339173202764,0.26326150551395927,0.04627006240773308,0.26321454011547946
1.0032486597339958,0.4030953535584088,0.039502552966132955,0.251751202986526,0.043175896594039725,0.2516794739295732
1.0032957417591262,0.38301151602067063,0.037109262219649074,0.2324239377319079,0.03974122868364388,0.23232518029016613
1.0033428237842565,0.3514583105172215,0.033880181135201276,0.2047530276495091,0.035596615451620586,0.20462872953794015
1.003389905809387,0.3042863356687068,0.0295888723258399,0.16911475512504195,0.03099962647539458,0.16897293090481075
1.0034369878345173,0.2364892670841809,0.024975189178465723,0.12615890065588273,0.025922814571392623,0.12601280635157328
1.0034840698596477,0.14805992805189566,0.020684324913089636,0.07745804013496241,0.020948297993644605,0.07732153319734156
1.003531151884778,0.05937981673678241,0.01893281667710873,0.035632586371168055,0.01803942610612831,0.035506167305488126
1.0035782339099084,0.016571701488668728,0.021610421765052703,0.012038086514572617,0.0186044498977773,0.011904243918562686
1.0036253159350388,0.04141534161646615,0.029111250102691947,0.014399178728297872,0.02474906633736958,0.014222805763499392
1.0036723979601692,0.0978579156313711,0.039021708329116264,0.03595348541122598,0.03864702009041329,0.035698001512067916
1.0037194799852995,0.14599333246590304,0.05089619929566679,0.06503465797160808,0.05386219468586419,0.06473637675370117
1.00376656201043,0.17300879075255565,0.06254963574579994,0.0922030709843016,0.06338859040953022,0.09192775515502662
1.0038136440355603,0.18229222765708752,0.06922351456492527,0.11374971918924169,0.06940346227088995,0.11352080347878106
1.0038607260606907,0.18262972424027749,0.07000276850248406,0.12736778710133306,0.07099619721110444,0.12717518712042422
1.003907808085821,0.18292620727983336,0.07227007001178398,0.13485525602086357,0.06838203025157887,0.13467632343403477
1.0039548901109514,0.18798821740501145,0.07304777955432584,0.13913083302593265,0.063846141366467,0.13895326418681353
1.0040019721360818,0.19658928748535154,0.0699488715525468,0.1397247738744464,0.0590842673905154,0.139542013584938
1.0040490541612122,0.20361099360789395,0.06360017260038761,0.1356935801867525,0.05672486300525569,0.13550207681608883
1.0040961361863425,0.20356945018764083,0.0565390873080315,0.1287855413388881,0.05383670066779434,0.12858284230727388
1.004143218211473,0.19261735903368254,0.05185419330987459,0.11776025800915435,0.04934376483178739,0.11754614159315036
1.0041903002366033,0.1692114287165738,0.045223042730688855,0.09836742477706704,0.04450906485865484,0.09814140683708734
1.0042373822617336,0.13469585530973552,0.03755001816762814,0.07519967777083232,0.03892369572543374,0.07497285831947427
1.004284464286864,0.094068350002802,0.029322911398299394,0.051842634052145065,0.03273009949076188,0.0516312290408067
1.0043315463119944,0.0558705414627791,0.02154892326897355,0.03082107495389939,0.026347924662232607,0.03063909971754663
1.0043786283371248,0.029785725493520713,0.016542414115476602,0.019809015244991575,0.020909523370373755,0.019660460620747517
1.0044257103622551,0.022326134922130727,0.01411316020864437,0.01684685304795892,0.018197979311905157,0.016716579885150854
1.0044727923873855,0.03362727707623793,0.013948180875546789,0.01768087969631584,0.019316721413890806,0.017542943909851387
1.004519874412516,0.057935866130881315,0.015537343473877792,0.0238553638180855,0.023767418703155702,0.023688318957658456
1.0045669564376463,0.08691312585069338,0.01876033087344385,0.038233159934289905,0.031710453633289636,0.03802059763055063
1.0046140384627766,0.11302745450084833,0.02258139610503878,0.05542672474865837,0.043383821554100185,0.05516224871357866
1.004661120487907,0.13143773576861661,0.02576248444761939,0.07126698378066398,0.0556864723930099,0.07097183295170546
1.0047082025130374,0.140315951549541,0.030546583612094266,0.0817840112464661,0.0674006433612946,0.0814795052040326
1.0047552845381678,0.14016084842095028,0.032727170212580835,0.0846685751900148,0.07555983625527132,0.0843608989895845
1.0048023665632981,0.13271042804166153,0.03287554613152734,0.08028160564993014,0.08154939969192604,0.07995536310655975
1.0048494485884285,0.1199532079956697,0.03003405141726089,0.06958311394397716,0.08482065434495625,0.06921569117833429
1.0048965306135589,0.10352759540252561,0.027300754299318084,0.05738407400153901,0.08378289726761341,0.056974497818986274
1.0049436126386893,0.08458770500586026,0.027467044776683422,0.04469505929439128,0.0787654664043985,0.04425866835711157
1.0049906946638196,0.06411017510052013,0.026200572825582965,0.03435472552873721,0.07296588235346582,0.033913170023755206
1.00503777668895,0.043500849939608656,0.02487700395241425,0.022887706523455283,0.06493393822496912,0.022461524601434822
1.0050848587140804,0.02497562650004661,0.022225373236013927,0.013888116903115118,0.055246201395611004,0.013505781894843649
1.0051319407392107,0.011013597455985432,0.017342951760011837,0.011624969459267675,0.0481830857997342,0.011286619824747756
1.0051790227643411,0.003334338693202587,0.013830325755093981,0.009001101837417943,0.03930098893489802,0.008721159949542328
1.0052261047894715,0.0027948227754708652,0.010190565384867782,0.005716764128480125,0.027973391285874564,0.0055148756067513825
1.0052731868146019,0.010164673003053454,0.00905317328493579,0.005314070387151807,0.017314869847319673,0.0051885002374556745
1.0053202688397322,0.026566180290056158,0.00774098228506971,0.008193549268036414,0.010870738662025401,0.008114579680826002
1.0053673508648626,0.05291846997433676,0.007076252875477887,0.011498759854167706,0.008325860662724414,0.011438173702645124
1.005414432889993,0.08828034555015178,0.005700158413506507,0.017065936640710815,0.006813499524640408,0.017016234747844437
1.0054615149151234,0.12763762777320273,0.005497647203469173,0.025647230237824777,0.006308520709815534,0.025601119468969917
1.0055085969402537,0.16155770115500132,0.007486230477348922,0.038076850744054896,0.008312711020584848,0.038016690537391075
1.0055556789653841,0.18078890709766565,0.010105736246355699,0.05135766337998839,0.014652769786614332,0.051255404821962156
1.0056027609905145,0.18307418566708303,0.01131181734218466,0.06056084021799014,0.021750493163101133,0.06041580247160064
1.0056498430156449,0.1741533504439713,0.012299796307129695,0.06655908741414072,0.029167931573188813,0.06637423828888726
1.0056969250407752,0.16242605985016223,0.01340899339613323,0.07063087442771013,0.03597403584373769,0.0704140884775724
1.0057440070659056,0.15418810481596457,0.01262946727074109,0.07107575192890922,0.040627523343804775,0.07083815547265154
1.005791089091036,0.1523552110015489,0.010299580237160648,0.0660360559428213,0.04331339825137022,0.06578210859465657
1.0058381711161664,0.15691036178882456,0.008768008832557243,0.06130313889977103,0.04419718076194374,0.06104058324155561
1.0058852531412967,0.16538784679386007,0.007984546974699183,0.06307528196508604,0.04217165020745516,0.0628237068467221
1.005932335166427,0.17322460684996496,0.009296990938959665,0.06323184659303546,0.03875323418381666,0.0629965119063456
1.0059794171915575,0.17475929729964576,0.009768169648005927,0.05880087400333982,0.035218570088134143,0.058580142108642506
1.0060264992166879,0.16548577922015562,0.008784067524537552,0.05204155960234529,0.03148898981841813,0.05183721521553181
1.0060735812418182,0.1445721481217929,0.00796189415614681,0.04234591607178599,0.027224469043952624,0.042162478748033284
1.0061206632669486,0.11538472372115638,0.006836319733189491,0.03266210113426135,0.024128575798330044,0.03249508605247936
1.006167745292079,0.08342022676517998,0.007365966761363257,0.0259645785337829,0.021543961747390573,0.025812995362456334
1.0062148273172093,0.053714935068683495,0.009175360992691808,0.01794830890199036,0.019168540719270027,0.01781144690161423
1.0062619093423397,0.029620632829972474,0.012518321580736739,0.006428025048282717,0.019122056294638482,0.006289627713951507
1.00630899136747,0.012907514843990737,0.014451035836587519,-0.004503164505502606,0.017244915692930015,-0.004629431435550385
1.0063560733926005,0.004292560353454192,0.016907286646725455,-0.010519166817943732,0.015943320644092665,-0.010636434124458983
1.0064031554177308,0.0038095921685766332,0.01788184302651967,-0.007972360122875525,0.01667810030598227,-0.008094832844030056
1.0064502374428612,0.010924293923755681,0.019422810315846147,0.0013341291502741227,0.017422630886047383,0.0012072797656523821
1.0064973194679916,0.02453035587728399,0.0222728987083897,0.011333716656649779,0.019733847511926948,0.011191777598395665
1.006544401493122,0.042966387475684646,0.024717036680951744,0.020787738978896356,0.021597997185506587,0.020634666804673834
1.0065914835182523,0.06411092062196938,0.026278805890891065,0.03329944681240632,0.022027028804713678,0.03314630209638791
1.0066385655433827,0.08556714248621351,0.027910118367192063,0.049462130528264495,0.0232981591910824,0.049304965587059095
1.006685647568513,0.10493697207975199,0.028867967424581028,0.06485229624100503,0.02393990360184918,0.06469563817634442
1.0067327295936435,0.12014720761669652,0.027756930908824747,0.07640706666955516,0.023545834745915796,0.0762559335219943
1.0067798116187738,0.12974860817624662,0.0257060564212627,0.08294186479002422,0.019904000075813593,0.08281237659824887
1.0068268936439042,0.1331160769266914,0.021930811673942684,0.08436945777741765,0.017152662321539825,0.08425584080717682
1.0068739756690346,0.13051634907150206,0.019557675162766488,0.08386978816652868,0.013254826532034001,0.08377928296739745
1.006921057694165,0.12301693370584733,0.017026525943292733,0.08185258015702256,0.009247885131351772,0.08178716001245433
1.0069681397192953,0.11219272060745543,0.01410702120381545,0.07585112215539112,0.006234509159130154,0.07580553005264062
1.0070152217444257,0.09964098937742749,0.010743611664871722,0.06985230351433948,0.002855269083693275,0.06983007946645656
1.007062303769556,0.08648287672211809,0.00787238100249447,0.06302251331950957,0.0003342620862149469,0.06301842716025718
1.0071093857946865,0.07315337862299943,0.005079492409288839,0.053521194673379444,-0.0014452533919399615,0.053530322146326165
1.0071564678198168,0.05967551136841471,0.00203474610845795,0.042771215350936226,-0.0024982269811661922,0.042788374592586054
1.0072035498449472,0.046352747241279996,0.0009563607339079718,0.029687677967592516,-0.0028531528635649364,0.02970778053850042
1.0072506318700776,0.03458526276589038,-0.000142204747606092,0.01916866027493343,-0.0022271581176497536,0.019184424080231313
1.007297713895208,0.02727830692374265,-0.0008408595453561998,0.01473006896934623,-0.0010494923945350216,0.014737333334940537
1.0073447959203383,0.0280866607277734,-0.0004145262628568513,0.01711698325886342,0.0013599767110232018,0.017106635640187662
1.0073918779454687,0.03925806445151868,0.0017446924539955032,0.028584290137595406,0.005157561877104652,0.028546362100669093
1.007438959970599,0.059562255279517966,0.007329151598823456,0.043832242766228824,0.01032724432919205,0.04375834841073385
1.0074860419957294,0.08449757331606145,0.014276913379696594,0.058037587268334905,0.017468366361968034,0.05791816880767509
1.0075331240208598,0.10858230355013457,0.019562237945403814,0.06858033205585247,0.02442196704681071,0.06842206466553165
1.0075802060459902,0.12742598805780986,0.02070758441095539,0.07621925524513734,0.02954295945495669,0.07603676267758644
1.0076272880711206,0.13840784538629322,0.021504640966955875,0.07904744927672683,0.03349882079889204,0.0788474375394608
1.007674370096251,0.14057521646913557,0.020937244826532024,0.0769603579802706,0.03640339416868545,0.07674588841061311
1.0077214521213813,0.1345761316442056,0.018008248459794447,0.07084930100861353,0.03658677623637804,0.07062978926115289
