freq,gls,usurper,pdc_unbiased,shape_periodogram,shift_periodogram
1.0,0.02176245538732735,0.017950409822146164,-0.007335655112181927,-0.00410272555082351,-0.007241470689380121
1.0000470820251304,0.05134779247241603,0.02207332035860551,0.016081221596065367,-0.0033389259268892814,0.016152397023890423
1.0000941640502607,0.09689124580742478,0.02554084926806382,0.05094334186944231,0.002140194784586562,0.05088256276806387
1.0001412460753911,0.14848755125694818,0.028386921442020367,0.08456655871201842,0.008734941170339638,0.08435385247551436
1.0001883281005215,0.19664060203551523,0.03109844008042766,0.10917973127593883,0.016374721993440318,0.10880458183956558
1.0002354101256519,0.23592916525893703,0.03307886873164124,0.12678225514793529,0.021754180380979857,0.12630184700060065
1.0002824921507822,0.26363730657080775,0.03227554286038264,0.13936052532630389,0.023585019078334584,0.13884795145080198
1.0003295741759126,0.2780607972143743,0.03253278897023126,0.14663287491158739,0.024807338017831713,0.14609968063473674
1.000376656201043,0.27778293516045677,0.03392949385389973,0.14742341655727248,0.02556939517186403,0.14687660084896914
1.0004237382261734,0.2619162710265795,0.033407332997194644,0.139633635428265,0.026379632012172454,0.13906952139865658
1.0004708202513037,0.23107843684954268,0.031403400439304605,0.12167319492364326,0.026254758777178748,0.12110569115124288
1.0005179022764341,0.1884924826566669,0.028325387294809,0.09811663264576473,0.02557627047161731,0.09755587217782699
1.0005649843015645,0.1401213853463462,0.02662526094147391,0.07552593926328457,0.02418218254075454,0.07498874067618225
1.0006120663266949,0.09311329616242185,0.026168173686705692,0.056936636782797936,0.021504119106251548,0.056453320819015836
1.0006591483518252,0.05338098213176131,0.027975184477603804,0.04656239048066332,0.016214826734583753,0.04619269034106956
1.0007062303769556,0.024158292773911582,0.02921898148727537,0.0379052596807291,0.009520552199072756,0.03768342438154566
1.000753312402086,0.006389706849983347,0.030646130358831104,0.024925530867037873,0.0019308959815758767,0.024875817030289106
1.0008003944272164,4.4957735270936574e-05,0.03339882354448848,0.013623927240606612,-0.004675228168064594,0.013725878397294224
1.0008474764523467,0.004476680458159687,0.032598916378390144,0.005279248516488982,-0.0066585599727010175,0.005427972924524717
1.000894558477477,0.016631009383087918,0.03467933482669206,0.00604487589630294,-0.004938472600792493,0.0061546251274565275
1.0009416405026075,0.030279800796216314,0.0397906354267113,0.01614856324889533,-0.00037260562088969445,0.01615285783755178
1.0009887225277379,0.04019506929021177,0.04642858256627975,0.031662352407458065,0.00825265533629947,0.03146983103287043
1.0010358045528682,0.045271217739530065,0.050645986581856,0.049643587368788454,0.019104025310796875,0.04921134436021067
1.0010828865779986,0.04665854735345898,0.05035989055462169,0.06394396252727896,0.03062005522568056,0.0632719829739967
1.001129968603129,0.04557434040645729,0.04982914200587869,0.06951556918541625,0.04045664967874447,0.06864939656580209
1.0011770506282593,0.04281463251624272,0.04625876263849937,0.06676401531502141,0.04678023235556976,0.06577229750844286
1.0012241326533897,0.03911406922799136,0.0401119875669549,0.05756222886158259,0.05039686428358989,0.05648983099253884
1.00127121467852,0.035734840091298535,0.03352233920043508,0.04469056838221148,0.05271482369471043,0.04355603603406168
1.0013182967036505,0.034632288517627896,0.02731919202400989,0.03354469161607427,0.05430837224532138,0.032362880809045695
1.0013653787287808,0.03686446430802818,0.026120151061684607,0.03235087082016887,0.05441999997069097,0.031165137044152125
1.0014124607539112,0.040499198873267514,0.028906205280903468,0.04235422606047071,0.053921175477182864,0.04119220811299531
1.0014595427790416,0.04245011553894062,0.03189416375749833,0.05148956578485458,0.05192946339621264,0.050379445234416995
1.001506624804172,0.04142424671447975,0.032565014034436394,0.057489670337512934,0.045647223348876755,0.056510890812593084
1.0015537068293023,0.03772147907862947,0.03196081140042926,0.05838903434484734,0.037412345936763784,0.05757617544809258
1.0016007888544327,0.032149333674356434,0.03149658619585539,0.05286952532393206,0.027142839158955403,0.05226663879763742
1.001647870879563,0.025799799790141527,0.031423006916242516,0.040386054375886556,0.014864059535148319,0.040046322215676236
1.0016949529046935,0.020580986012262138,0.028339564021535164,0.02276083148008517,0.0031877071445091582,0.022683446558825173
1.0017420349298238,0.01993155776046648,0.02717877831034342,0.008396000375120035,-0.005310025383686045,0.00851355909304797
1.0017891169549542,0.027489951613850306,0.02824159068897822,0.00883020356959996,-0.006954509095236201,0.008984777038645532
1.0018361989800846,0.042074300128446054,0.02753855062123447,0.022145335055818467,-0.003701999091130716,0.022223180598310393
1.001883281005215,0.05845891480384451,0.029709287548901935,0.04104344236602053,0.0037136190808076614,0.04094991387535254
1.0019303630303453,0.07582159493280267,0.034004238416210995,0.05832937685591873,0.01151399884473282,0.05806049337173121
1.0019774450554757,0.09824195100672209,0.03793023082850059,0.07041397317164165,0.020812471871310908,0.06994604536639187
1.002024527080606,0.1303669711588208,0.035886105369294874,0.07896421651578898,0.029371748906098144,0.07832257771270211
1.0020716091057364,0.17464242099810953,0.030411345427829736,0.08832693698111686,0.0360170191269958,0.08755937474897318
1.0021186911308668,0.22917237164395338,0.029981864538677242,0.11355266104308831,0.04006482261116998,0.11272859774854077
1.0021657731559972,0.2864808872447173,0.032293195974697174,0.14880372324738836,0.04235967257622323,0.14797410251309773
1.0022128551811276,0.335488571803669,0.034635378066847744,0.17945522269565434,0.04416694297883348,0.17863269494723227
1.002259937206258,0.3667004160945303,0.03596202440316801,0.20044309409803335,0.04485151489811094,0.19963710790913813
1.0023070192313883,0.37630521047742305,0.036251882215072966,0.20989430295355302,0.044272947270912376,0.2091073214898167
1.0023541012565187,0.3658732131217113,0.03519144969581207,0.20800353236518512,0.04245239111849624,0.20723693548799713
1.002401183281649,0.3393357840705059,0.03389680088232217,0.19716291122807472,0.03881944684892121,0.19643324731703773
1.0024482653067794,0.30043566038503033,0.03267845117424452,0.1783931936762516,0.03281419583013868,0.177737958898737
1.0024953473319098,0.25183659939415354,0.030189349840250505,0.15384153094853617,0.023791896348533653,0.15332886904487736
1.0025424293570402,0.1956066522565673,0.025460783708110904,0.12081929242955049,0.013161545180728743,0.12050943835694664
1.0025895113821706,0.13475970805500284,0.019345342445619057,0.07564140824241966,0.00307174250893656,0.07555410655920021
1.002636593407301,0.07582916802294695,0.014199539770559608,0.025728531183742454,-0.0029237086490816588,0.025787896610467934
1.0026836754324313,0.03145358980808763,0.016666778132902065,-0.0040036080406334615,-0.0024041780545564534,-0.00394846386063323
1.0027307574575617,0.01779891286180085,0.02504509901363716,-0.006351274616742859,0.005730947508966212,-0.006478822098364605
1.002777839482692,0.04358985242398123,0.02204663793785824,0.006591376950054447,0.019528863023440427,0.006151119482516344
1.0028249215078224,0.1037077589167159,0.020698425352709052,0.04281328660270074,0.028864490982305303,0.04217172579395529
1.0028720035329528,0.18101238562213362,0.024568914947955448,0.0979436666785688,0.03327892858278744,0.09723365246502572
1.0029190855580832,0.25636899888384335,0.03450940773500366,0.15380629462607742,0.03368929532093258,0.15312103990498613
1.0029661675832136,0.31832235074100634,0.04461709692218548,0.19704252226634572,0.029707494472374765,0.19644728658763758
1.003013249608344,0.36361141655314383,0.048744331020290334,0.228525784613192,0.027630484637264717,0.22797910197554347
1.0030603316334743,0.39341420767750745,0.050646456902009786,0.24979870354304085,0.02607043011833662,0.2492856192201516
1.0031074136586047,0.4102870696014962,0.05040203215941056,0.26258314989231946,0.02397778763086177,0.2621061040774014
1.003154495683735,0.41662904201390033,0.04990976167692644,0.266777273312063,0.021829468415642293,0.26633322894178857
1.0032015777088654,0.41405085665469693,0.04868767238178996,0.26326150551395927,0.019196313822535036,0.262856229552739
1.0032486597339958,0.4030953535584088,0.04670148810814032,0.251751202986526,0.015803303368431137,0.25139816113337465
1.0032957417591262,0.38301151602067063,0.04396493692546991,0.2324239377319079,0.011828258203897305,0.23213843010755741
1.0033428237842565,0.3514583105172215,0.04032819769246427,0.2047530276495091,0.007241853133247319,0.20455546758086085
1.003389905809387,0.3042863356687068,0.03556050852950505,0.16911475512504195,0.0022396927537950465,0.16902521431585749
1.0034369878345173,0.2364892670841809,0.030067710434662318,0.12615890065588273,-0.0029477513969081185,0.12619275920214268
1.0034840698596477,0.14805992805189566,0.02422787988275954,0.07745804013496241,-0.007529032014897164,0.07760872686895165
1.003531151884778,0.05937981673678241,0.020513219768575907,0.035632586371168055,-0.010676581189963195,0.03586557656484439
1.0035782339099084,0.016571701488668728,0.02084355485817225,0.012038086514572617,-0.010879286085583778,0.01228070558036494
1.0036253159350388,0.04141534161646615,0.025730431232978544,0.014399178728297872,-0.006709429334549779,0.014546902605001492
1.0036723979601692,0.0978579156313711,0.03321730184857424,0.03595348541122598,0.000775948232991307,0.03592694975515701
1.0037194799852995,0.14599333246590304,0.04099695366743254,0.06503465797160808,0.009672060425920493,0.06480481572499305
1.00376656201043,0.17300879075255565,0.044352183405208585,0.0922030709843016,0.0194604236912251,0.09176442137147027
1.0038136440355603,0.18229222765708752,0.04756311234478567,0.11374971918924169,0.025989512647016367,0.11318496956827331
1.0038607260606907,0.18262972424027749,0.0493347002572025,0.12736778710133306,0.03206122309492063,0.12669547990017738
1.003907808085821,0.18292620727983336,0.048539241073744674,0.13485525602086357,0.039809360851242065,0.13405371340530642
1.0039548901109514,0.18798821740501145,0.04838856367601378,0.13913083302593265,0.04479086967156706,0.13825258318471004
1.0040019721360818,0.19658928748535154,0.04783580907541918,0.1397247738744464,0.04686509844645207,0.13881474672497104
1.0040490541612122,0.20361099360789395,0.04756062157529975,0.1356935801867525,0.04596276994187912,0.1347928329515301
1.0040961361863425,0.20356945018764083,0.04454921920193796,0.1287855413388881,0.0448182642785987,0.12789534394137603
1.004143218211473,0.19261735903368254,0.038540958953004724,0.11776025800915435,0.042724218500730465,0.11689372198478983
1.0041903002366033,0.1692114287165738,0.03215310076156845,0.09836742477706704,0.03854244343679164,0.09755900546056104
1.0042373822617336,0.13469585530973552,0.025491572765127136,0.07519967777083232,0.032505564949410246,0.07449398210440646
1.004284464286864,0.094068350002802,0.019832373934953705,0.051842634052145065,0.024247769350510668,0.051300687084087825
1.0043315463119944,0.0558705414627791,0.015585337717053772,0.03082107495389939,0.013932206851409142,0.030502915814348504
1.0043786283371248,0.029785725493520713,0.013829718674865528,0.019809015244991575,0.003326305191897559,0.019729238932658936
1.0044257103622551,0.022326134922130727,0.013936834441140447,0.01684685304795892,-0.0053922138201597265,0.016964207853919624
1.0044727923873855,0.03362727707623793,0.015458121440825881,0.01768087969631584,-0.010062159430066607,0.01790379334661567
1.004519874412516,0.057935866130881315,0.018244262436540336,0.0238553638180855,-0.010698397475342299,0.02409141339466247
1.0045669564376463,0.08691312585069338,0.022141963042225214,0.038233159934289905,-0.00700939567235492,0.038381922412048866
1.0046140384627766,0.11302745450084833,0.02707327642062965,0.05542672474865837,0.0005221818104526139,0.05540101378039337
1.004661120487907,0.13143773576861661,0.03101225289229364,0.07126698378066398,0.009357194307325643,0.07104297244978743
1.0047082025130374,0.140315951549541,0.03282030588477332,0.0817840112464661,0.018635488232546155,0.08136195768188426
1.0047552845381678,0.14016084842095028,0.03182555404998415,0.0846685751900148,0.02688228627986314,0.08407849351334423
1.0048023665632981,0.13271042804166153,0.028793092719013594,0.08028160564993014,0.03247444103749843,0.0795787586295556
1.0048494485884285,0.1199532079956697,0.02552305123380423,0.06958311394397716,0.03834084932690153,0.06875862680492231
1.0048965306135589,0.10352759540252561,0.022401523770012116,0.05738407400153901,0.042824501053785796,0.056461481161742634
1.0049436126386893,0.08458770500586026,0.017142407668917704,0.04469505929439128,0.04445940200492195,0.04372861843055719
1.0049906946638196,0.06411017510052013,0.013439950710295438,0.03435472552873721,0.04322407871777665,0.03340548606201297
1.00503777668895,0.043500849939608656,0.010058297430268403,0.022887706523455283,0.040124564957686314,0.02199669636233776
1.0050848587140804,0.02497562650004661,0.007791558054984017,0.013888116903115118,0.034412520101420555,0.013117612927251568
1.0051319407392107,0.011013597455985432,0.007527443922009036,0.011624969459267675,0.0268075745408702,0.01102239789812461
1.0051790227643411,0.003334338693202587,0.008347442271098175,0.009001101837417943,0.018461274494811965,0.008584586553160025
1.0052261047894715,0.0027948227754708652,0.0066386071872103,0.005716764128480125,0.011617575441714776,0.005454069427359621
1.0052731868146019,0.010164673003053454,0.004437812737864321,0.005314070387151807,0.005613088878214248,0.005186404152357047
1.0053202688397322,0.026566180290056158,0.003291826921671274,0.008193549268036414,-0.0016084960088689963,0.008227701463971431
1.0053673508648626,0.05291846997433676,0.0036171755129726538,0.011498759854167706,-0.005365869398696806,0.011616825347749857
1.005414432889993,0.08828034555015178,0.006781816435383598,0.017065936640710815,-0.0052746001613773776,0.017180579484819936
1.0054615149151234,0.12763762777320273,0.009561606114202986,0.025647230237824777,-0.002965754572643367,0.025707565419370894
1.0055085969402537,0.16155770115500132,0.011346005781259385,0.038076850744054896,0.0025783337511609754,0.03800939697238043
1.0055556789653841,0.18078890709766565,0.013186715370204192,0.05135766337998839,0.010489631615627685,0.05111218304464022
1.0056027609905145,0.18307418566708303,0.0139238663937506,0.06056084021799014,0.019342073017670786,0.06012354169918834
1.0056498430156449,0.1741533504439713,0.014093871538302669,0.06655908741414072,0.02619143797719538,0.06597887186199447
1.0056969250407752,0.16242605985016223,0.013065280690369033,0.07063087442771013,0.03171380741391085,0.0699391532991818
1.0057440070659056,0.15418810481596457,0.011599969972948128,0.07107575192890922,0.03371392891481991,0.07034406123939874
1.005791089091036,0.1523552110015489,0.009771490180971187,0.0660360559428213,0.03290413445674743,0.06531839193204371
1.0058381711161664,0.15691036178882456,0.00921940314560093,0.06130313889977103,0.03154232233553319,0.06061132543219094
1.0058852531412967,0.16538784679386007,0.010659953594689678,0.06307528196508604,0.029897472506479023,0.062417828503401884
1.005932335166427,0.17322460684996496,0.010075371432403783,0.06323184659303546,0.02668844199200803,0.06264064736911273
1.0059794171915575,0.17475929729964576,0.008612198408940189,0.05880087400333982,0.022000534748980814,0.058307175605316654
1.0060264992166879,0.16548577922015562,0.007689928268482754,0.05204155960234529,0.01687472267995271,0.05165724894790918
1.0060735812418182,0.1445721481217929,0.007392124331691023,0.04234591607178599,0.011229937706720228,0.0420856252090428
1.0061206632669486,0.11538472372115638,0.007045915905900297,0.03266210113426135,0.004623673045286989,0.03255021620032352
1.006167745292079,0.08342022676517998,0.005950291029236978,0.0259645785337829,-0.0013611862716844017,0.025988644955007845
1.0062148273172093,0.053714935068683495,0.006077213178077918,0.01794830890199036,-0.005203677647381108,0.01806113181101644
1.0062619093423397,0.029620632829972474,0.006333857688412397,0.006428025048282717,-0.007116764543130003,0.006586819562694944
1.00630899136747,0.012907514843990737,0.00765492790671066,-0.004503164505502606,-0.005179816285812685,-0.004385436466978849
1.0063560733926005,0.004292560353454192,0.009077049145950544,-0.010519166817943732,-0.001240587756038424,-0.010488574353205304
1.0064031554177308,0.0038095921685766332,0.012465494896972285,-0.007972360122875525,0.002783608390277976,-0.00803304979547633
1.0064502374428612,0.010924293923755681,0.018448084458292963,0.0013341291502741227,0.010358567336754857,0.0011005776999971062
1.0064973194679916,0.02453035587728399,0.022445731240560558,0.011333716656649779,0.017985342496726293,0.010927659347113918
1.006544401493122,0.042966387475684646,0.02546340247976846,0.020787738978896356,0.02503822225098294,0.02022530772544765
1.0065914835182523,0.06411092062196938,0.025370770368727726,0.03329944681240632,0.028612201995052596,0.03266107873070653
1.0066385655433827,0.08556714248621351,0.025784186891229632,0.049462130528264495,0.029186815443988268,0.048815461499074814
1.006685647568513,0.10493697207975199,0.0259875728042985,0.06485229624100503,0.027542461119921337,0.06424380973352156
1.0067327295936435,0.12014720761669652,0.025635868803447554,0.07640706666955516,0.02510308873134946,0.07585115700276578
1.0067798116187738,0.12974860817624662,0.023859658570013428,0.08294186479002422,0.0222346839764851,0.08244562350489554
1.0068268936439042,0.1331160769266914,0.024527989043843693,0.08436945777741765,0.01865246871006809,0.08394711856600161
1.0068739756690346,0.13051634907150206,0.022354224006093385,0.08386978816652868,0.015285845914823753,0.08351773318564278
1.006921057694165,0.12301693370584733,0.018458925422511905,0.08185258015702256,0.012427563960508163,0.08156114879423108
1.0069681397192953,0.11219272060745543,0.013713917580784059,0.07585112215539112,0.008716703656898429,0.07564024216132396
1.0070152217444257,0.09964098937742749,0.009831648268783464,0.06985230351433948,0.005186908273138561,0.06971965250627364
1.007062303769556,0.08648287672211809,0.006930160382854595,0.06302251331950957,0.002367363314508244,0.06295377419722128
1.0071093857946865,0.07315337862299943,0.006008900140043338,0.053521194673379444,-0.00023724389006334263,0.05351298168471911
1.0071564678198168,0.05967551136841471,0.005268021490028322,0.042771215350936226,-0.002679449798053796,0.04282071670826816
1.0072035498449472,0.046352747241279996,0.003325403329170767,0.029687677967592516,-0.004692198524218018,0.029786010536157096
1.0072506318700776,0.03458526276589038,0.0026728927975750234,0.01916866027493343,-0.005455344427731846,0.019286872795694396
1.007297713895208,0.02727830692374265,0.0027105198115418413,0.01473006896934623,-0.005872220963154437,0.01485878806547634
1.0073447959203383,0.0280866607277734,0.0036409965591209154,0.01711698325886342,-0.005432397662744655,0.017235180153938573
1.0073918779454687,0.03925806445151868,0.006830401735716159,0.028584290137595406,-0.003361349571779174,0.028652812656249537
1.007438959970599,0.059562255279517966,0.010705061601397845,0.043832242766228824,-0.0005877811969173685,0.04383435429199318
1.0074860419957294,0.08449757331606145,0.0136663300134915,0.058037587268334905,0.002344320610977285,0.057970549667739874
1.0075331240208598,0.10858230355013457,0.015300292048087916,0.06858033205585247,0.006123553962008262,0.06842736683646268
1.0075802060459902,0.12742598805780986,0.016769643092262383,0.07621925524513734,0.008873328133581005,0.07600492099930305
1.0076272880711206,0.13840784538629322,0.01674771800626633,0.07904744927672683,0.01080814214287158,0.07879097410176614
1.007674370096251,0.14057521646913557,0.015352725224184816,0.0769603579802706,0.012767074893528659,0.07666219576032879
1.0077214521213813,0.1345761316442056,0.014539819379932345,0.07084930100861353,0.013433258365161032,0.07053750665281831
