freq,gls,usurper,pdc_unbiased,shape_periodogram,shift_periodogram
1.0,0.02176245538732735,0.02224656783215204,-0.007335655112181927,-0.005493250862807049,-0.007162461220644462
1.0000470820251304,0.05134779247241603,0.039558579196604375,0.016081221596065367,0.002613957529192264,0.015992820283200936
1.0000941640502607,0.09689124580742478,0.05538203292730887,0.05094334186944231,0.01870100581752296,0.05035197000152889
1.0001412460753911,0.14848755125694818,0.07188566335715882,0.08456655871201842,0.033877673793542694,0.08353787558532022
1.0001883281005215,0.19664060203551523,0.08488033186644987,0.10917973127593883,0.047190523389542854,0.10781376423906736
1.0002354101256519,0.23592916525893703,0.09196444401715784,0.12678225514793529,0.0570942151333346,0.12520052271317672
1.0002824921507822,0.26363730657080775,0.09528405541775131,0.13936052532630389,0.06258624819908187,0.1376806221799378
1.0003295741759126,0.2780607972143743,0.09659469007329506,0.14663287491158739,0.06605619936548271,0.14489675789692952
1.000376656201043,0.27778293516045677,0.09631463148845547,0.14742341655727248,0.06775391825840021,0.14565460201380834
1.0004237382261734,0.2619162710265795,0.09282764393456676,0.139633635428265,0.06804063347460201,0.13783855724020277
1.0004708202513037,0.23107843684954268,0.08499717090975342,0.12167319492364326,0.06654173360238805,0.11986552078293033
1.0005179022764341,0.1884924826566669,0.07466507878849395,0.09811663264576473,0.06340560626043788,0.09632986692479996
1.0005649843015645,0.1401213853463462,0.06616825519866427,0.07552593926328457,0.05955315364641821,0.07379471954291643
1.0006120663266949,0.09311329616242185,0.060626849458451954,0.056936636782797936,0.0541407085335086,0.05532467797677906
1.0006591483518252,0.05338098213176131,0.059401537168536314,0.04656239048066332,0.046070817026923824,0.04516837319007894
1.0007062303769556,0.024158292773911582,0.0578834596862362,0.0379052596807291,0.03524163251654277,0.03682288663063097
1.000753312402086,0.006389706849983347,0.052992980313286885,0.024925530867037873,0.022922254076428044,0.024212042491119173
1.0008003944272164,4.4957735270936574e-05,0.05057128592556552,0.013623927240606612,0.012042303133957507,0.013246221623772777
1.0008474764523467,0.004476680458159687,0.0460946744761369,0.005279248516488982,0.007357468897203732,0.005049434066178376
1.000894558477477,0.016631009383087918,0.045943518089233526,0.00604487589630294,0.00801865286059666,0.00579431031749092
1.0009416405026075,0.030279800796216314,0.05349445601875757,0.01614856324889533,0.013113486675033276,0.015736985219005826
1.0009887225277379,0.04019506929021177,0.06615403330276737,0.031662352407458065,0.02282386194124672,0.030950785944819183
1.0010358045528682,0.045271217739530065,0.07805527605138904,0.049643587368788454,0.03450626985240285,0.048585966922155305
1.0010828865779986,0.04665854735345898,0.08125631817181517,0.06394396252727896,0.04650138541122958,0.0625520639004358
1.001129968603129,0.04557434040645729,0.07997905870749769,0.06951556918541625,0.05653471672352963,0.06785523660082568
1.0011770506282593,0.04281463251624272,0.07259005241506049,0.06676401531502141,0.06289892081007377,0.06492851793329689
1.0012241326533897,0.03911406922799136,0.06310109130266392,0.05756222886158259,0.06670291696620517,0.05560619052400188
1.00127121467852,0.035734840091298535,0.053444492774584566,0.04469056838221148,0.06843290614069324,0.042659684371408116
1.0013182967036505,0.034632288517627896,0.04606373687697852,0.03354469161607427,0.07010322086303815,0.03144231953936206
1.0013653787287808,0.03686446430802818,0.04953574967316821,0.03235087082016887,0.07168997464304946,0.030200192460478757
1.0014124607539112,0.040499198873267514,0.0595896491678236,0.04235422606047071,0.07339038175170251,0.040179299233526033
1.0014595427790416,0.04245011553894062,0.06847643711698256,0.05148956578485458,0.07341216900955447,0.04933709929096084
1.001506624804172,0.04142424671447975,0.07421107745473253,0.057489670337512934,0.06966804970032875,0.05545326856245542
1.0015537068293023,0.03772147907862947,0.07465119474131257,0.05838903434484734,0.06259491388870936,0.05654635197729469
1.0016007888544327,0.032149333674356434,0.07166361970481863,0.05286952532393206,0.05112391443545435,0.051337341052906285
1.001647870879563,0.025799799790141527,0.06465378953624842,0.040386054375886556,0.03671423628651669,0.03926098323966095
1.0016949529046935,0.020580986012262138,0.05394303064204332,0.02276083148008517,0.02114899063286026,0.022101626729968845
1.0017420349298238,0.01993155776046648,0.04456518718481647,0.008396000375120035,0.009221755949379731,0.008107295019158937
1.0017891169549542,0.027489951613850306,0.04185099146409184,0.00883020356959996,0.006546366779266597,0.008623827627970895
1.0018361989800846,0.042074300128446054,0.042618065170672015,0.022145335055818467,0.011320901867649464,0.021786448819973676
1.001883281005215,0.05845891480384451,0.048169584704735154,0.04104344236602053,0.021317374721990415,0.04037568492355436
1.0019303630303453,0.07582159493280267,0.05757553556634328,0.05832937685591873,0.032230101924041375,0.05733996614632005
1.0019774450554757,0.09824195100672209,0.06597910317472949,0.07041397317164165,0.04213523994515817,0.06914859173090236
1.002024527080606,0.1303669711588208,0.06651313484396455,0.07896421651578898,0.05031427519560856,0.07748315637383339
1.0020716091057364,0.17464242099810953,0.0621218841061197,0.08832693698111686,0.05569945573448604,0.08671656569456415
1.0021186911308668,0.22917237164395338,0.06729814512135482,0.11355266104308831,0.05876615886347911,0.11190791820012574
1.0021657731559972,0.2864808872447173,0.07826740245733858,0.14880372324738836,0.060804110413796235,0.14718229827454193
1.0022128551811276,0.335488571803669,0.08842208856392891,0.17945522269565434,0.06192897800882239,0.177879222999743
1.002259937206258,0.3667004160945303,0.09512442298565858,0.20044309409803335,0.06138753536761268,0.19892598587789434
1.0023070192313883,0.37630521047742305,0.09764879614734996,0.20989430295355302,0.05878239249293661,0.20844381127991002
1.0023541012565187,0.3658732131217113,0.09577423772582533,0.20800353236518512,0.05422642295460016,0.20662992619289705
1.002401183281649,0.3393357840705059,0.0892450413720681,0.19716291122807472,0.04739731290752924,0.19590285199401308
1.0024482653067794,0.30043566038503033,0.08003431145275028,0.1783931936762516,0.037919862064464856,0.17731709239390173
1.0024953473319098,0.25183659939415354,0.06914433770233928,0.15384153094853617,0.025991379973658385,0.15304497051462662
1.0025424293570402,0.1956066522565673,0.05531659887552861,0.12081929242955049,0.014538219623737058,0.12033527604933082
1.0025895113821706,0.13475970805500284,0.0363337516919339,0.07564140824241966,0.0032404552050731656,0.07550654595437802
1.002636593407301,0.07582916802294695,0.01697868429974225,0.025728531183742454,-0.0037361863242043364,0.02583180330101474
1.0026836754324313,0.03145358980808763,0.013207616872468896,-0.0040036080406334615,-0.0030436511271319877,-0.003907628358268255
1.0027307574575617,0.01779891286180085,0.02512783946581634,-0.006351274616742859,0.008961432233711012,-0.00662550771715661
1.002777839482692,0.04358985242398123,0.032617815874025624,0.006591376950054447,0.027535208925396893,0.005739271197137951
1.0028249215078224,0.1037077589167159,0.04367928314915133,0.04281328660270074,0.04389925366283214,0.04147935867779074
1.0028720035329528,0.18101238562213362,0.06250823605838564,0.0979436666785688,0.055858903300484306,0.09634394077301374
1.0029190855580832,0.25636899888384335,0.08577439916499299,0.15380629462607742,0.06379108580288503,0.1521339362839794
1.0029661675832136,0.31832235074100634,0.10786744889371822,0.19704252226634572,0.06271201592300778,0.1954942334083045
1.003013249608344,0.36361141655314383,0.11897852733049596,0.228525784613192,0.060784308205558225,0.2270856214317863
1.0030603316334743,0.39341420767750745,0.12602413715388186,0.24979870354304085,0.059813275052950865,0.24842425605979915
1.0031074136586047,0.4102870696014962,0.12863493780200785,0.26258314989231946,0.05777495088015017,0.2612672804933738
1.003154495683735,0.41662904201390033,0.1284007931147476,0.266777273312063,0.0551874658635795,0.2655067174254289
1.0032015777088654,0.41405085665469693,0.12553394756687491,0.26326150551395927,0.05149070699463935,0.2620380444419662
1.0032486597339958,0.4030953535584088,0.12001884733813675,0.251751202986526,0.04667143086563556,0.2505858801088727
1.0032957417591262,0.38301151602067063,0.11176924646079812,0.2324239377319079,0.04076628309809894,0.23134084224109713
1.0033428237842565,0.3514583105172215,0.10025235635629426,0.2047530276495091,0.03345052645982391,0.20379853585769317
1.003389905809387,0.3042863356687068,0.08514202080373295,0.16911475512504195,0.02489453596537015,0.16834999464686703
1.0034369878345173,0.2364892670841809,0.06699400966959299,0.12615890065588273,0.015467841224512174,0.12564753090600075
1.0034840698596477,0.14805992805189566,0.046724857083214714,0.07745804013496241,0.006325999969988172,0.07722897978767024
1.003531151884778,0.05937981673678241,0.030712384813862473,0.035632586371168055,-0.00042595403737167236,0.03562872448564655
1.0035782339099084,0.016571701488668728,0.024453115399481928,0.012038086514572617,-0.002785362201825234,0.012118464812682923
1.0036253159350388,0.04141534161646615,0.03133679859759684,0.014399178728297872,0.001645061380480252,0.014341481019275413
1.0036723979601692,0.0978579156313711,0.04419860634926708,0.03595348541122598,0.009403400418336962,0.03564777572548595
1.0037194799852995,0.14599333246590304,0.059313616288169786,0.06503465797160808,0.02104609465249061,0.06437140011038354
1.00376656201043,0.17300879075255565,0.07268072568965381,0.0922030709843016,0.03340852840498492,0.09119010800763344
1.0038136440355603,0.18229222765708752,0.08365013912992049,0.11374971918924169,0.04377537902026911,0.11247516447056233
1.0038607260606907,0.18262972424027749,0.09099737393494292,0.12736778710133306,0.055029142953826084,0.12583513303270158
1.003907808085821,0.18292620727983336,0.09477378375099048,0.13485525602086357,0.06566017052505548,0.1330986777572616
1.0039548901109514,0.18798821740501145,0.09694919544715107,0.13913083302593265,0.07146309936593996,0.13726368987507065
1.0040019721360818,0.19658928748535154,0.09620043169855255,0.1397247738744464,0.07369740689737432,0.13781409686325682
1.0040490541612122,0.20361099360789395,0.09678647313509664,0.1356935801867525,0.07307177552664863,0.13378341299462657
1.0040961361863425,0.20356945018764083,0.0948756938244485,0.1287855413388881,0.07100813414660016,0.1268986024083225
1.004143218211473,0.19261735903368254,0.08596975491141463,0.11776025800915435,0.06585387193260202,0.11595884726476659
1.0041903002366033,0.1692114287165738,0.07314662090647843,0.09836742477706704,0.05919742094804456,0.09668489763619278
1.0042373822617336,0.13469585530973552,0.058159250786806185,0.07519967777083232,0.050858311794428235,0.07369967805521412
1.004284464286864,0.094068350002802,0.04459649174088636,0.051842634052145065,0.039453133003988596,0.0506424550076716
1.0043315463119944,0.0558705414627791,0.033594474624756204,0.03082107495389939,0.026280449757833006,0.0300054469297507
1.0043786283371248,0.029785725493520713,0.027148106699917886,0.019809015244991575,0.013518718057159,0.019383666824687725
1.0044257103622551,0.022326134922130727,0.02533605432279533,0.01684685304795892,0.0033228407918397015,0.01673622283181763
1.0044727923873855,0.03362727707623793,0.02695480959397031,0.01768087969631584,-0.0019041896465311087,0.017731300196710414
1.004519874412516,0.057935866130881315,0.03175833251145085,0.0238553638180855,-0.002365355872009655,0.023917092986266607
1.0045669564376463,0.08691312585069338,0.03986120361469396,0.038233159934289905,0.002052827718447814,0.03815167594410402
1.0046140384627766,0.11302745450084833,0.04968374268348006,0.05542672474865837,0.01116096308753461,0.05506030123595809
1.004661120487907,0.13143773576861661,0.05756168498199637,0.07126698378066398,0.021133918922825127,0.07060040776974327
1.0047082025130374,0.140315951549541,0.06319827016078271,0.0817840112464661,0.030863756055007217,0.08083881104335244
1.0047552845381678,0.14016084842095028,0.06468751232049846,0.0846685751900148,0.039385254021998904,0.08348810619702468
1.0048023665632981,0.13271042804166153,0.06183771990359662,0.08028160564993014,0.044991397589563685,0.07894531942683318
1.0048494485884285,0.1199532079956697,0.05669174011524895,0.06958311394397716,0.050216462115974386,0.0680942229278541
1.0048965306135589,0.10352759540252561,0.049834437702111885,0.05738407400153901,0.052707774140947634,0.055812562590870834
1.0049436126386893,0.08458770500586026,0.04150073416798456,0.04469505929439128,0.053181223038261026,0.0430953936470283
1.0049906946638196,0.06411017510052013,0.033607823595673714,0.03435472552873721,0.051821166359026734,0.03278311137867545
1.00503777668895,0.043500849939608656,0.026978348790585256,0.022887706523455283,0.04828087377162161,0.021410348672971723
1.0050848587140804,0.02497562650004661,0.021431086243671335,0.013888116903115118,0.042555715985477034,0.012577717760746222
1.0051319407392107,0.011013597455985432,0.01924292181186733,0.011624969459267675,0.0357189146048636,0.010522172552385507
1.0051790227643411,0.003334338693202587,0.016108888780028117,0.009001101837417943,0.027497485408099608,0.008149961453676191
1.0052261047894715,0.0027948227754708652,0.012246588014433837,0.005716764128480125,0.020172019521401966,0.005091529129246626
1.0052731868146019,0.010164673003053454,0.00908099680037192,0.005314070387151807,0.011895722721466722,0.004944169371046728
1.0053202688397322,0.026566180290056158,0.007710863115289638,0.008193549268036414,0.004279988219221688,0.008057415818420966
1.0053673508648626,0.05291846997433676,0.008500623390271808,0.011498759854167706,7.307387608093337e-05,0.01149100686733459
1.005414432889993,0.08828034555015178,0.012603386098621395,0.017065936640710815,-0.0017128492504524715,0.017110733402926452
1.0054615149151234,0.12763762777320273,0.01716388665291278,0.025647230237824777,-0.001357355836873952,0.02567692278645301
1.0055085969402537,0.16155770115500132,0.022530419963394565,0.038076850744054896,0.0035389023352912154,0.037949758152651995
1.0055556789653841,0.18078890709766565,0.027616193306719813,0.05135766337998839,0.01227861277723619,0.050958942025188796
1.0056027609905145,0.18307418566708303,0.03087179525504256,0.06056084021799014,0.022716785918641264,0.05984897384902865
1.0056498430156449,0.1741533504439713,0.032708137561410895,0.06655908741414072,0.029851408381168204,0.0656398017089303
1.0056969250407752,0.16242605985016223,0.03382516880564434,0.07063087442771013,0.035488043550270874,0.06955193044471657
1.0057440070659056,0.15418810481596457,0.033855567493977674,0.07107575192890922,0.03834712996675734,0.06991654199722606
1.005791089091036,0.1523552110015489,0.03235056346879749,0.0660360559428213,0.038334123149159786,0.06487471568028674
1.0058381711161664,0.15691036178882456,0.03127256861602675,0.06130313889977103,0.03711913470885605,0.06017416477029141
1.0058852531412967,0.16538784679386007,0.03345292891050148,0.06307528196508604,0.03570364911989245,0.061987401203429854
1.005932335166427,0.17322460684996496,0.03231567812495919,0.06323184659303546,0.03300590589138284,0.06222123500565377
1.0059794171915575,0.17475929729964576,0.029151730909522233,0.05880087400333982,0.029050712127884626,0.05790377735187858
1.0060264992166879,0.16548577922015562,0.02534449217147671,0.05204155960234529,0.02428507531127594,0.05128413165807969
1.0060735812418182,0.1445721481217929,0.020696068692681688,0.04234591607178599,0.018176098778323907,0.041772225494127645
1.0061206632669486,0.11538472372115638,0.017416117638185492,0.03266210113426135,0.01050803061495741,0.032323976372468255
1.006167745292079,0.08342022676517998,0.013606368338213876,0.0259645785337829,0.0038292898119020296,0.025834113944938817
1.0062148273172093,0.053714935068683495,0.011469132162972037,0.01794830890199036,-0.0009504594298780959,0.01796910902834813
1.0062619093423397,0.029620632829972474,0.009257462485760516,0.006428025048282717,-0.0029751028749157296,0.006516943949587707
1.00630899136747,0.012907514843990737,0.007959714887582696,-0.004503164505502606,-0.0006464505520321666,-0.004481030647728935
1.0063560733926005,0.004292560353454192,0.008371307567479192,-0.010519166817943732,0.0046932226379697035,-0.01065931217610758
1.0064031554177308,0.0038095921685766332,0.011061308553928378,-0.007972360122875525,0.011261145330762766,-0.008317152535406
1.0064502374428612,0.010924293923755681,0.017911273155837296,0.0013341291502741227,0.021795953122500746,0.0006598832907527856
1.0064973194679916,0.02453035587728399,0.02492396078777581,0.011333716656649779,0.03247231695988484,0.010330126170171275
1.006544401493122,0.042966387475684646,0.030773881357901597,0.020787738978896356,0.04261356550215575,0.019479006981278975
1.0065914835182523,0.06411092062196938,0.036190816985406965,0.03329944681240632,0.04764046715889539,0.03184933423940738
1.0066385655433827,0.08556714248621351,0.04137536650853682,0.049462130528264495,0.0479044732733233,0.048017973162696556
1.006685647568513,0.10493697207975199,0.04543545826462303,0.06485229624100503,0.04544799411875746,0.0634905217984669
1.0067327295936435,0.12014720761669652,0.0474659269017323,0.07640706666955516,0.04117061058522789,0.07517239283379232
1.0067798116187738,0.12974860817624662,0.048362684308821825,0.08294186479002422,0.03534078647959584,0.08187192785157246
1.0068268936439042,0.1331160769266914,0.04943742773895554,0.08436945777741765,0.029118154707965502,0.08347394323742958
1.0068739756690346,0.13051634907150206,0.04742510733405562,0.08386978816652868,0.02252247829719728,0.08316197897619378
1.006921057694165,0.12301693370584733,0.042018741855725836,0.08185258015702256,0.017882721211478037,0.08127934130056022
1.0069681397192953,0.11219272060745543,0.034944321288666,0.07585112215539112,0.01365834017197901,0.07540347706620923
1.0070152217444257,0.09964098937742749,0.028791392726975038,0.06985230351433948,0.00979713212399382,0.0695217530761322
1.007062303769556,0.08648287672211809,0.023547123478482583,0.06302251331950957,0.006621558974333825,0.06279040993433524
1.0071093857946865,0.07315337862299943,0.020107033185600077,0.053521194673379444,0.0035409032749673017,0.05338703426464354
1.0071564678198168,0.05967551136841471,0.018087865024113456,0.042771215350936226,0.0010597592594200817,0.04271816609776151
1.0072035498449472,0.046352747241279996,0.014059928389083551,0.029687677967592516,-0.0012359832746419044,0.029711682029191208
1.0072506318700776,0.03458526276589038,0.011437303376362723,0.01916866027493343,-0.0017944104936985267,0.019214972766383107
1.007297713895208,0.02727830692374265,0.010727357727179025,0.01473006896934623,-0.0018049957492476615,0.014778833622896434
1.0073447959203383,0.0280866607277734,0.013083626181716292,0.01711698325886342,-0.0010415972932184589,0.0171409988311257
1.0073918779454687,0.03925806445151868,0.02032236100339228,0.028584290137595406,0.0014816749267679598,0.028524925834037783
1.007438959970599,0.059562255279517966,0.02940981901984314,0.043832242766228824,0.004549660799367847,0.04367154884789154
1.0074860419957294,0.08449757331606145,0.037901865888189064,0.058037587268334905,0.00811894337585444,0.057762125705977864
1.0075331240208598,0.10858230355013457,0.04425205279642274,0.06858033205585247,0.013455941537653584,0.06814080653156869
1.0075802060459902,0.12742598805780986,0.04873487982493103,0.07621925524513734,0.017713890991778086,0.07565199018456667
1.0076272880711206,0.13840784538629322,0.049426721874858186,0.07904744927672683,0.020673136027330497,0.07839342873921636
1.007674370096251,0.14057521646913557,0.046674102690582045,0.0769603579802706,0.023673439455476442,0.07621965410197563
1.0077214521213813,0.1345761316442056,0.04285003406722411,0.07084930100861353,0.024749854537857118,0.0700775810140686
1.0077685341465117,0.12269802495893224,0.0373147916581563,0.062425783036096825,0.023897840867634076,0.061679132850236316
