freq,gls,usurper,pdc_unbiased,shape_periodogram,shift_periodogram
1.0,0.02176245538732735,0.05035228947785895,-0.007335655112181927,0.035653292050646414,-0.014068709911150133
1.0000470820251304,0.05134779247241603,0.09963904820421073,0.016081221596065367,0.08075476775552246,0.00023982881584972484
1.0000941640502607,0.09689124580742478,0.1532282373526848,0.05094334186944231,0.13423135994428206,0.02443306253839256
1.0001412460753911,0.14848755125694818,0.20677046355404374,0.08456655871201842,0.18555545041278745,0.04835231832017939
1.0001883281005215,0.19664060203551523,0.25013199958650595,0.10917973127593883,0.22826235348421484,0.06543777634378312
1.0002354101256519,0.23592916525893703,0.27925099799354736,0.12678225514793529,0.2582817885463718,0.0781296552945647
1.0002824921507822,0.26363730657080775,0.2981014271713029,0.13936052532630389,0.2769024106100618,0.08791392264816271
1.0003295741759126,0.2780607972143743,0.3080221537009926,0.14663287491158739,0.28653592202560074,0.0938479805987428
1.000376656201043,0.27778293516045677,0.310159966924242,0.14742341655727248,0.2884762165767124,0.0943457931962796
1.0004237382261734,0.2619162710265795,0.3024088300109612,0.139633635428265,0.2814727886472547,0.08741286111931504
1.0004708202513037,0.23107843684954268,0.2824110156376924,0.12167319492364326,0.2642610845653861,0.07180058570498604
1.0005179022764341,0.1884924826566669,0.2558638581703697,0.09811663264576473,0.24192298902310025,0.05165122728942871
1.0005649843015645,0.1401213853463462,0.2370615660895075,0.07552593926328457,0.2272080878965943,0.03139955417344256
1.0006120663266949,0.09311329616242185,0.22905500604259868,0.056936636782797936,0.222327166875322,0.013506520832984776
1.0006591483518252,0.05338098213176131,0.2324424910842738,0.04656239048066332,0.22589377901353072,0.0023217624501009285
1.0007062303769556,0.024158292773911582,0.23833955801052928,0.0379052596807291,0.23164288572367484,-0.007568583512955264
1.000753312402086,0.006389706849983347,0.23665241348216118,0.024925530867037873,0.23154315737389067,-0.02065698628495598
1.0008003944272164,4.4957735270936574e-05,0.23417057614526512,0.013623927240606612,0.22778896331038226,-0.031281411400693133
1.0008474764523467,0.004476680458159687,0.2337581931410422,0.005279248516488982,0.2299905417686467,-0.04013185193915812
1.000894558477477,0.016631009383087918,0.2460450613077741,0.00604487589630294,0.24393236234424528,-0.042259590931506635
1.0009416405026075,0.030279800796216314,0.27606213112199224,0.01614856324889533,0.27228556649473806,-0.03796853969916786
1.0009887225277379,0.04019506929021177,0.3183894527626554,0.031662352407458065,0.31152123754931493,-0.030373173193617254
1.0010358045528682,0.045271217739530065,0.3631343466086491,0.049643587368788454,0.3535403724945236,-0.020599542458898334
1.0010828865779986,0.04665854735345898,0.39516546409333175,0.06394396252727896,0.3887708449579255,-0.012972346619263296
1.001129968603129,0.04557434040645729,0.40934311052997285,0.06951556918541625,0.4078008520909013,-0.011073559387310214
1.0011770506282593,0.04281463251624272,0.40339727259718117,0.06676401531502141,0.4083403090725574,-0.014168162848697468
1.0012241326533897,0.03911406922799136,0.38251719993338285,0.05756222886158259,0.39368075591157237,-0.020876876271547905
1.00127121467852,0.035734840091298535,0.35326557387345836,0.04469056838221148,0.3695037852220603,-0.02928331744274036
1.0013182967036505,0.034632288517627896,0.33122963822115736,0.03354469161607427,0.35165666284925623,-0.037095611678084096
1.0013653787287808,0.03686446430802818,0.3327207890522567,0.03235087082016887,0.3518637536550867,-0.03839207846573102
1.0014124607539112,0.040499198873267514,0.35383551273814584,0.04235422606047071,0.3690210222240578,-0.03164778008799102
1.0014595427790416,0.04245011553894062,0.3810032413509467,0.05148956578485458,0.3933152777813208,-0.027301720614169044
1.001506624804172,0.04142424671447975,0.40003752058175057,0.057489670337512934,0.40928534373821085,-0.024401033618020703
1.0015537068293023,0.03772147907862947,0.40179654390409736,0.05838903434484734,0.40911324257111537,-0.023391448708205503
1.0016007888544327,0.032149333674356434,0.3850699260248589,0.05286952532393206,0.38938272970937793,-0.02495653378003493
1.001647870879563,0.025799799790141527,0.34951600299358376,0.040386054375886556,0.35137590858158263,-0.02986049536268731
1.0016949529046935,0.020580986012262138,0.3022878127252274,0.02276083148008517,0.3028308778975864,-0.03769156009191605
1.0017420349298238,0.01993155776046648,0.2617369299902417,0.008396000375120035,0.2618836068454413,-0.04365078858157138
1.0017891169549542,0.027489951613850306,0.24399704758542845,0.00883020356959996,0.24374223609488144,-0.03940844157058715
1.0018361989800846,0.042074300128446054,0.24632882516077087,0.022145335055818467,0.2473505117200823,-0.026693206827537466
1.001883281005215,0.05845891480384451,0.26295568192940194,0.04104344236602053,0.26472810985638884,-0.011037532683882582
1.0019303630303453,0.07582159493280267,0.2820846185414699,0.05832937685591873,0.2811339837541801,0.0033596805641879714
1.0019774450554757,0.09824195100672209,0.28996264262784827,0.07041397317164165,0.2839392872735057,0.015242846410992302
1.002024527080606,0.1303669711588208,0.2764437788828196,0.07896421651578898,0.26785634794375063,0.027156622190105915
1.0020716091057364,0.17464242099810953,0.255572987888492,0.08832693698111686,0.24701854445229662,0.04069829814329486
1.0021186911308668,0.22917237164395338,0.2584269133316513,0.11355266104308831,0.24492927421663196,0.06690344168126011
1.0021657731559972,0.2864808872447173,0.28179615037331446,0.14880372324738836,0.2612027158994009,0.10038245296371479
1.0022128551811276,0.335488571803669,0.3076198101894088,0.17945522269565434,0.28136631321879435,0.1290175633706014
1.002259937206258,0.3667004160945303,0.32386884146913963,0.20044309409803335,0.2937497131166272,0.14919718369466337
1.0023070192313883,0.37630521047742305,0.32728984711203457,0.20989430295355302,0.29487448937239513,0.15901761125912764
1.0023541012565187,0.3658732131217113,0.3184906194423632,0.20800353236518512,0.28532929168355003,0.15840230870680289
1.002401183281649,0.3393357840705059,0.2995426028093325,0.19716291122807472,0.26724468226744647,0.1497120715648508
1.0024482653067794,0.30043566038503033,0.27297243209711114,0.1783931936762516,0.2423171219512651,0.13408125394377327
1.0024953473319098,0.25183659939415354,0.23968242840736811,0.15384153094853617,0.2104612111456268,0.11409686399151996
1.0025424293570402,0.1956066522565673,0.19543564910857253,0.12081929242955049,0.17034053715504974,0.08759535471595475
1.0025895113821706,0.13475970805500284,0.135602749776447,0.07564140824241966,0.11864729249640871,0.051900331350815745
1.002636593407301,0.07582916802294695,0.07309873655468478,0.025728531183742454,0.06700875660734848,0.012384976433480473
1.0026836754324313,0.03145358980808763,0.03840864234713675,-0.0040036080406334615,0.03535837946608846,-0.010740585392343946
1.0027307574575617,0.01779891286180085,0.03939477478620226,-0.006351274616742859,0.0331218514305618,-0.012613786264848789
1.002777839482692,0.04358985242398123,0.057595594808020074,0.006591376950054447,0.05383029376058611,-0.0038985046532924875
1.0028249215078224,0.1037077589167159,0.09847571581441925,0.04281328660270074,0.09410985720855405,0.024036974527394464
1.0028720035329528,0.18101238562213362,0.16444458871199277,0.0979436666785688,0.1547772292726118,0.06744606373241298
1.0029190855580832,0.25636899888384335,0.2329838046284163,0.15380629462607742,0.2132064174233676,0.1135991333345727
1.0029661675832136,0.31832235074100634,0.2891767218474836,0.19704252226634572,0.2532266982958849,0.1517100983255404
1.003013249608344,0.36361141655314383,0.3240913084109271,0.228525784613192,0.2791596171444905,0.18089384276690065
1.0030603316334743,0.39341420767750745,0.34609335586824574,0.24979870354304085,0.2951102049778427,0.20129693963154663
1.0031074136586047,0.4102870696014962,0.35765975071900613,0.26258314989231946,0.3028836381497987,0.21396166434990901
1.003154495683735,0.41662904201390033,0.3609233552472047,0.266777273312063,0.3039009528332003,0.2183233399751831
1.0032015777088654,0.41405085665469693,0.35672152726227674,0.26326150551395927,0.29826722161320135,0.2152414754823951
1.0032486597339958,0.4030953535584088,0.3448611587970156,0.251751202986526,0.28577008625279676,0.20455671209774973
1.0032957417591262,0.38301151602067063,0.3250175323619898,0.2324239377319079,0.26632422926404997,0.1867593652100122
1.0033428237842565,0.3514583105172215,0.2964905186285252,0.2047530276495091,0.23965746570482216,0.16176278601021007
1.003389905809387,0.3042863356687068,0.259079796522158,0.16911475512504195,0.2062896192672684,0.13037756526049066
1.0034369878345173,0.2364892670841809,0.21345269115167564,0.12615890065588273,0.16701650755525785,0.09355773123372704
1.0034840698596477,0.14805992805189566,0.1629364498652705,0.07745804013496241,0.12573390179685143,0.052381972683682027
1.003531151884778,0.05937981673678241,0.12596461959104496,0.035632586371168055,0.0981952306628948,0.016164113775864623
1.0035782339099084,0.016571701488668728,0.12191942714545655,0.012038086514572617,0.10168211810796111,-0.007797909272506352
1.0036253159350388,0.04141534161646615,0.16220963610215283,0.014399178728297872,0.14589777572327745,-0.01410020900092066
1.0036723979601692,0.0978579156313711,0.2308108900766264,0.03595348541122598,0.21623601328160755,-0.006469586391093443
1.0037194799852995,0.14599333246590304,0.3097680774017995,0.06503465797160808,0.2979823077330125,0.006912817603465349
1.00376656201043,0.17300879075255565,0.37878409885511305,0.0922030709843016,0.3704872927281653,0.021048959513409002
1.0038136440355603,0.18229222765708752,0.4293660734928305,0.11374971918924169,0.42370142182281584,0.03398200979751887
1.0038607260606907,0.18262972424027749,0.46075474905074826,0.12736778710133306,0.4591757076447821,0.042323083751695884
1.003907808085821,0.18292620727983336,0.4764419916923932,0.13485525602086357,0.47893760422846726,0.047072769333793424
1.0039548901109514,0.18798821740501145,0.48212569506691033,0.13913083302593265,0.48456268256485097,0.0509223417657275
1.0040019721360818,0.19658928748535154,0.4778575668082073,0.1397247738744464,0.47916479734382333,0.052610678387925915
1.0040490541612122,0.20361099360789395,0.46565429878438075,0.1356935801867525,0.4625114851582202,0.05111219740635792
1.0040961361863425,0.20356945018764083,0.4432474939481915,0.1287855413388881,0.43502323858111897,0.0484828077412143
1.004143218211473,0.19261735903368254,0.4075108491374001,0.11776025800915435,0.39674150822155346,0.043539266017407166
1.0041903002366033,0.1692114287165738,0.35740030195611366,0.09836742477706704,0.3463902129199259,0.03231049278819076
1.0042373822617336,0.13469585530973552,0.2994509300615155,0.07519967777083232,0.2897691944780435,0.019042562458525338
1.004284464286864,0.094068350002802,0.24447398087368047,0.051842634052145065,0.2349153946756196,0.005890433327244012
1.0043315463119944,0.0558705414627791,0.19647379741990373,0.03082107495389939,0.18621362044096024,-0.005682190533377583
1.0043786283371248,0.029785725493520713,0.1651143177951306,0.019809015244991575,0.15273211539114884,-0.01007282291653245
1.0044257103622551,0.022326134922130727,0.15050578755153476,0.01684685304795892,0.13529063191471652,-0.00959406013094695
1.0044727923873855,0.03362727707623793,0.15071499756066634,0.01768087969631584,0.13412658150402856,-0.008540297506662393
1.004519874412516,0.057935866130881315,0.16322794447833322,0.0238553638180855,0.14630653772225688,-0.004796389416368309
1.0045669564376463,0.08691312585069338,0.18904888919096505,0.038233159934289905,0.17212757043852708,0.00448177234294653
1.0046140384627766,0.11302745450084833,0.22234050839758077,0.05542672474865837,0.20687493781055336,0.01497753442704993
1.004661120487907,0.13143773576861661,0.2544877066340371,0.07126698378066398,0.2425236597221668,0.024146224969679303
1.0047082025130374,0.140315951549541,0.27953309738795146,0.0817840112464661,0.2718212789345184,0.029295829404744206
1.0047552845381678,0.14016084842095028,0.2921324836649783,0.0846685751900148,0.2901528729221651,0.028762718911260397
1.0048023665632981,0.13271042804166153,0.2906735818139474,0.08028160564993014,0.29447855165017056,0.023385755318953417
1.0048494485884285,0.1199532079956697,0.2775179151071348,0.06958311394397716,0.28783574701523346,0.013621084911099226
1.0048965306135589,0.10352759540252561,0.25381753944345914,0.05738407400153901,0.26880075063686526,0.00484399463040266
1.0049436126386893,0.08458770500586026,0.22296794359406663,0.04469505929439128,0.24112254840627093,-0.0025838292124155454
1.0049906946638196,0.06411017510052013,0.1916074148807873,0.03435472552873721,0.21156522772558636,-0.007151104730842408
1.00503777668895,0.043500849939608656,0.16190537943364114,0.022887706523455283,0.181876859980762,-0.01275336853584744
1.0050848587140804,0.02497562650004661,0.1329193654444389,0.013888116903115118,0.15119093702677092,-0.015649191960442305
1.0051319407392107,0.011013597455985432,0.11174798458275396,0.011624969459267675,0.1263238013471678,-0.013009312864421519
1.0051790227643411,0.003334338693202587,0.09341314605815254,0.009001101837417943,0.10496473823005292,-0.011432667121077177
1.0052261047894715,0.0027948227754708652,0.07289038106524509,0.005716764128480125,0.08192193924184415,-0.01019194399982541
1.0052731868146019,0.010164673003053454,0.05469966664338252,0.005314070387151807,0.05946172226217256,-0.006241219462589522
1.0053202688397322,0.026566180290056158,0.04267480397389127,0.008193549268036414,0.043032486623450085,-0.00024242254296456757
1.0053673508648626,0.05291846997433676,0.036397186383282126,0.011498759854167706,0.033292617370087284,0.0048790430732920595
1.005414432889993,0.08828034555015178,0.03583068614863527,0.017065936640710815,0.027957009942952193,0.01137186442145091
1.0054615149151234,0.12763762777320273,0.03984427130089649,0.025647230237824777,0.0274411058284052,0.019897685813131304
1.0055085969402537,0.16155770115500132,0.04981415860675943,0.038076850744054896,0.03485528250641328,0.030687298298161098
1.0055556789653841,0.18078890709766565,0.06160648755397113,0.05135766337998839,0.047017667692824595,0.04142433376900688
1.0056027609905145,0.18307418566708303,0.07086896705705538,0.06056084021799014,0.059539896936893905,0.04810726945060416
1.0056498430156449,0.1741533504439713,0.07649494861708415,0.06655908741414072,0.06740003267114716,0.05253363394030907
1.0056969250407752,0.16242605985016223,0.08009507467446367,0.07063087442771013,0.07321054071408052,0.05545585541434482
1.0057440070659056,0.15418810481596457,0.08286625690890861,0.07107575192890922,0.0780647925579438,0.05498255908610381
1.005791089091036,0.1523552110015489,0.08279152144032285,0.0660360559428213,0.0801420789938993,0.04961603711233323
1.0058381711161664,0.15691036178882456,0.08253633098628704,0.06130313889977103,0.08163075511858507,0.04466267036588836
1.0058852531412967,0.16538784679386007,0.08749709710518885,0.06307528196508604,0.08580599643993052,0.045624465126906696
1.005932335166427,0.17322460684996496,0.09119249958483466,0.06323184659303546,0.09013717520835242,0.04496217797343145
1.0059794171915575,0.17475929729964576,0.08991697375147409,0.05880087400333982,0.08984867195651117,0.040638391930687794
1.0060264992166879,0.16548577922015562,0.08441753551325218,0.05204155960234529,0.0846736608539267,0.034944141114555835
1.0060735812418182,0.1445721481217929,0.07540421038295775,0.04234591607178599,0.07567113168400157,0.027094140190577702
1.0061206632669486,0.11538472372115638,0.06804100767448827,0.03266210113426135,0.06621115616149682,0.019363145711661416
1.006167745292079,0.08342022676517998,0.06057386372549369,0.0259645785337829,0.05693430632661227,0.014551128615285614
1.0062148273172093,0.053714935068683495,0.05611361012875887,0.01794830890199036,0.05086586532105553,0.007834876641393068
1.0062619093423397,0.029620632829972474,0.05087594812019208,0.006428025048282717,0.045875310246111425,-0.002524679856946175
1.00630899136747,0.012907514843990737,0.04598336053858453,-0.004503164505502606,0.04325313651740624,-0.012755184712809162
1.0063560733926005,0.004292560353454192,0.04643561534389409,-0.010519166817943732,0.04641658471249703,-0.01927441304340236
1.0064031554177308,0.0038095921685766332,0.05348801487852562,-0.007972360122875525,0.05541274693660593,-0.018514550035600236
1.0064502374428612,0.010924293923755681,0.0737050324220011,0.0013341291502741227,0.07776469500663226,-0.013699014050493407
1.0064973194679916,0.02453035587728399,0.09801860950833678,0.011333716656649779,0.1043614747840685,-0.009013641530482184
1.006544401493122,0.042966387475684646,0.12126908764347202,0.020787738978896356,0.13059249063930495,-0.004773567892627129
1.0065914835182523,0.06411092062196938,0.1432144954527338,0.03329944681240632,0.15221996667016177,0.0034359425804901
1.0066385655433827,0.08556714248621351,0.16534725999741864,0.049462130528264495,0.17122894890513177,0.015871353552565297
1.006685647568513,0.10493697207975199,0.184699470376842,0.06485229624100503,0.18658027121283555,0.02834789026911779
1.0067327295936435,0.12014720761669652,0.19688173122452077,0.07640706666955516,0.19491610393322586,0.03838965074373464
1.0067798116187738,0.12974860817624662,0.2009292018290533,0.08294186479002422,0.19409955064451861,0.04512553505030795
1.0068268936439042,0.1331160769266914,0.19666218520871429,0.08436945777741765,0.18442847555790673,0.048363617363942034
1.0068739756690346,0.13051634907150206,0.1854133515072007,0.08386978816652868,0.1688585477982306,0.0507552353729934
1.006921057694165,0.12301693370584733,0.16655056557279746,0.08185258015702256,0.14866018994082658,0.052490251484980155
1.0069681397192953,0.11219272060745543,0.14273619107284702,0.07585112215539112,0.12487390925306896,0.05094541415515004
1.0070152217444257,0.09964098937742749,0.1172133471660278,0.06985230351433948,0.09870194818844548,0.04989776199248682
1.007062303769556,0.08648287672211809,0.09410071291964442,0.06302251331950957,0.07516832490338092,0.04757982082805603
1.0071093857946865,0.07315337862299943,0.07479391203189974,0.053521194673379444,0.05536225751500611,0.041967197754675334
1.0071564678198168,0.05967551136841471,0.060341898488290704,0.042771215350936226,0.04066363328296221,0.034191329245814826
1.0072035498449472,0.046352747241279996,0.047112183686080125,0.029687677967592516,0.02939353142230539,0.023491462533576767
1.0072506318700776,0.03458526276589038,0.03932091933886431,0.01916866027493343,0.02419540058269666,0.014159330585175635
1.007297713895208,0.02727830692374265,0.037919910743409696,0.01473006896934623,0.024782448716695438,0.009688648107192738
1.0073447959203383,0.0280866607277734,0.04584483951512987,0.01711698325886342,0.03286365150985111,0.010478933088607242
1.0073918779454687,0.03925806445151868,0.06716333394852034,0.028584290137595406,0.05228394129627354,0.01801948052112756
1.007438959970599,0.059562255279517966,0.09477396062844821,0.043832242766228824,0.07662856993982514,0.028376736320865955
1.0074860419957294,0.08449757331606145,0.12118803855804285,0.058037587268334905,0.10048101620958202,0.03787275371256136
1.0075331240208598,0.10858230355013457,0.14203105266388347,0.06858033205585247,0.12138509018765106,0.04437753635297411
1.0075802060459902,0.12742598805780986,0.15481807748038212,0.07621925524513734,0.1343392585509447,0.04954363059336627
1.0076272880711206,0.13840784538629322,0.15703985626339534,0.07904744927672683,0.13791196475500675,0.05169323832023656
1.007674370096251,0.14057521646913557,0.15098786952210785,0.0769603579802706,0.13560388674962237,0.05004523310615494
1.0077214521213813,0.1345761316442056,0.13855906634673396,0.07084930100861353,0.12637779176492345,0.04569368410342534
1.0077685341465117,0.12269802495893224,0.1198031054823293,0.062425783036096825,0.11049352229069115,0.04032492746886144
1.007815616171642,0.10844877640211482,0.09990487490698136,0.054884533548136764,0.09221026954272049,0.03632198133424896
