freq,gls,usurper,pdc_unbiased,shape_periodogram,shift_periodogram
1.0,0.02176245538732735,0.005303982313164851,-0.007335655112181927,0.008107654120530673,-0.007419301902211464
1.0000470820251304,0.05134779247241603,0.008261570853502357,0.016081221596065367,0.006210573841852618,0.016016503188376476
1.0000941640502607,0.09689124580742478,0.013443448811396032,0.05094334186944231,0.005823052993186207,0.050881534117210185
1.0001412460753911,0.14848755125694818,0.01835458168462393,0.08456655871201842,0.00929896069496365,0.08447061251696651
1.0001883281005215,0.19664060203551523,0.02340923706863758,0.10917973127593883,0.01757691386161931,0.10901216542296856
1.0002354101256519,0.23592916525893703,0.028221698962542015,0.12678225514793529,0.0249557069003704,0.1265626134970175
1.0002824921507822,0.26363730657080775,0.030925450015727163,0.13936052532630389,0.0293590552479082,0.13911735417851792
1.0003295741759126,0.2780607972143743,0.032607014164427364,0.14663287491158739,0.031128997758984887,0.14638317760198646
1.000376656201043,0.27778293516045677,0.03266179038410788,0.14742341655727248,0.03250944640046781,0.14716666558149505
1.0004237382261734,0.2619162710265795,0.030686242861487436,0.139633635428265,0.03293218673765935,0.13936994175616343
1.0004708202513037,0.23107843684954268,0.026877195939046316,0.12167319492364326,0.03184424671684274,0.12140557265832921
1.0005179022764341,0.1884924826566669,0.021889320085973975,0.09811663264576473,0.03064409138872163,0.09784476109860873
1.0005649843015645,0.1401213853463462,0.01880250799579565,0.07552593926328457,0.029040673105934972,0.07525587532319897
1.0006120663266949,0.09311329616242185,0.017011249763002452,0.056936636782797936,0.026942986259011825,0.056676975030992185
1.0006591483518252,0.05338098213176131,0.017333381755644993,0.04656239048066332,0.02324712771016888,0.04633289515855011
1.0007062303769556,0.024158292773911582,0.017614213980557274,0.0379052596807291,0.017960398401394663,0.037724071241741326
1.000753312402086,0.006389706849983347,0.01921946493119992,0.024925530867037873,0.012092506440327435,0.02480113881583977
1.0008003944272164,4.4957735270936574e-05,0.022015246926053625,0.013623927240606612,0.007302474102870133,0.013548102465531751
1.0008474764523467,0.004476680458159687,0.022839663453240486,0.005279248516488982,0.007584096994815145,0.005200729220687884
1.000894558477477,0.016631009383087918,0.025893421935598904,0.00604487589630294,0.011464519396671263,0.005926450262614452
1.0009416405026075,0.030279800796216314,0.03133330569766339,0.01614856324889533,0.017663813308322042,0.015967686856242586
1.0009887225277379,0.04019506929021177,0.03761150549310312,0.031662352407458065,0.025899765647624994,0.03140388305537105
1.0010358045528682,0.045271217739530065,0.04133905492892679,0.049643587368788454,0.03666308115831452,0.04929643985017928
1.0010828865779986,0.04665854735345898,0.04494538283261874,0.06394396252727896,0.045558587833912464,0.06353823358959806
1.001129968603129,0.04557434040645729,0.04792726323381313,0.06951556918541625,0.05245418432199429,0.06906822721313022
1.0011770506282593,0.04281463251624272,0.048793145939371785,0.06676401531502141,0.05530445733976224,0.06629363165844783
1.0012241326533897,0.03911406922799136,0.04497239291804399,0.05756222886158259,0.054265663998930604,0.05708486544078214
1.00127121467852,0.035734840091298535,0.037895659105971494,0.04469056838221148,0.05169584213409526,0.044214437413906085
1.0013182967036505,0.034632288517627896,0.032565617541361516,0.03354469161607427,0.04888294519604229,0.033077982837295454
1.0013653787287808,0.03686446430802818,0.029621531379719842,0.03235087082016887,0.04653617992127452,0.03190341379952974
1.0014124607539112,0.040499198873267514,0.029911307638804337,0.04235422606047071,0.04568528051492571,0.041924712720158436
1.0014595427790416,0.04245011553894062,0.032288299214845884,0.05148956578485458,0.046153730823848625,0.05106592736821761
1.001506624804172,0.04142424671447975,0.032833949304488234,0.057489670337512934,0.04378696363280773,0.057090824678962766
1.0015537068293023,0.03772147907862947,0.033338549430559375,0.05838903434484734,0.038355766181122596,0.05803404903516102
1.0016007888544327,0.032149333674356434,0.03176997529603611,0.05286952532393206,0.03062850339664965,0.05257604626564658
1.001647870879563,0.025799799790141527,0.02842081069475873,0.040386054375886556,0.020479306841126015,0.0401811522915943
1.0016949529046935,0.020580986012262138,0.022541005391673582,0.02276083148008517,0.010511330579499656,0.022652304745293166
1.0017420349298238,0.01993155776046648,0.020415594754150727,0.008396000375120035,0.004172447650534371,0.008352502245363984
1.0017891169549542,0.027489951613850306,0.02169537562382858,0.00883020356959996,0.005992865092389974,0.008767953602421823
1.0018361989800846,0.042074300128446054,0.023624209858811453,0.022145335055818467,0.01134191338155842,0.022028423328290237
1.001883281005215,0.05845891480384451,0.029035948671630903,0.04104344236602053,0.020249331490779683,0.04084084006615528
1.0019303630303453,0.07582159493280267,0.031825177247987016,0.05832937685591873,0.030133150380702717,0.0580426602973006
1.0019774450554757,0.09824195100672209,0.0315617055912835,0.07041397317164165,0.04172807950215311,0.07004281625778136
1.002024527080606,0.1303669711588208,0.02733755084993318,0.07896421651578898,0.04716799138543261,0.07856392057868646
1.0020716091057364,0.17464242099810953,0.023364101522043313,0.08832693698111686,0.05078610735134293,0.08791599468084657
1.0021186911308668,0.22917237164395338,0.024139636323965017,0.11355266104308831,0.052894017513180853,0.11316683832048205
1.0021657731559972,0.2864808872447173,0.028284075221968435,0.14880372324738836,0.05465363922755852,0.14846665430786693
1.0022128551811276,0.335488571803669,0.03203470928594072,0.17945522269565434,0.05629915282592696,0.17916689257412907
1.002259937206258,0.3667004160945303,0.03401025326195439,0.20044309409803335,0.056991275231663266,0.20019115676596663
1.0023070192313883,0.37630521047742305,0.03427717646777729,0.20989430295355302,0.05610382821429405,0.2096572249522264
1.0023541012565187,0.3658732131217113,0.03328993955283569,0.20800353236518512,0.05378325625225744,0.20776033714254846
1.002401183281649,0.3393357840705059,0.03313370139089579,0.19716291122807472,0.050068656667275294,0.19690247984962045
1.0024482653067794,0.30043566038503033,0.03179359136410244,0.1783931936762516,0.0426349666153906,0.17812093541180066
1.0024953473319098,0.25183659939415354,0.02674101391692478,0.15384153094853617,0.03080646696890777,0.15359748529400902
1.0025424293570402,0.1956066522565673,0.017925777701203998,0.12081929242955049,0.01622801595291447,0.12066451006038063
1.0025895113821706,0.13475970805500284,0.010970935748382751,0.07564140824241966,0.00058944749744494,0.07563136334030887
1.002636593407301,0.07582916802294695,0.00665028937171203,0.025728531183742454,-0.010449486175113149,0.025836466770792106
1.0026836754324313,0.03145358980808763,0.005054580651049302,-0.0040036080406334615,-0.008971636150021776,-0.003910821896564907
1.0027307574575617,0.01779891286180085,0.007487902743537191,-0.006351274616742859,0.004245260660298425,-0.006394869796839546
1.002777839482692,0.04358985242398123,0.007656981296036433,0.006591376950054447,0.023370534388227143,0.006351214162468193
1.0028249215078224,0.1037077589167159,0.016207735434587305,0.04281328660270074,0.038799221493945775,0.04244296325300734
1.0028720035329528,0.18101238562213362,0.03146384697237131,0.0979436666785688,0.0430192066500488,0.09758967205582116
1.0029190855580832,0.25636899888384335,0.044908477803252,0.15380629462607742,0.04521379034334667,0.15350065960175727
1.0029661675832136,0.31832235074100634,0.050150525800229745,0.19704252226634572,0.047020234555400775,0.19678359917120986
1.003013249608344,0.36361141655314383,0.05358216981222127,0.228525784613192,0.045979532971779764,0.22830452275923097
1.0030603316334743,0.39341420767750745,0.05471256707845997,0.24979870354304085,0.04185518780836449,0.24959847753850614
1.0031074136586047,0.4102870696014962,0.053988203516983704,0.26258314989231946,0.03848086442802614,0.2623936868437028
1.003154495683735,0.41662904201390033,0.052353489334741085,0.266777273312063,0.035002033132569485,0.2665918860024471
1.0032015777088654,0.41405085665469693,0.04959617387774014,0.26326150551395927,0.031077052840309725,0.2630782510619802
1.0032486597339958,0.4030953535584088,0.04574797713780093,0.251751202986526,0.02632151844480187,0.25157361710264947
1.0032957417591262,0.38301151602067063,0.04072670153921065,0.2324239377319079,0.021030028936577745,0.23226077660763164
1.0033428237842565,0.3514583105172215,0.03449942999532737,0.2047530276495091,0.014985990942591664,0.20461929786759592
1.003389905809387,0.3042863356687068,0.026763431104562863,0.16911475512504195,0.008570328597176038,0.16902719662724824
1.0034369878345173,0.2364892670841809,0.018357146448507153,0.12615890065588273,0.0020457352016247875,0.12613188607345677
1.0034840698596477,0.14805992805189566,0.010296810712164728,0.07745804013496241,-0.0037961094609022497,0.07749336652013944
1.003531151884778,0.05937981673678241,0.005972792446286713,0.035632586371168055,-0.0077897154692789065,0.03571212922223175
1.0035782339099084,0.016571701488668728,0.008193933975377352,0.012038086514572617,-0.008993247896048894,0.012130868916604202
1.0036253159350388,0.04141534161646615,0.017403609788337552,0.014399178728297872,-0.0057284458656689475,0.014457838246238728
1.0036723979601692,0.0978579156313711,0.030461804494787095,0.03595348541122598,0.004765940138379684,0.035902808568242434
1.0037194799852995,0.14599333246590304,0.04540655581378498,0.06503465797160808,0.01490040372345923,0.06488533303985204
1.00376656201043,0.17300879075255565,0.05471956458545573,0.0922030709843016,0.02444289633450881,0.09197599629588338
1.0038136440355603,0.18229222765708752,0.06135196383961647,0.11374971918924169,0.03053661944326245,0.11348642368682488
1.0038607260606907,0.18262972424027749,0.0642262703224905,0.12736778710133306,0.03431035851122223,0.12708864720299012
1.003907808085821,0.18292620727983336,0.06557715909157312,0.13485525602086357,0.03791347263158205,0.13456191206342427
1.0039548901109514,0.18798821740501145,0.06615413777114885,0.13913083302593265,0.04166114210587386,0.13882354161595759
1.0040019721360818,0.19658928748535154,0.06181007670490369,0.1397247738744464,0.04400438196578973,0.13940825145669913
1.0040490541612122,0.20361099360789395,0.05484014926446444,0.1356935801867525,0.045221772361883586,0.13536780472578028
1.0040961361863425,0.20356945018764083,0.046789576171211024,0.1287855413388881,0.04397718904806413,0.12845767490960072
1.004143218211473,0.19261735903368254,0.039007456125762355,0.11776025800915435,0.0428365179883944,0.11742673722091011
1.0041903002366033,0.1692114287165738,0.0299091995194364,0.09836742477706704,0.03877396578945622,0.0980402455172867
1.0042373822617336,0.13469585530973552,0.0203351410255573,0.07519967777083232,0.03152489064196158,0.07490961025741086
1.004284464286864,0.094068350002802,0.010590044613178435,0.051842634052145065,0.023046902968141086,0.05161628549436105
1.0043315463119944,0.0558705414627791,0.002437810184802361,0.03082107495389939,0.012974978574587884,0.030688090283375755
1.0043786283371248,0.029785725493520713,-0.001962921313008768,0.019809015244991575,0.002588155696816855,0.0197812879590855
1.0044257103622551,0.022326134922130727,-0.0028506677264294963,0.01684685304795892,-0.005488319081173204,0.016902911522527136
1.0044727923873855,0.03362727707623793,-0.001326620655826521,0.01768087969631584,-0.009410460798491041,0.01777794417991291
1.004519874412516,0.057935866130881315,0.002312259207869226,0.0238553638180855,-0.009371255019952987,0.023951920722358164
1.0045669564376463,0.08691312585069338,0.007313269328430688,0.038233159934289905,-0.004711872237034487,0.03828014043578146
1.0046140384627766,0.11302745450084833,0.012535195291971845,0.05542672474865837,0.004479568116012793,0.05537823860161388
1.004661120487907,0.13143773576861661,0.01784426124858665,0.07126698378066398,0.015689410185217263,0.07111096810285075
1.0047082025130374,0.140315951549541,0.02236476846615294,0.0817840112464661,0.026484763000767412,0.08153706644139357
1.0047552845381678,0.14016084842095028,0.02319024705792697,0.0846685751900148,0.03550617493469146,0.08435382147260533
1.0048023665632981,0.13271042804166153,0.022310175285014847,0.08028160564993014,0.04247257837445905,0.07991420935008717
1.0048494485884285,0.1199532079956697,0.019399051999803657,0.06958311394397716,0.047650287101680656,0.0691686381789216
1.0048965306135589,0.10352759540252561,0.018132565957443773,0.05738407400153901,0.05064794036914757,0.056932908899863646
1.0049436126386893,0.08458770500586026,0.01494957547283725,0.04469505929439128,0.04972472815857078,0.044234851009629615
1.0049906946638196,0.06411017510052013,0.012617585234942308,0.03435472552873721,0.04525407978881195,0.03392066924415618
1.00503777668895,0.043500849939608656,0.007685873810906194,0.022887706523455283,0.040488322901448735,0.02248674497337473
1.0050848587140804,0.02497562650004661,0.003352840383010117,0.013888116903115118,0.03441557987892542,0.013539771484865163
1.0051319407392107,0.011013597455985432,-6.649650287402706e-05,0.011624969459267675,0.025752214171384964,0.011361991106717888
1.0051790227643411,0.003334338693202587,-0.0014903732773269038,0.009001101837417943,0.015275943072656758,0.008843777864362789
1.0052261047894715,0.0027948227754708652,-0.0065687884585733615,0.005716764128480125,0.00440140550356162,0.005671022469106151
1.0052731868146019,0.010164673003053454,-0.00980447000991714,0.005314070387151807,-0.0040020432551805644,0.005355193214238772
1.0053202688397322,0.026566180290056158,-0.010924481896706351,0.008193549268036414,-0.00913768590031146,0.008287896135855878
1.0053673508648626,0.05291846997433676,-0.010147079428067269,0.011498759854167706,-0.011153654357714883,0.011614130374895046
1.005414432889993,0.08828034555015178,-0.00874778925678527,0.017065936640710815,-0.00966927628852907,0.0171657263228671
1.0054615149151234,0.12763762777320273,-0.006447556481681754,0.025647230237824777,-0.005300241051453411,0.02570095159348419
1.0055085969402537,0.16155770115500132,-0.004712191265527407,0.038076850744054896,0.002143228581762958,0.03805280240636734
1.0055556789653841,0.18078890709766565,-0.002479968336112506,0.05135766337998839,0.01093679369529295,0.05124538598797353
1.0056027609905145,0.18307418566708303,-0.0021002792516421885,0.06056084021799014,0.02034035998906486,0.06036097055357403
1.0056498430156449,0.1741533504439713,-0.0007979528501773294,0.06655908741414072,0.028993732927988146,0.0662855898154609
1.0056969250407752,0.16242605985016223,-0.0005707408599842611,0.07063087442771013,0.036503403546544425,0.07029924267290642
1.0057440070659056,0.15418810481596457,-0.00148733820238532,0.07107575192890922,0.04062487505984213,0.070713314428483
1.005791089091036,0.1523552110015489,-0.0033010685069845037,0.0660360559428213,0.04184853322595214,0.065660072983092
1.0058381711161664,0.15691036178882456,-0.0030780029582534512,0.06130313889977103,0.04071603302062065,0.060931724414428366
1.0058852531412967,0.16538784679386007,-0.001131456922478042,0.06307528196508604,0.037937499103500305,0.06272710165948378
1.005932335166427,0.17322460684996496,0.0004353484294331249,0.06323184659303546,0.03235183564003604,0.06292889309729173
1.0059794171915575,0.17475929729964576,-0.0003294106126349771,0.05880087400333982,0.025001733418782274,0.05855889844551088
1.0060264992166879,0.16548577922015562,-0.0019741180281485356,0.05204155960234529,0.01858191525908372,0.05185642851761224
1.0060735812418182,0.1445721481217929,-0.004484999340454457,0.04234591607178599,0.013318788455466486,0.04221009974626162
1.0061206632669486,0.11538472372115638,-0.0072850028019293255,0.03266210113426135,0.009196605236545356,0.032566828456141464
1.006167745292079,0.08342022676517998,-0.007937503330890413,0.0259645785337829,0.005701281478533546,0.0259047435463673
1.0062148273172093,0.053714935068683495,-0.006155291611960758,0.01794830890199036,0.004379923781814491,0.01790227251873028
1.0062619093423397,0.029620632829972474,-0.0033949166955036508,0.006428025048282717,0.004896840168144747,0.006377146956368804
1.00630899136747,0.012907514843990737,-0.0011030839145387994,-0.004503164505502606,0.006040285095161164,-0.004565438386376038
1.0063560733926005,0.004292560353454192,0.001705498537071566,-0.010519166817943732,0.007215192178169895,-0.010593445251259208
1.0064031554177308,0.0038095921685766332,0.004850471339940042,-0.007972360122875525,0.0075169680195811064,-0.008049850445416418
1.0064502374428612,0.010924293923755681,0.009293093479919912,0.0013341291502741227,0.009204207944279324,0.001238974863807304
1.0064973194679916,0.02453035587728399,0.012806809026865,0.011333716656649779,0.012081796405428271,0.01120907429438678
1.006544401493122,0.042966387475684646,0.015383462253995757,0.020787738978896356,0.015047032440589867,0.020633536192579766
1.0065914835182523,0.06411092062196938,0.01689354590419617,0.03329944681240632,0.0171243283466527,0.03312581566474444
1.0066385655433827,0.08556714248621351,0.020488269717789623,0.049462130528264495,0.01942690560862476,0.04926870488484706
1.006685647568513,0.10493697207975199,0.022150040228970554,0.06485229624100503,0.020834938937816152,0.06464882147223174
1.0067327295936435,0.12014720761669652,0.022488236150278083,0.07640706666955516,0.02133148758526335,0.0762016849392925
1.0067798116187738,0.12974860817624662,0.020313843649515294,0.08294186479002422,0.020911630450827216,0.08274150963740756
1.0068268936439042,0.1331160769266914,0.01881439160833033,0.08436945777741765,0.018539044775607135,0.08418976537923091
1.0068739756690346,0.13051634907150206,0.016355752084548508,0.08386978816652868,0.016667362904659307,0.08370642054283259
1.006921057694165,0.12301693370584733,0.012645026318572264,0.08185258015702256,0.011629205859696961,0.08173473036437634
1.0069681397192953,0.11219272060745543,0.007677074480925526,0.07585112215539112,0.005683910554067522,0.07579006711520056
1.0070152217444257,0.09964098937742749,0.0023151727075363558,0.06985230351433948,0.0006973975720823841,0.06984145148014444
1.007062303769556,0.08648287672211809,-0.0022505314110965466,0.06302251331950957,-0.0027234526498254633,0.06304737529108931
1.0071093857946865,0.07315337862299943,-0.005586738447776405,0.053521194673379444,-0.004479430108426739,0.05356498062056596
1.0071564678198168,0.05967551136841471,-0.00852049756044497,0.042771215350936226,-0.005364939174048844,0.042824850255086575
1.0072035498449472,0.046352747241279996,-0.009826979662783966,0.029687677967592516,-0.004878123654853535,0.02973680106673916
1.0072506318700776,0.03458526276589038,-0.010404637125978049,0.01916866027493343,-0.004030583124749579,0.01920943021456713
1.007297713895208,0.02727830692374265,-0.009784918317749313,0.01473006896934623,-0.003453059374624466,0.014765049852263446
1.0073447959203383,0.0280866607277734,-0.008518803709824165,0.01711698325886342,-0.001996509514111734,0.017136730367947956
1.0073918779454687,0.03925806445151868,-0.004589812497004147,0.028584290137595406,0.001280900852204409,0.028569564534799675
1.007438959970599,0.059562255279517966,0.001728253132087483,0.043832242766228824,0.004568661683336055,0.04378327550950317
1.0074860419957294,0.08449757331606145,0.007130517077550269,0.058037587268334905,0.00902764959609452,0.057944010139071835
1.0075331240208598,0.10858230355013457,0.011026575586590447,0.06858033205585247,0.012551957957359566,0.0684532271357955
1.0075802060459902,0.12742598805780986,0.01318536424498161,0.07621925524513734,0.01533858150050613,0.07606693953406823
1.0076272880711206,0.13840784538629322,0.014276421257408668,0.07904744927672683,0.017564906982793456,0.07887548792048292
1.007674370096251,0.14057521646913557,0.013612941060145222,0.0769603579802706,0.018733227669891054,0.07677774940816932
1.0077214521213813,0.1345761316442056,0.010521861853707667,0.07084930100861353,0.017977766144594017,0.07067247322354013
