freq,gls,usurper,pdc_unbiased,shape_periodogram,shift_periodogram
1.0,0.02176245538732735,0.019722535346843935,-0.007335655112181927,-0.011758358409122168,-0.007177197714196885
1.0000470820251304,0.05134779247241603,0.02703700097634375,0.016081221596065367,-0.0017992649039957887,0.016104004478619826
1.0000941640502607,0.09689124580742478,0.031127729691162502,0.05094334186944231,0.010383230221670942,0.05080222261287294
1.0001412460753911,0.14848755125694818,0.0356168760871371,0.08456655871201842,0.016635009745910784,0.08434897426246066
1.0001883281005215,0.19664060203551523,0.03836884767372301,0.10917973127593883,0.0213863753222232,0.10891176534634289
1.0002354101256519,0.23592916525893703,0.03658219620462556,0.12678225514793529,0.023816000135743233,0.1264933020476097
1.0002824921507822,0.26363730657080775,0.03154188674907339,0.13936052532630389,0.02408487016625305,0.13907282901342305
1.0003295741759126,0.2780607972143743,0.028241902907127654,0.14663287491158739,0.023522952532774394,0.1463529499597554
1.000376656201043,0.27778293516045677,0.02687538448660948,0.14742341655727248,0.022617369478787085,0.14715253021121646
1.0004237382261734,0.2619162710265795,0.024826907298335626,0.139633635428265,0.021327841904933628,0.13937351871670917
1.0004708202513037,0.23107843684954268,0.021572264574004074,0.12167319492364326,0.019732592843542496,0.12142583155628937
1.0005179022764341,0.1884924826566669,0.01778596151649254,0.09811663264576473,0.017216167919080223,0.09789374731206162
1.0005649843015645,0.1401213853463462,0.015129555623935493,0.07552593926328457,0.014912375031647402,0.07532840929370752
1.0006120663266949,0.09311329616242185,0.013645249782302332,0.056936636782797936,0.013042612986192316,0.05676156528788253
1.0006591483518252,0.05338098213176131,0.01384466143491481,0.04656239048066332,0.01211423291755255,0.04639901298062923
1.0007062303769556,0.024158292773911582,0.013641187279734368,0.0379052596807291,0.011549426786150136,0.03774918859906646
1.000753312402086,0.006389706849983347,0.010407887108054816,0.024925530867037873,0.010493387628753539,0.024783496716199765
1.0008003944272164,4.4957735270936574e-05,0.010134938281416475,0.013623927240606612,0.007595387861497956,0.013520855218538621
1.0008474764523467,0.004476680458159687,0.009153353415840736,0.005279248516488982,0.0061642886488553405,0.005195883186464001
1.000894558477477,0.016631009383087918,0.010173629063794288,0.00604487589630294,0.005946647650631376,0.005964378912015703
1.0009416405026075,0.030279800796216314,0.016226360803416724,0.01614856324889533,0.006206837923797472,0.016063880112810746
1.0009887225277379,0.04019506929021177,0.0236496046568657,0.031662352407458065,0.009691080313881191,0.03153069050762131
1.0010358045528682,0.045271217739530065,0.03196235688759443,0.049643587368788454,0.012722082192999829,0.049472448016672645
1.0010828865779986,0.04665854735345898,0.032788505490746814,0.06394396252727896,0.015368134619445918,0.06374005214105527
1.001129968603129,0.04557434040645729,0.032535798032697995,0.06951556918541625,0.01766933604633142,0.06928389994853135
1.0011770506282593,0.04281463251624272,0.03090219428712675,0.06676401531502141,0.018857591488750734,0.06651757895521551
1.0012241326533897,0.03911406922799136,0.027683512084367784,0.05756222886158259,0.018464489974003472,0.05731941317318326
1.00127121467852,0.035734840091298535,0.022358559570538748,0.04469056838221148,0.01625575248372114,0.04447419404286621
1.0013182967036505,0.034632288517627896,0.02005249034377911,0.03354469161607427,0.015484599358807452,0.03333752980552532
1.0013653787287808,0.03686446430802818,0.024923014169581474,0.03235087082016887,0.016917833902907617,0.03212512715348216
1.0014124607539112,0.040499198873267514,0.031190107653048596,0.04235422606047071,0.019633622382773448,0.04209487566255874
1.0014595427790416,0.04245011553894062,0.03498491943382466,0.05148956578485458,0.02027844213894722,0.05122349012063536
1.001506624804172,0.04142424671447975,0.034812326261555865,0.057489670337512934,0.01984079404290358,0.05722990880651774
1.0015537068293023,0.03772147907862947,0.030635284987419544,0.05838903434484734,0.018976520665114033,0.058140015611344374
1.0016007888544327,0.032149333674356434,0.027028982062951342,0.05286952532393206,0.016141937242537468,0.05265517845053048
1.001647870879563,0.025799799790141527,0.024506047975384648,0.040386054375886556,0.012886950636232294,0.040212661128927144
1.0016949529046935,0.020580986012262138,0.020415168012275126,0.02276083148008517,0.009323386928259805,0.02263433045193845
1.0017420349298238,0.01993155776046648,0.01700318694801763,0.008396000375120035,0.006423840672332209,0.00830893664880707
1.0017891169549542,0.027489951613850306,0.015322709557620025,0.00883020356959996,0.005243975738679144,0.008758933007649813
1.0018361989800846,0.042074300128446054,0.01276578955353366,0.022145335055818467,0.007877669829263757,0.022038034101260217
1.001883281005215,0.05845891480384451,0.010072774305714701,0.04104344236602053,0.011747464974550727,0.04088478866865283
1.0019303630303453,0.07582159493280267,0.013191689985328228,0.05832937685591873,0.015368092584444267,0.05812510214181362
1.0019774450554757,0.09824195100672209,0.019936162547571887,0.07041397317164165,0.014547525745506202,0.07022061650661832
1.002024527080606,0.1303669711588208,0.021921466168361242,0.07896421651578898,0.013988751398040214,0.07877819060432632
1.0020716091057364,0.17464242099810953,0.0195914334792308,0.08832693698111686,0.013540865942657172,0.08814683868901804
1.0021186911308668,0.22917237164395338,0.021235851099404478,0.11355266104308831,0.014870153910932504,0.11335853249373776
1.0021657731559972,0.2864808872447173,0.024589251237374595,0.14880372324738836,0.017287602820632835,0.14858718452617242
1.0022128551811276,0.335488571803669,0.027437699917487963,0.17945522269565434,0.01830820909061484,0.1792338708258923
1.002259937206258,0.3667004160945303,0.02971127314324115,0.20044309409803335,0.01881738177020598,0.20022144570684136
1.0023070192313883,0.37630521047742305,0.030851943941259924,0.20989430295355302,0.018533231819050987,0.20967732304870448
1.0023541012565187,0.3658732131217113,0.030466665492854483,0.20800353236518512,0.017548227074701602,0.2077950092788755
1.002401183281649,0.3393357840705059,0.029195271270672226,0.19716291122807472,0.01566193002591375,0.19697026532905537
1.0024482653067794,0.30043566038503033,0.0262215174272899,0.1783931936762516,0.012265635390056753,0.17823320324662892
1.0024953473319098,0.25183659939415354,0.020489365577073676,0.15384153094853617,0.007217539482215215,0.1537380857859008
1.0025424293570402,0.1956066522565673,0.01495745851918158,0.12081929242955049,0.0032529736918004482,0.12076629275191252
1.0025895113821706,0.13475970805500284,0.010578977239999222,0.07564140824241966,-0.0012169511405569877,0.07565089112774502
1.002636593407301,0.07582916802294695,0.005568467751631524,0.025728531183742454,-0.004244817440030367,0.02578352370378252
1.0026836754324313,0.03145358980808763,0.011453276050347369,-0.0040036080406334615,-0.005194646325089246,-0.00393336507271242
1.0027307574575617,0.01779891286180085,0.021528471101754685,-0.006351274616742859,-0.0015889679391506975,-0.006329316242299971
1.002777839482692,0.04358985242398123,0.019687233473745694,0.006591376950054447,0.0060746825462478105,0.006509122299131529
1.0028249215078224,0.1037077589167159,0.014953824598043206,0.04281328660270074,0.01446291699144187,0.04261968345592837
1.0028720035329528,0.18101238562213362,0.01465036039259096,0.0979436666785688,0.028177834205076597,0.09759932989545311
1.0029190855580832,0.25636899888384335,0.021687374297426218,0.15380629462607742,0.03729206533328018,0.15341248125252496
1.0029661675832136,0.31832235074100634,0.0339963048441311,0.19704252226634572,0.032763997515461274,0.19671116837927227
1.003013249608344,0.36361141655314383,0.03759701475195707,0.228525784613192,0.029206075628653193,0.22823559456230044
1.0030603316334743,0.39341420767750745,0.040316025066351846,0.24979870354304085,0.02832635898822433,0.24952509758180164
1.0031074136586047,0.4102870696014962,0.04135206858052742,0.26258314989231946,0.026700920547515498,0.2623250963506104
1.003154495683735,0.41662904201390033,0.04111521947366667,0.266777273312063,0.024969637896962778,0.2665310500138941
1.0032015777088654,0.41405085665469693,0.04029574657035871,0.26326150551395927,0.02287649554471805,0.263026809514835
1.0032486597339958,0.4030953535584088,0.03859936830447912,0.251751202986526,0.01986645580099416,0.2515338673431149
1.0032957417591262,0.38301151602067063,0.03625715549189391,0.2324239377319079,0.01635015597934651,0.2322308357060562
1.0033428237842565,0.3514583105172215,0.033226816216687056,0.2047530276495091,0.012298271410026956,0.2045947967854436
1.003389905809387,0.3042863356687068,0.029094109166651016,0.16911475512504195,0.008100938722291454,0.169000833407474
1.0034369878345173,0.2364892670841809,0.024442513994863573,0.12615890065588273,0.004010127535122077,0.126095941952683
1.0034840698596477,0.14805992805189566,0.01974849048969857,0.07745804013496241,0.00031473844410456655,0.07744686693432334
1.003531151884778,0.05937981673678241,0.016661148860693715,0.035632586371168055,-0.0011042572111755646,0.03564422100665311
1.0035782339099084,0.016571701488668728,0.016837427536440897,0.012038086514572617,0.0016484958381229491,0.012014823328718614
1.0036253159350388,0.04141534161646615,0.020826883455010253,0.014399178728297872,0.008570749460426923,0.014283047220878732
1.0036723979601692,0.0978579156313711,0.02377363185850965,0.03595348541122598,0.015246849508510706,0.03574951059788908
1.0037194799852995,0.14599333246590304,0.025124904819050924,0.06503465797160808,0.022960469176806577,0.06473861981064108
1.00376656201043,0.17300879075255565,0.026722864921531222,0.0922030709843016,0.030048709289762977,0.09183648909594397
1.0038136440355603,0.18229222765708752,0.028562312621366766,0.11374971918924169,0.036159744829543206,0.11333527386817187
1.0038607260606907,0.18262972424027749,0.03141926172459077,0.12736778710133306,0.04063766381581815,0.12692569287493208
1.003907808085821,0.18292620727983336,0.032229724952800964,0.13485525602086357,0.04301878650542629,0.1344019350654321
1.0039548901109514,0.18798821740501145,0.03342462940020069,0.13913083302593265,0.04020531763726623,0.13870276224370937
1.0040019721360818,0.19658928748535154,0.03539128593840536,0.1397247738744464,0.036678156863491726,0.139324832309941
1.0040490541612122,0.20361099360789395,0.03592682486819821,0.1356935801867525,0.031687447808515935,0.13533331212950356
1.0040961361863425,0.20356945018764083,0.035612118463848444,0.1287855413388881,0.0256884182261945,0.12847846638764346
1.004143218211473,0.19261735903368254,0.03383191144458343,0.11776025800915435,0.018696649285109734,0.1175234880232178
1.0041903002366033,0.1692114287165738,0.03027686432756735,0.09836742477706704,0.012856332518842167,0.09819605155518099
1.0042373822617336,0.13469585530973552,0.025999601167683104,0.07519967777083232,0.00750284320024105,0.07509484732262373
1.004284464286864,0.094068350002802,0.021726809232136192,0.051842634052145065,0.0029714205319628807,0.0517983334769808
1.0043315463119944,0.0558705414627791,0.018102891739075463,0.03082107495389939,-7.583121322863643e-05,0.030819303877713585
1.0043786283371248,0.029785725493520713,0.016072265387327672,0.019809015244991575,-0.0009982730446733245,0.019820662266795675
1.0044257103622551,0.022326134922130727,0.014881024994733129,0.01684685304795892,-0.001625536450990116,0.016867224014831907
1.0044727923873855,0.03362727707623793,0.014872954350269873,0.01768087969631584,-0.0008322066036209337,0.01769048256310924
1.004519874412516,0.057935866130881315,0.01643482634550362,0.0238553638180855,0.0011451737825436366,0.023837814513723635
1.0045669564376463,0.08691312585069338,0.019161708351246743,0.038233159934289905,0.004682974882878258,0.03816720953305323
1.0046140384627766,0.11302745450084833,0.021990402897290793,0.05542672474865837,0.010560364197340714,0.05528327027719507
1.004661120487907,0.13143773576861661,0.022378992861304525,0.07126698378066398,0.017744871915029208,0.07103460035370146
1.0047082025130374,0.140315951549541,0.022786921789462497,0.0817840112464661,0.024719676829821024,0.08147190122712993
1.0047552845381678,0.14016084842095028,0.022452916446658696,0.0846685751900148,0.03129617107793867,0.08428511361678788
1.0048023665632981,0.13271042804166153,0.020657683639816952,0.08028160564993014,0.03459331815009729,0.07986061427446561
1.0048494485884285,0.1199532079956697,0.01829136141149388,0.06958311394397716,0.03665056594861846,0.06913319580247324
1.0048965306135589,0.10352759540252561,0.012288699305379102,0.05738407400153901,0.0361404031340624,0.056931789425686774
1.0049436126386893,0.08458770500586026,0.006974346865342333,0.04469505929439128,0.03416480716157332,0.04425821039527536
1.0049906946638196,0.06411017510052013,0.0028804101929199985,0.03435472552873721,0.032673886598539446,0.033930595701462105
1.00503777668895,0.043500849939608656,0.0006052080200427081,0.022887706523455283,0.028751974393727227,0.02250814884709764
1.0050848587140804,0.02497562650004661,-0.0010803675224783484,0.013888116903115118,0.023101130722021183,0.013579562167941846
1.0051319407392107,0.011013597455985432,-0.0019527341047754828,0.011624969459267675,0.018534464196990556,0.011376392399325579
1.0051790227643411,0.003334338693202587,-0.00307003826712252,0.009001101837417943,0.013763775761727187,0.008815843280959513
1.0052261047894715,0.0027948227754708652,-0.00415808322358432,0.005716764128480125,0.009389020943601745,0.005590095315965418
1.0052731868146019,0.010164673003053454,-0.005608963259621207,0.005314070387151807,0.0026844432988180084,0.005277469015274209
1.0053202688397322,0.026566180290056158,-0.007260733596307267,0.008193549268036414,-0.0028809381570305175,0.008231622681956366
1.0053673508648626,0.05291846997433676,-0.007787305946319147,0.011498759854167706,-0.0061251457602218545,0.011580380660480515
1.005414432889993,0.08828034555015178,-0.0031417368636477857,0.017065936640710815,-0.009167399261435729,0.017188477721034125
1.0054615149151234,0.12763762777320273,0.0007187436998573319,0.025647230237824777,-0.011976403129993476,0.02580783382988279
1.0055085969402537,0.16155770115500132,0.004943087912434307,0.038076850744054896,-0.012947678731622624,0.038250538858025526
1.0055556789653841,0.18078890709766565,0.0071440402111946555,0.05135766337998839,-0.01037222716055971,0.05149487035469222
1.0056027609905145,0.18307418566708303,0.00690455446481723,0.06056084021799014,-0.004973236017270138,0.06062270443887091
1.0056498430156449,0.1741533504439713,0.005618172140969135,0.06655908741414072,-0.00024990942074291944,0.06655642621721615
1.0056969250407752,0.16242605985016223,0.0046641315403604675,0.07063087442771013,0.004200860574673765,0.07056899138483184
1.0057440070659056,0.15418810481596457,0.003656817581819596,0.07107575192890922,0.008188585286571626,0.07096230116531792
1.005791089091036,0.1523552110015489,0.0028690464675259885,0.0660360559428213,0.01119094065104139,0.06588452493418606
1.0058381711161664,0.15691036178882456,0.0017729296845659663,0.06130313889977103,0.014706014656670673,0.06110731345264983
1.0058852531412967,0.16538784679386007,0.0016410926095100512,0.06307528196508604,0.01803983762604528,0.06283834780088716
1.005932335166427,0.17322460684996496,7.828614087666395e-06,0.06323184659303546,0.020721517452099138,0.06296229688121466
1.0059794171915575,0.17475929729964576,-0.0007419649440826116,0.05880087400333982,0.022706111270593486,0.05850648186541611
1.0060264992166879,0.16548577922015562,-0.001105051034119105,0.05204155960234529,0.022734210259958934,0.051745361332738805
1.0060735812418182,0.1445721481217929,-0.001527722454544752,0.04234591607178599,0.019804050434652293,0.04208441698746947
1.0061206632669486,0.11538472372115638,-0.0021640041740541936,0.03266210113426135,0.014569544508916047,0.03246675057166028
1.006167745292079,0.08342022676517998,-0.0038911790098824805,0.0259645785337829,0.009032311331955867,0.025841801934141526
1.0062148273172093,0.053714935068683495,-0.005930513285392018,0.01794830890199036,0.0038840203522399774,0.0178945528509987
1.0062619093423397,0.029620632829972474,-0.007082938003335833,0.006428025048282717,-0.0005583533438895747,0.0064349600854795965
1.00630899136747,0.012907514843990737,-0.007326171273430309,-0.004503164505502606,-0.003761838608034002,-0.004452144274917599
1.0063560733926005,0.004292560353454192,-0.00623988247903627,-0.010519166817943732,-0.0047436597664025,-0.010454478453064974
1.0064031554177308,0.0038095921685766332,-0.003332179032057111,-0.007972360122875525,-0.0033441255936190093,-0.00792666470084261
1.0064502374428612,0.010924293923755681,0.0013245503214620738,0.0013341291502741227,0.0014963355664228846,0.0013138647913505436
1.0064973194679916,0.02453035587728399,0.004440067387027271,0.011333716656649779,0.007175530292004373,0.011236394080726955
1.006544401493122,0.042966387475684646,0.0061625728546954636,0.020787738978896356,0.01313264980216285,0.0206109429281609
1.0065914835182523,0.06411092062196938,0.006419707396734814,0.03329944681240632,0.01845553266839974,0.033054001365723694
1.0066385655433827,0.08556714248621351,0.007098939672466818,0.049462130528264495,0.021125969909119125,0.04918523007783306
1.006685647568513,0.10493697207975199,0.010076357639986076,0.06485229624100503,0.020388148710399786,0.0645870517922237
1.0067327295936435,0.12014720761669652,0.01253555263212174,0.07640706666955516,0.018610742251902655,0.07616492668838665
1.0067798116187738,0.12974860817624662,0.01461491049883784,0.08294186479002422,0.014938604220962128,0.08274451953409076
1.0068268936439042,0.1331160769266914,0.01638313968330323,0.08436945777741765,0.011195486474256649,0.08421798648582067
1.0068739756690346,0.13051634907150206,0.016297400467129262,0.08386978816652868,0.006269370295185289,0.08378035980791577
1.006921057694165,0.12301693370584733,0.014603407790865337,0.08185258015702256,0.0043116434432152895,0.08178850159231124
1.0069681397192953,0.11219272060745543,0.01286755395182081,0.07585112215539112,0.004306388660852858,0.07578750892649076
1.0070152217444257,0.09964098937742749,0.012082723538095074,0.06985230351433948,0.003618083265278261,0.06979810438265185
1.007062303769556,0.08648287672211809,0.010987754233840387,0.06302251331950957,0.0024028553213705575,0.06298484854369114
1.0071093857946865,0.07315337862299943,0.010963703505923064,0.053521194673379444,0.0013625551375529073,0.053498142354474844
1.0071564678198168,0.05967551136841471,0.011457165746954788,0.042771215350936226,0.0005578494598321024,0.042759863125429114
1.0072035498449472,0.046352747241279996,0.009675873889401566,0.029687677967592516,-0.0007559343026669666,0.029695161856623246
1.0072506318700776,0.03458526276589038,0.00839909128922542,0.01916866027493343,-0.0016548035570567786,0.019189216066276188
1.007297713895208,0.02727830692374265,0.006371332579893493,0.01473006896934623,-0.001296540310817754,0.014746196154337926
1.0073447959203383,0.0280866607277734,0.00561391304186198,0.01711698325886342,-0.0009511413531947511,0.01712823963423246
1.0073918779454687,0.03925806445151868,0.006757820933012922,0.028584290137595406,0.0009164968316533905,0.028569390121081773
1.007438959970599,0.059562255279517966,0.009549967992912266,0.043832242766228824,0.003435467138383042,0.04378241763165789
1.0074860419957294,0.08449757331606145,0.011605614860213742,0.058037587268334905,0.0062307680748481375,0.05795000499372895
1.0075331240208598,0.10858230355013457,0.011811543101198132,0.06858033205585247,0.010032338261105085,0.06844345987825501
1.0075802060459902,0.12742598805780986,0.011949341608405039,0.07621925524513734,0.011511170146524566,0.07606377036276041
1.0076272880711206,0.13840784538629322,0.011389131044511834,0.07904744927672683,0.012275408081343043,0.07888251738450726
1.007674370096251,0.14057521646913557,0.010971635700601893,0.0769603579802706,0.012922697571462805,0.07678736157969236
