freq,gls,usurper,pdc_unbiased,shape_periodogram,shift_periodogram
1.0,0.02176245538732735,0.046524328406450835,-0.007335655112181927,0.027453497030902427,-0.011214450275227952
1.0000470820251304,0.05134779247241603,0.08879907932769232,0.016081221596065367,0.06464811183787758,0.006624557346448279
1.0000941640502607,0.09689124580742478,0.1332995662401941,0.05094334186944231,0.10966889068382663,0.03488276989723431
1.0001412460753911,0.14848755125694818,0.17764437863179317,0.08456655871201842,0.15217408030778412,0.06269201307489736
1.0001883281005215,0.19664060203551523,0.2133213746923641,0.10917973127593883,0.18765740332130695,0.0828738925585546
1.0002354101256519,0.23592916525893703,0.23694060555493057,0.12678225514793529,0.21300787233972876,0.09760640690872695
1.0002824921507822,0.26363730657080775,0.2520142915691772,0.13936052532630389,0.2287488063314341,0.10859440095773476
1.0003295741759126,0.2780607972143743,0.2602830151148302,0.14663287491158739,0.2374548493395766,0.11505767291267407
1.000376656201043,0.27778293516045677,0.2626964938143026,0.14742341655727248,0.2402050088323549,0.11555331386061919
1.0004237382261734,0.2619162710265795,0.25717019169398814,0.139633635428265,0.23613682853621643,0.10799571068598281
1.0004708202513037,0.23107843684954268,0.24163763270080676,0.12167319492364326,0.22429273481101242,0.09097313472705652
1.0005179022764341,0.1884924826566669,0.22069457581296606,0.09811663264576473,0.20837173469550316,0.0689264556092096
1.0005649843015645,0.1401213853463462,0.20613612575666954,0.07552593926328457,0.1982414873168729,0.04730705544075443
1.0006120663266949,0.09311329616242185,0.20049731970745346,0.056936636782797936,0.19533580584028093,0.028864317322086348
1.0006591483518252,0.05338098213176131,0.20470140353570626,0.04656239048066332,0.1983979059138429,0.017925107226746673
1.0007062303769556,0.024158292773911582,0.21043653357905986,0.0379052596807291,0.20219875597977557,0.008612071834525547
1.000753312402086,0.006389706849983347,0.20891314446956755,0.024925530867037873,0.2006108804259745,-0.004287973828386436
1.0008003944272164,4.4957735270936574e-05,0.20716984626667428,0.013623927240606612,0.19611706408352117,-0.015034673422290786
1.0008474764523467,0.004476680458159687,0.20652234931284008,0.005279248516488982,0.19755126247483734,-0.02366973755538696
1.000894558477477,0.016631009383087918,0.21677935901347536,0.00604487589630294,0.2093013023904913,-0.024682630621270324
1.0009416405026075,0.030279800796216314,0.24273938284003888,0.01614856324889533,0.23327003658498274,-0.018088885040236088
1.0009887225277379,0.04019506929021177,0.27951277835975497,0.031662352407458065,0.2668642830988756,-0.007327715777194627
1.0010358045528682,0.045271217739530065,0.31789802016329916,0.049643587368788454,0.30290612598204175,0.0058645898422957105
1.0010828865779986,0.04665854735345898,0.3437867608586585,0.06394396252727896,0.33349442337182944,0.0163404995417482
1.001129968603129,0.04557434040645729,0.3545869867112771,0.06951556918541625,0.35082284578385015,0.019712944894635296
1.0011770506282593,0.04281463251624272,0.34820374771806395,0.06676401531502141,0.3527782890681003,0.016498840767524302
1.0012241326533897,0.03911406922799136,0.32960191378343723,0.05756222886158259,0.3421731316695181,0.008308776653147866
1.00127121467852,0.035734840091298535,0.3043269340564763,0.04469056838221148,0.3235478676235386,-0.0024304405147180844
1.0013182967036505,0.034632288517627896,0.2851127581023386,0.03354469161607427,0.3096867910436636,-0.011946507910694132
1.0013653787287808,0.03686446430802818,0.2870684634084976,0.03235087082016887,0.31014283665546016,-0.013261799248615253
1.0014124607539112,0.040499198873267514,0.30596088663007615,0.04235422606047071,0.3240605643861233,-0.004959699414388492
1.0014595427790416,0.04245011553894062,0.3292074273457602,0.05148956578485458,0.34307614429276356,0.0017472103471206622
1.001506624804172,0.04142424671447975,0.34523380163396883,0.057489670337512934,0.3547163244921931,0.006342256619522855
1.0015537068293023,0.03772147907862947,0.3464644199382137,0.05838903434484734,0.3529644965701211,0.007563199580947325
1.0016007888544327,0.032149333674356434,0.3325537959043854,0.05286952532393206,0.33469751914931944,0.004476451537617267
1.001647870879563,0.025799799790141527,0.303044578211843,0.040386054375886556,0.30134046523891594,-0.003539123544297389
1.0016949529046935,0.020580986012262138,0.2634118281510453,0.02276083148008517,0.25933469638029544,-0.015319500307033204
1.0017420349298238,0.01993155776046648,0.22901491705580848,0.008396000375120035,0.22389747091464798,-0.024532964135325817
1.0017891169549542,0.027489951613850306,0.2137597392114528,0.00883020356959996,0.20828572074354407,-0.021711737502144585
1.0018361989800846,0.042074300128446054,0.21480034689898578,0.022145335055818467,0.21150857211458407,-0.008719868451649437
1.001883281005215,0.05845891480384451,0.2279818793648456,0.04104344236602053,0.22648378335992864,0.008266394775247649
1.0019303630303453,0.07582159493280267,0.24437533626194893,0.05832937685591873,0.24078975810893313,0.023858284880511636
1.0019774450554757,0.09824195100672209,0.25186066635134663,0.07041397317164165,0.2439658492961212,0.03579890504061839
1.002024527080606,0.1303669711588208,0.24044199726438345,0.07896421651578898,0.23168373259539016,0.04625007195860075
1.0020716091057364,0.17464242099810953,0.22126244381987742,0.08832693698111686,0.21445677878779826,0.058139297024464374
1.0021186911308668,0.22917237164395338,0.22227537425524996,0.11355266104308831,0.21087015011707522,0.08435250495240769
1.0021657731559972,0.2864808872447173,0.24039258087441576,0.14880372324738836,0.22116261046825442,0.11919657621314415
1.0022128551811276,0.335488571803669,0.2602734869412092,0.17945522269565434,0.23420484717988882,0.14931444633893665
1.002259937206258,0.3667004160945303,0.27234191930268387,0.20044309409803335,0.24120810176584592,0.17032513525703136
1.0023070192313883,0.37630521047742305,0.2740521258387932,0.20989430295355302,0.23962094135716186,0.18028823217089648
1.0023541012565187,0.3658732131217113,0.265850011511502,0.20800353236518512,0.2300011813143946,0.17926900956689784
1.002401183281649,0.3393357840705059,0.24918260321624255,0.19716291122807472,0.21385259965457223,0.16972165893023763
1.0024482653067794,0.30043566038503033,0.22621427787025697,0.1783931936762516,0.19224345249069286,0.1528116152102272
1.0024953473319098,0.25183659939415354,0.19784668229359204,0.15384153094853617,0.16492018084893098,0.1310069580971442
1.0025424293570402,0.1956066522565673,0.16083589776992605,0.12081929242955049,0.13185730496074968,0.10182664151061183
1.0025895113821706,0.13475970805500284,0.11140884945433248,0.07564140824241966,0.09064681180647997,0.062157766061111626
1.002636593407301,0.07582916802294695,0.06033539689356318,0.025728531183742454,0.05105312206477522,0.018141515625152135
1.0026836754324313,0.03145358980808763,0.034292517413793196,-0.0040036080406334615,0.02832283719297973,-0.008041505525161799
1.0027307574575617,0.01779891286180085,0.03875526320510472,-0.006351274616742859,0.030123584450418427,-0.010625264930176175
1.002777839482692,0.04358985242398123,0.05395568260687234,0.006591376950054447,0.05034858688719963,-0.0007248503478208325
1.0028249215078224,0.1037077589167159,0.08618545651328093,0.04281328660270074,0.08399549219775107,0.030410105340104066
1.0028720035329528,0.18101238562213362,0.13863077704541102,0.0979436666785688,0.1314881173233109,0.07890705629881754
1.0029190855580832,0.25636899888384335,0.19428142009857388,0.15380629462607742,0.17565730548101302,0.12968393148894963
1.0029661675832136,0.31832235074100634,0.2409357525461135,0.19704252226634572,0.2029944816295704,0.17073589106014306
1.003013249608344,0.36361141655314383,0.26855003508998315,0.228525784613192,0.21981956139348136,0.20146738081652232
1.0030603316334743,0.39341420767750745,0.2859754167706597,0.24979870354304085,0.23011650699728145,0.22256996813087745
1.0031074136586047,0.4102870696014962,0.2948074771478629,0.26258314989231946,0.23447834559460898,0.23549042928834954
1.003154495683735,0.41662904201390033,0.297114196532726,0.266777273312063,0.23422971449650998,0.23987342698430084
1.0032015777088654,0.41405085665469693,0.2935831019030389,0.26326150551395927,0.22924348955009338,0.23662031641649564
1.0032486597339958,0.4030953535584088,0.2840531288251275,0.251751202986526,0.21929947942380068,0.22552753807181333
1.0032957417591262,0.38301151602067063,0.26828835412620583,0.2324239377319079,0.20437761585331612,0.20694895169424343
1.0033428237842565,0.3514583105172215,0.24563610324434704,0.2047530276495091,0.18419820561470573,0.18061658323355673
1.003389905809387,0.3042863356687068,0.2158737860068528,0.16911475512504195,0.15923290174277055,0.1471592016939039
1.0034369878345173,0.2364892670841809,0.1796487077666658,0.12615890065588273,0.13016377326915052,0.1074100648691122
1.0034840698596477,0.14805992805189566,0.13956925868386297,0.07745804013496241,0.1001285705442236,0.06266283777475029
1.003531151884778,0.05937981673678241,0.11091711448541443,0.035632586371168055,0.08147234447046797,0.02362939442298978
1.0035782339099084,0.016571701488668728,0.10932517562652472,0.012038086514572617,0.08754400533668179,-0.0006895047866627038
1.0036253159350388,0.04141534161646615,0.14411554192987347,0.014399178728297872,0.12595023823870344,-0.003908753314740745
1.0036723979601692,0.0978579156313711,0.20096502088213922,0.03595348541122598,0.18419610205642226,0.009248112613650139
1.0037194799852995,0.14599333246590304,0.2651465815445751,0.06503465797160808,0.25089946481749625,0.029306567971329002
1.00376656201043,0.17300879075255565,0.3208315405273907,0.0922030709843016,0.30979711918010544,0.049417060378724974
1.0038136440355603,0.18229222765708752,0.3615953129421881,0.11374971918924169,0.35286092998072166,0.06666127829191783
1.0038607260606907,0.18262972424027749,0.38688678603498955,0.12736778710133306,0.38242118453264784,0.07772356026916746
1.003907808085821,0.18292620727983336,0.3993686666623198,0.13485525602086357,0.3996288138464153,0.08387872067617277
1.0039548901109514,0.18798821740501145,0.40406908229898575,0.13913083302593265,0.4045712434840686,0.0880143470891525
1.0040019721360818,0.19658928748535154,0.4006341927761765,0.1397247738744464,0.40026354273451337,0.0891553326866604
1.0040490541612122,0.20361099360789395,0.39145819202646687,0.1356935801867525,0.3866956348340441,0.08629087952989584
1.0040961361863425,0.20356945018764083,0.37405436086875543,0.1287855413388881,0.3645729881375493,0.08139014110522404
1.004143218211473,0.19261735903368254,0.34486634949821454,0.11776025800915435,0.33351887962164795,0.07335973909147037
1.0041903002366033,0.1692114287165738,0.30383552784826123,0.09836742477706704,0.2931256547704389,0.05808466417516742
1.0042373822617336,0.13469585530973552,0.25640395584366454,0.07519967777083232,0.24774726403192565,0.040190455281242765
1.004284464286864,0.094068350002802,0.2115763563639947,0.051842634052145065,0.20321028600336974,0.022588931465196985
1.0043315463119944,0.0558705414627791,0.17254099348812083,0.03082107495389939,0.16306110430346346,0.007140177307768153
1.0043786283371248,0.029785725493520713,0.14717234594246467,0.019809015244991575,0.13477231320818112,0.00021035278408627762
1.0044257103622551,0.022326134922130727,0.13555788071413474,0.01684685304795892,0.11927244010503699,-0.0004969719864407827
1.0044727923873855,0.03362727707623793,0.1357882879897828,0.01768087969631584,0.11712007780986441,0.0006465321977750497
1.004519874412516,0.057935866130881315,0.1459521136057155,0.0238553638180855,0.1261614160785374,0.005498767612097236
1.0045669564376463,0.08691312585069338,0.16694320307859317,0.038233159934289905,0.1466470287983085,0.01693610550769862
1.0046140384627766,0.11302745450084833,0.19408501304617606,0.05542672474865837,0.17505182801831756,0.030190940965152496
1.004661120487907,0.13143773576861661,0.21963716735708685,0.07126698378066398,0.20426989854565603,0.042155694564765776
1.0047082025130374,0.140315951549541,0.2393713121586476,0.0817840112464661,0.22857791673593572,0.049557227754128366
1.0047552845381678,0.14016084842095028,0.24875241224593356,0.0846685751900148,0.24424770376729485,0.05039785697795718
1.0048023665632981,0.13271042804166153,0.24641716191245322,0.08028160564993014,0.2484478052478587,0.045318940128549604
1.0048494485884285,0.1199532079956697,0.23467673647437548,0.06958311394397716,0.2441964146180587,0.03491434137734353
1.0048965306135589,0.10352759540252561,0.21437233627917518,0.05738407400153901,0.22971201109599798,0.024464257252340683
1.0049436126386893,0.08458770500586026,0.1883587539238761,0.04469505929439128,0.20807284918240374,0.014644370864873992
1.0049906946638196,0.06411017510052013,0.1619725684112972,0.03435472552873721,0.18448035918608605,0.007594431186669764
1.00503777668895,0.043500849939608656,0.137205751081808,0.022887706523455283,0.160113473876175,-0.00039537141676167394
1.0050848587140804,0.02497562650004661,0.11327650285671856,0.013888116903115118,0.13455642519080532,-0.005673768355899009
1.0051319407392107,0.011013597455985432,0.09594996821204789,0.011624969459267675,0.11315841443938654,-0.004813375663186106
1.0051790227643411,0.003334338693202587,0.08042761557084244,0.009001101837417943,0.09390571753520083,-0.004628786362822562
1.0052261047894715,0.0027948227754708652,0.06318722016705813,0.005716764128480125,0.07361591745112078,-0.004951795437490094
1.0052731868146019,0.010164673003053454,0.04773979950308465,0.005314070387151807,0.053358577989385245,-0.0024246889354019746
1.0053202688397322,0.026566180290056158,0.037207289950433715,0.008193549268036414,0.03776058323466426,0.00267541494326098
1.0053673508648626,0.05291846997433676,0.03135726054521576,0.011498759854167706,0.02788684744659545,0.0073686124932498325
1.005414432889993,0.08828034555015178,0.030740030484483646,0.017065936640710815,0.02184023364752814,0.013749149117980723
1.0054615149151234,0.12763762777320273,0.03373756573087914,0.025647230237824777,0.020032985607750024,0.0225039402335882
1.0055085969402537,0.16155770115500132,0.0415340678002351,0.038076850744054896,0.025348753091026015,0.03405039108829806
1.0055556789653841,0.18078890709766565,0.05063284762981604,0.05135766337998839,0.03540729006000006,0.0457744857271067
1.0056027609905145,0.18307418566708303,0.05731036839332016,0.06056084021799014,0.046360393659026125,0.05334902921527515
1.0056498430156449,0.1741533504439713,0.06104100651958056,0.06655908741414072,0.05314282611440832,0.058346441487308894
1.0056969250407752,0.16242605985016223,0.06337244971946299,0.07063087442771013,0.0582867337329856,0.06166849472991062
1.0057440070659056,0.15418810481596457,0.06505424873978032,0.07107575192890922,0.062368803775562844,0.061540257735344626
1.005791089091036,0.1523552110015489,0.06457193981754966,0.0660360559428213,0.06405365981290047,0.05629834047519303
1.0058381711161664,0.15691036178882456,0.06417608930664205,0.06130313889977103,0.06521944128043636,0.05143339274240134
1.0058852531412967,0.16538784679386007,0.06842880921823812,0.06307528196508604,0.06818424103816827,0.05277842876909027
1.005932335166427,0.17322460684996496,0.07082655477146421,0.06323184659303546,0.07087404010072279,0.05255741724733064
1.0059794171915575,0.17475929729964576,0.06918595296936543,0.05880087400333982,0.06989374573965748,0.04829128544003435
1.0060264992166879,0.16548577922015562,0.06449483784753055,0.05204155960234529,0.06518237196321308,0.0422398452297145
1.0060735812418182,0.1445721481217929,0.0571524885554809,0.04234591607178599,0.05734381434611823,0.0337252803619469
1.0061206632669486,0.11538472372115638,0.05146459831688502,0.03266210113426135,0.048839409775730924,0.02533177133875628
1.006167745292079,0.08342022676517998,0.045539395246523826,0.0259645785337829,0.040780407272455695,0.019845848260515282
1.0062148273172093,0.053714935068683495,0.04228051571495964,0.01794830890199036,0.03567844281945244,0.01263601881016132
1.0062619093423397,0.029620632829972474,0.038716899204223984,0.006428025048282717,0.03241266113902639,0.0016968660082251066
1.00630899136747,0.012907514843990737,0.03560876677554781,-0.004503164505502606,0.032092103550938014,-0.00907973171713912
1.0063560733926005,0.004292560353454192,0.03699962203283851,-0.010519166817943732,0.037083204692045325,-0.015756586438371207
1.0064031554177308,0.0038095921685766332,0.044031462831757046,-0.007972360122875525,0.046864981099680146,-0.014649535666224818
1.0064502374428612,0.010924293923755681,0.06188233281361154,0.0013341291502741227,0.06749074033587847,-0.008412782559251243
1.0064973194679916,0.02453035587728399,0.08269201298945976,0.011333716656649779,0.09116321965652435,-0.001912922036062108
1.006544401493122,0.042966387475684646,0.10221556394553763,0.020787738978896356,0.11423178087759853,0.004161226330785831
1.0065914835182523,0.06411092062196938,0.12029849170025612,0.03329944681240632,0.1321899987225089,0.014066576362702263
1.0066385655433827,0.08556714248621351,0.13804612379828554,0.049462130528264495,0.146390796547961,0.02822962896799597
1.006685647568513,0.10493697207975199,0.1532543463540067,0.06485229624100503,0.15670517956311714,0.042241986933074856
1.0067327295936435,0.12014720761669652,0.16249236520022933,0.07640706666955516,0.1611587858048263,0.053258574723364586
1.0067798116187738,0.12974860817624662,0.16543435494402733,0.08294186479002422,0.15818332221783973,0.060244484607510085
1.0068268936439042,0.1331160769266914,0.1621926010859151,0.08436945777741765,0.14847640007615828,0.06299332411426192
1.0068739756690346,0.13051634907150206,0.1528599350394466,0.08386978816652868,0.13410489639515244,0.06443690923491877
1.006921057694165,0.12301693370584733,0.1368581307919202,0.08185258015702256,0.11682254479324035,0.06476653255927708
1.0069681397192953,0.11219272060745543,0.11674333462162961,0.07585112215539112,0.0971413942911477,0.06147114580337038
1.0070152217444257,0.09964098937742749,0.09580321841644152,0.06985230351433948,0.076023686762552,0.05842132374381892
1.007062303769556,0.08648287672211809,0.07709369749343364,0.06302251331950957,0.057311122977402436,0.05425084735332033
1.0071093857946865,0.07315337862299943,0.06198518052400082,0.053521194673379444,0.04172687143048871,0.047022981306826236
1.0071564678198168,0.05967551136841471,0.05102216823091439,0.042771215350936226,0.03035133319585761,0.03798614906023059
1.0072035498449472,0.046352747241279996,0.040413049733278285,0.029687677967592516,0.021740005114096267,0.026259557142506124
1.0072506318700776,0.03458526276589038,0.034153462068601495,0.01916866027493343,0.018236373935283105,0.016348271831882234
1.007297713895208,0.02727830692374265,0.03309707528368171,0.01473006896934623,0.01936465059003438,0.011792454617017672
1.0073447959203383,0.0280866607277734,0.039739771343533875,0.01711698325886342,0.026152715202186948,0.013180361994302035
1.0073918779454687,0.03925806445151868,0.05748383547386568,0.028584290137595406,0.041605647341886834,0.022323567621548895
1.007438959970599,0.059562255279517966,0.08044734716553602,0.043832242766228824,0.060822732006644266,0.03470654852657109
1.0074860419957294,0.08449757331606145,0.10256674237196015,0.058037587268334905,0.08005807138523707,0.04610631793272476
1.0075331240208598,0.10858230355013457,0.11990110949199075,0.06858033205585247,0.0974725535411377,0.05417556687969063
1.0075802060459902,0.12742598805780986,0.13052250950082933,0.07621925524513734,0.10834972548524333,0.06029629164129524
1.0076272880711206,0.13840784538629322,0.13217311511809132,0.07904744927672683,0.11168712400045706,0.0626638959306411
1.007674370096251,0.14057521646913557,0.12676447347690437,0.0769603579802706,0.1105236084001347,0.06073802617057884
1.0077214521213813,0.1345761316442056,0.1164327111084476,0.07084930100861353,0.10362963098454393,0.05558616739310332
1.0077685341465117,0.12269802495893224,0.10095464406619466,0.062425783036096825,0.09131779790535517,0.04889884868075758
1.007815616171642,0.10844877640211482,0.08461042875604793,0.054884533548136764,0.07683255597591755,0.04342378730740843
