freq,gls,usurper,pdc_unbiased,shape_periodogram,shift_periodogram
1.0,0.02176245538732735,0.05038903306809519,-0.007335655112181927,0.03882827258972475,-0.015228509823517701
1.0000470820251304,0.05134779247241603,0.10253254669402045,0.016081221596065367,0.08686209546783337,-0.002264646110082615
1.0000941640502607,0.09689124580742478,0.1596177652031763,0.05094334186944231,0.14297000787551636,0.02049823787815658
1.0001412460753911,0.14848755125694818,0.2165348049432415,0.08456655871201842,0.19703340106159495,0.04302556521795036
1.0001883281005215,0.19664060203551523,0.2626355396722835,0.10917973127593883,0.24190366405263353,0.059004710041304455
1.0002354101256519,0.23592916525893703,0.2939060151972775,0.12678225514793529,0.27342020436545517,0.07094301154368556
1.0002824921507822,0.26363730657080775,0.31466078055951435,0.13936052532630389,0.29314353647088803,0.08024413318140143
1.0003295741759126,0.2780607972143743,0.32557202319341133,0.14663287491158739,0.3033434607255807,0.08593837807405932
1.000376656201043,0.27778293516045677,0.32783437023814893,0.14742341655727248,0.30539514995825684,0.0863857434344809
1.0004237382261734,0.2619162710265795,0.3196428673794185,0.139633635428265,0.2977753436380174,0.07965397910161424
1.0004708202513037,0.23107843684954268,0.2984007645530896,0.12167319492364326,0.2791723611226661,0.06454103884973764
1.0005179022764341,0.1884924826566669,0.2701630915336208,0.09811663264576473,0.25512781854856315,0.045059945838819254
1.0005649843015645,0.1401213853463462,0.2500819563834076,0.07552593926328457,0.23940935981880224,0.02524026697830397
1.0006120663266949,0.09311329616242185,0.2414204259788403,0.056936636782797936,0.23453259760552272,0.007423630182935079
1.0006591483518252,0.05338098213176131,0.24477221695147672,0.04656239048066332,0.23908325216301612,-0.004033016122203263
1.0007062303769556,0.024158292773911582,0.25102855226127424,0.0379052596807291,0.24640561017707513,-0.014366400963702591
1.000753312402086,0.006389706849983347,0.24947260317501324,0.024925530867037873,0.24775865701235417,-0.02777816884634336
1.0008003944272164,4.4957735270936574e-05,0.24684264558930996,0.013623927240606612,0.24502824135299203,-0.03856770957669331
1.0008474764523467,0.004476680458159687,0.24664662542089702,0.005279248516488982,0.2478097359142458,-0.047593022880708886
1.000894558477477,0.016631009383087918,0.2593305568634445,0.00604487589630294,0.2622985411113639,-0.05010623494028068
1.0009416405026075,0.030279800796216314,0.29025493623575976,0.01614856324889533,0.2915445213685807,-0.046557710687954675
1.0009887225277379,0.04019506929021177,0.33382050460226975,0.031662352407458065,0.33167906409360337,-0.039935745881466804
1.0010358045528682,0.045271217739530065,0.3802115024861526,0.049643587368788454,0.37451354747538357,-0.031197595163136086
1.0010828865779986,0.04665854735345898,0.4138765288879809,0.06394396252727896,0.4100717062153586,-0.024385247436190895
1.001129968603129,0.04557434040645729,0.4286044427878687,0.06951556918541625,0.42858004989964643,-0.022786718059758147
1.0011770506282593,0.04281463251624272,0.4223222017595566,0.06676401531502141,0.42788441873758865,-0.025615677210203015
1.0012241326533897,0.03911406922799136,0.4004058132416359,0.05756222886158259,0.41142389970614784,-0.031588398296535425
1.00127121467852,0.035734840091298535,0.3697410996646515,0.04469056838221148,0.3851367306283545,-0.03898306597451572
1.0013182967036505,0.034632288517627896,0.34674397838898047,0.03354469161607427,0.3657966392551939,-0.04607465544612146
1.0013653787287808,0.03686446430802818,0.34813286628836615,0.03235087082016887,0.3660098554978882,-0.0473790450737545
1.0014124607539112,0.040499198873267514,0.37025779335375586,0.04235422606047071,0.38460132209823583,-0.041330998030825516
1.0014595427790416,0.04245011553894062,0.39916035098907326,0.05148956578485458,0.4112470642022028,-0.0380804262756119
1.001506624804172,0.04142424671447975,0.41990498597983256,0.057489670337512934,0.42952363364659624,-0.03610438888544522
1.0015537068293023,0.03772147907862947,0.42261972153616323,0.05838903434484734,0.43088155627371777,-0.03546324928554467
1.0016007888544327,0.032149333674356434,0.40558349232636837,0.05286952532393206,0.41178056416801295,-0.036727059981515896
1.001647870879563,0.025799799790141527,0.36833043243400787,0.040386054375886556,0.3733513312115458,-0.0406963943873298
1.0016949529046935,0.020580986012262138,0.318882173119501,0.02276083148008517,0.32356586777553326,-0.047234023566811945
1.0017420349298238,0.01993155776046648,0.2762895168773706,0.008396000375120035,0.28140091454372734,-0.05210636011878661
1.0017891169549542,0.027489951613850306,0.25768855404186847,0.00883020356959996,0.2625703572286824,-0.04735400390787198
1.0018361989800846,0.042074300128446054,0.2605039318143046,0.022145335055818467,0.266076526502353,-0.034668229555427275
1.001883281005215,0.05845891480384451,0.27816168416216525,0.04104344236602053,0.28364631943126356,-0.019352077548294783
1.0019303630303453,0.07582159493280267,0.2978230966177276,0.05832937685591873,0.2998422345201933,-0.005178847862202822
1.0019774450554757,0.09824195100672209,0.30532845445872414,0.07041397317164165,0.3013435714853311,0.006968843170791606
1.002024527080606,0.1303669711588208,0.29075437425714556,0.07896421651578898,0.2826916943180273,0.019745296550392002
1.0020716091057364,0.17464242099810953,0.2690378116543195,0.08832693698111686,0.25936899746202235,0.03418135601220555
1.0021186911308668,0.22917237164395338,0.27238689072713845,0.11355266104308831,0.2567646362231742,0.060555798122382806
1.0021657731559972,0.2864808872447173,0.2975857035852775,0.14880372324738836,0.2743484692960026,0.0935879518121685
1.0022128551811276,0.335488571803669,0.32541312068674183,0.17945522269565434,0.29630955483612953,0.12168470513488974
1.002259937206258,0.3667004160945303,0.34298149422527446,0.20044309409803335,0.3099337754020299,0.14156789588275387
1.0023070192313883,0.37630521047742305,0.3467952806528522,0.20989430295355302,0.31144907906278435,0.1513667784186127
1.0023541012565187,0.3658732131217113,0.3375517772378455,0.20800353236518512,0.3014870419607776,0.15095575433998587
1.002401183281649,0.3393357840705059,0.3174463051920921,0.19716291122807472,0.28248171077848944,0.1426385778082536
1.0024482653067794,0.30043566038503033,0.28920376959033123,0.1783931936762516,0.256451979143443,0.12750439910938452
1.0024953473319098,0.25183659939415354,0.25399027073904373,0.15384153094853617,0.22345267763992185,0.10815065108849843
1.0025424293570402,0.1956066522565673,0.207170923285597,0.12081929242955049,0.18171187244903259,0.08253222458698178
1.0025895113821706,0.13475970805500284,0.14382330899608395,0.07564140824241966,0.12753372196995744,0.048137044788098125
1.002636593407301,0.07582916802294695,0.07726616520828199,0.025728531183742454,0.07261334711980806,0.010165801278427599
1.0026836754324313,0.03145358980808763,0.03877686100760182,-0.0040036080406334615,0.03807579085954333,-0.01181072296045726
1.0027307574575617,0.01779891286180085,0.03738552594288075,-0.006351274616742859,0.03375424642233837,-0.01321114474740382
1.002777839482692,0.04358985242398123,0.056370146045221364,0.006591376950054447,0.053580014714423425,-0.004655395970296899
1.0028249215078224,0.1037077589167159,0.10045947321607522,0.04281328660270074,0.09508979895649051,0.02232424096497556
1.0028720035329528,0.18101238562213362,0.17153201568587603,0.0979436666785688,0.15968863555785553,0.06389933138115493
1.0029190855580832,0.25636899888384335,0.24478394753433344,0.15380629462607742,0.222773693502654,0.10823932881545685
1.0029661675832136,0.31832235074100634,0.3045206335575051,0.19704252226634572,0.26739856996718786,0.14502963665657448
1.003013249608344,0.36361141655314383,0.34241642204772776,0.228525784613192,0.2967513191507113,0.1734489174708079
1.0030603316334743,0.39341420767750745,0.36653578877980864,0.24979870354304085,0.3149599871665676,0.19346008988780902
1.0031074136586047,0.4102870696014962,0.3795760277086885,0.26258314989231946,0.3242752830378624,0.20592972445981864
1.003154495683735,0.41662904201390033,0.3836150594853233,0.266777273312063,0.3261182745718695,0.21021308005450276
1.0032015777088654,0.41405085665469693,0.3795897132421224,0.26326150551395927,0.32070884388190046,0.20713811058147535
1.0032486597339958,0.4030953535584088,0.3673103050580232,0.251751202986526,0.3078651710218827,0.1965507556865471
1.0032957417591262,0.38301151602067063,0.34642188933345397,0.2324239377319079,0.2874650190660793,0.1789884439369391
1.0033428237842565,0.3514583105172215,0.31620160943783254,0.2047530276495091,0.25924381659349044,0.15442376294012533
1.003389905809387,0.3042863356687068,0.27645082409240196,0.16911475512504195,0.22375325312769812,0.12372562740690408
1.0034369878345173,0.2364892670841809,0.22779419659846276,0.12615890065588273,0.18179749274623055,0.08789282793856878
1.0034840698596477,0.14805992805189566,0.17374155485688467,0.07745804013496241,0.13741941262187898,0.047945040044483356
1.003531151884778,0.05937981673678241,0.13376968654357207,0.035632586371168055,0.10741594873555316,0.012706880416823167
1.0035782339099084,0.016571701488668728,0.1284543482957449,0.012038086514572617,0.11024620911953212,-0.011123111967238425
1.0036253159350388,0.04141534161646615,0.16994467207338404,0.014399178728297872,0.1561516231616019,-0.018476835364544905
1.0036723979601692,0.0978579156313711,0.24162785806789958,0.03595348541122598,0.22983812941247994,-0.012747074973102361
1.0037194799852995,0.14599333246590304,0.32456953576720626,0.06503465797160808,0.31579679285076667,-0.0017364111478522654
1.00376656201043,0.17300879075255565,0.39748124055479955,0.0922030709843016,0.3919601134939323,0.01022565209597778
1.0038136440355603,0.18229222765708752,0.4507938810714689,0.11374971918924169,0.4478129367845971,0.021535978994935177
1.0038607260606907,0.18262972424027749,0.4838868157930164,0.12736778710133306,0.48466137015944305,0.028851954802036468
1.003907808085821,0.18292620727983336,0.5006511726780218,0.13485525602086357,0.5046645743916003,0.033136011951722166
1.0039548901109514,0.18798821740501145,0.5067813648865668,0.13913083302593265,0.5101505733270949,0.03693595478617962
1.0040019721360818,0.19658928748535154,0.5022164712876618,0.1397247738744464,0.5043253300846611,0.03887523319997912
1.0040490541612122,0.20361099360789395,0.4891107526665186,0.1356935801867525,0.4867847675259323,0.03794417188599935
1.0040961361863425,0.20356945018764083,0.4655193533684419,0.1287855413388881,0.4577375334111871,0.036244389986042146
1.004143218211473,0.19261735903368254,0.42820982546506736,0.11776025800915435,0.41746523859713713,0.03250171782515891
1.0041903002366033,0.1692114287165738,0.3756407647365217,0.09836742477706704,0.36433862205152634,0.02280449798790575
1.0042373822617336,0.13469585530973552,0.3147951354815517,0.07519967777083232,0.30462224256176484,0.011217891496138303
1.004284464286864,0.094068350002802,0.2570731198993468,0.051842634052145065,0.24719286165274168,-0.00042431426644316605
1.0043315463119944,0.0558705414627791,0.20666848573713015,0.03082107495389939,0.19660026728964225,-0.010761652371051412
1.0043786283371248,0.029785725493520713,0.17381007750536612,0.019809015244991575,0.16235793820252423,-0.01443388626493251
1.0044257103622551,0.022326134922130727,0.15853225491305822,0.01684685304795892,0.14511920595163674,-0.013716741153335377
1.0044727923873855,0.03362727707623793,0.15875945951435014,0.01768087969631584,0.14483374375742444,-0.01283163556995978
1.004519874412516,0.057935866130881315,0.17184365554619366,0.0238553638180855,0.1582605793776172,-0.009553749901313963
1.0045669564376463,0.08691312585069338,0.19880334176098416,0.038233159934289905,0.18552016795846313,-0.0010104982717216754
1.0046140384627766,0.11302745450084833,0.2335167119287333,0.05542672474865837,0.22159394913994776,0.00862654752778677
1.004661120487907,0.13143773576861661,0.26715814154357764,0.07126698378066398,0.2583534217278118,0.016963445451880953
1.0047082025130374,0.140315951549541,0.29330630787796164,0.0817840112464661,0.2881378103508301,0.021508651267164492
1.0047552845381678,0.14016084842095028,0.3063983436001721,0.0846685751900148,0.3061895200256672,0.020704169272554692
1.0048023665632981,0.13271042804166153,0.304765651413528,0.08028160564993014,0.3094962395861088,0.015449913820870409
1.0048494485884285,0.1199532079956697,0.29069533651449575,0.06958311394397716,0.30104261901631224,0.0061748767408788645
1.0048965306135589,0.10352759540252561,0.2655276036969061,0.05738407400153901,0.27960572088118446,-0.0017485012109634225
1.0049436126386893,0.08458770500586026,0.23289739491966344,0.04469505929439128,0.24923721490958797,-0.008107297717161338
1.0049906946638196,0.06411017510052013,0.1997498845543382,0.03435472552873721,0.21732958234421318,-0.01166103428722886
1.00503777668895,0.043500849939608656,0.16835835555266576,0.022887706523455283,0.18578179831224295,-0.01636407905789338
1.0050848587140804,0.02497562650004661,0.13769067882354788,0.013888116903115118,0.15352447546628029,-0.01842463606100248
1.0051319407392107,0.011013597455985432,0.11529931349178592,0.011624969459267675,0.12777590829597174,-0.01521390207172774
1.0051790227643411,0.003334338693202587,0.09613225765896286,0.009001101837417943,0.10623050317555699,-0.013269823313516924
1.0052261047894715,0.0027948227754708652,0.0749423291302492,0.005716764128480125,0.08303270108582789,-0.011644039566206358
1.0052731868146019,0.010164673003053454,0.05623968003129734,0.005314070387151807,0.06054296934682325,-0.007353875490788681
1.0053202688397322,0.026566180290056158,0.04405712499890049,0.008193549268036414,0.044814905270165795,-0.0012670651020809751
1.0053673508648626,0.05291846997433676,0.03774628931837294,0.011498759854167706,0.035941306486683436,0.0038085315064761965
1.005414432889993,0.08828034555015178,0.037078057419195315,0.017065936640710815,0.03140777852060769,0.010197718399556296
1.0054615149151234,0.12763762777320273,0.04126084382220655,0.025647230237824777,0.031486463626953745,0.018583968581821965
1.0055085969402537,0.16155770115500132,0.05171512291411995,0.038076850744054896,0.0392683628217261,0.029155169527889137
1.0055556789653841,0.18078890709766565,0.06415598382989333,0.05135766337998839,0.05149749426167692,0.0396658310614162
1.0056027609905145,0.18307418566708303,0.07397308970448914,0.06056084021799014,0.06371330001461914,0.046205042688801455
1.0056498430156449,0.1741533504439713,0.07993698611723385,0.06655908741414072,0.07108779620959298,0.0506003062048881
1.0056969250407752,0.16242605985016223,0.08382078374716391,0.07063087442771013,0.07639992604057312,0.05352840211939455
1.0057440070659056,0.15418810481596457,0.08691418339905237,0.07107575192890922,0.08102802886204565,0.053028445182952876
1.005791089091036,0.1523552110015489,0.0870805648884352,0.0660360559428213,0.08305346849092571,0.04765427517212518
1.0058381711161664,0.15691036178882456,0.08700653892149972,0.06130313889977103,0.08455526604415484,0.04268806588361233
1.0058852531412967,0.16538784679386007,0.09244745089478183,0.06307528196508604,0.08911400847543108,0.04350565138613319
1.005932335166427,0.17322460684996496,0.09693652136348209,0.06323184659303546,0.09415853450964617,0.042633695655060665
1.0059794171915575,0.17475929729964576,0.09607843063293055,0.05880087400333982,0.09439318626500859,0.03821791208358006
1.0060264992166879,0.16548577922015562,0.09057038286148791,0.05204155960234529,0.08943638213952905,0.03257166402946539
1.0060735812418182,0.1445721481217929,0.08118149579633027,0.04234591607178599,0.0805425137429186,0.02485623174389621
1.0061206632669486,0.11538472372115638,0.07340682118544546,0.03266210113426135,0.0713233103500773,0.017239974172287623
1.006167745292079,0.08342022676517998,0.0654821260674004,0.0259645785337829,0.0621241402128962,0.012566428750923014
1.0062148273172093,0.053714935068683495,0.06047974486124088,0.01794830890199036,0.05609734275082267,0.005952485016315822
1.0062619093423397,0.029620632829972474,0.05437464866136119,0.006428025048282717,0.05076993356355407,-0.0042319824230217795
1.00630899136747,0.012907514843990737,0.04841384507895909,-0.004503164505502606,0.04742493517239007,-0.014242671520321234
1.0063560733926005,0.004292560353454192,0.04801959093595013,-0.010519166817943732,0.04970418383277948,-0.020607336991045378
1.0064031554177308,0.0038095921685766332,0.05446189285379569,-0.007972360122875525,0.058040375953010426,-0.019850461493671225
1.0064502374428612,0.010924293923755681,0.07464469215655385,0.0013341291502741227,0.0801662546548351,-0.01534620938352856
1.0064973194679916,0.02453035587728399,0.09945887913384045,0.011333716656649779,0.10685144685742783,-0.011105011726977896
1.006544401493122,0.042966387475684646,0.12353399786285439,0.020787738978896356,0.13337980405077068,-0.007349363035736753
1.0065914835182523,0.06411092062196938,0.1467162314287882,0.03329944681240632,0.15566269771371627,0.00035940102343196657
1.0066385655433827,0.08556714248621351,0.1703056728135622,0.049462130528264495,0.1759129900764546,0.012203685147054423
1.006685647568513,0.10493697207975199,0.19111294178543659,0.06485229624100503,0.19290230455295082,0.02407175019406434
1.0067327295936435,0.12014720761669652,0.20441689987662315,0.07640706666955516,0.20261276270373557,0.033684734995377275
1.0067798116187738,0.12974860817624662,0.20921079051237104,0.08294186479002422,0.20272370066497755,0.040239927728805996
1.0068268936439042,0.1331160769266914,0.2049592181306973,0.08436945777741765,0.19340152383846318,0.04356036652372808
1.0068739756690346,0.13051634907150206,0.19360741985455684,0.08386978816652868,0.17784822326023933,0.0461936727028676
1.006921057694165,0.12301693370584733,0.1744855690115007,0.08185258015702256,0.15715922126294285,0.04834175745971016
1.0069681397192953,0.11219272060745543,0.15007067957709264,0.07585112215539112,0.1324986924866187,0.04734273051902644
1.0070152217444257,0.09964098937742749,0.12351237306894788,0.06985230351433948,0.1050670810802548,0.04695207645527318
1.007062303769556,0.08648287672211809,0.09926945171505837,0.06302251331950957,0.08036262359718488,0.04523436030858565
1.0071093857946865,0.07315337862299943,0.07874689602232891,0.053521194673379444,0.05959800365768456,0.04013106069170652
1.0071564678198168,0.05967551136841471,0.06331733989238529,0.042771215350936226,0.04430208953007209,0.03272097790671765
1.0072035498449472,0.046352747241279996,0.049326069841214015,0.029687677967592516,0.032573804151112745,0.02231642830204236
1.0072506318700776,0.03458526276589038,0.04098097366352918,0.01916866027493343,0.027023718913001774,0.013163042093384605
1.007297713895208,0.02727830692374265,0.03935107205646728,0.01473006896934623,0.0274633175631096,0.008727057972473173
1.0073447959203383,0.0280866607277734,0.04747393695902344,0.01711698325886342,0.03580296425504914,0.009338440134936711
1.0073918779454687,0.03925806445151868,0.0696509687687485,0.028584290137595406,0.05608594156942145,0.016383124831116654
1.007438959970599,0.059562255279517966,0.09843934761938142,0.043832242766228824,0.08153709763976123,0.026113367690451583
1.0074860419957294,0.08449757331606145,0.12590241824532383,0.058037587268334905,0.10617705804768837,0.03506060881216963
1.0075331240208598,0.10858230355013457,0.14755977969768458,0.06858033205585247,0.1274593645636224,0.04115358618098509
1.0075802060459902,0.12742598805780986,0.160658219793092,0.07621925524513734,0.140451473079796,0.04610253469995957
1.0076272880711206,0.13840784538629322,0.16269063330768077,0.07904744927672683,0.14348685509584283,0.04830147984706615
1.007674370096251,0.14057521646913557,0.15609389087196557,0.0769603579802706,0.14035364577592244,0.04685866753024325
1.0077214521213813,0.1345761316442056,0.14269038626615266,0.07084930100861353,0.13016643992591725,0.04285343045651494
1.0077685341465117,0.12269802495893224,0.12270546741535882,0.062425783036096825,0.11300018916687916,0.038003314885787925
1.007815616171642,0.10844877640211482,0.10178998692848341,0.054884533548136764,0.09361797097411063,0.03451667566743226
