freq,gls,usurper,pdc_unbiased,shape_periodogram,shift_periodogram
1.0,0.02176245538732735,0.020249812875062907,-0.007335655112181927,5.558580566807542e-05,-0.0073308712900809194
1.0000470820251304,0.05134779247241603,0.03185220512174034,0.016081221596065367,0.007251404181045329,0.015743415151904614
1.0000941640502607,0.09689124580742478,0.04384923912728996,0.05094334186944231,0.021117054899023296,0.049968787840382105
1.0001412460753911,0.14848755125694818,0.05608861014716583,0.08456655871201842,0.034787502221608015,0.08300277835349357
1.0001883281005215,0.19664060203551523,0.06638985724154059,0.10917973127593883,0.04804298073652108,0.10709628483984662
1.0002354101256519,0.23592916525893703,0.07285173962115907,0.12678225514793529,0.0573021675732845,0.12437195598244888
1.0002824921507822,0.26363730657080775,0.07454006771670811,0.13936052532630389,0.06162481786250637,0.13681812044074743
1.0003295741759126,0.2780607972143743,0.07577687340069898,0.14663287491158739,0.06423637655763341,0.14401564650417137
1.000376656201043,0.27778293516045677,0.07669036861875553,0.14742341655727248,0.0652802195203863,0.1447725304941225
1.0004237382261734,0.2619162710265795,0.07425909594953964,0.139633635428265,0.06505978937066936,0.13697239087737048
1.0004708202513037,0.23107843684954268,0.06842460653704023,0.12167319492364326,0.06253344855990631,0.11906378627656994
1.0005179022764341,0.1884924826566669,0.06065378668458914,0.09811663264576473,0.058468890377791696,0.09561914520245848
1.0005649843015645,0.1401213853463462,0.055026758204078104,0.07552593926328457,0.05431188236640542,0.07316399069972603
1.0006120663266949,0.09311329616242185,0.05188185593695981,0.056936636782797936,0.04956777517482655,0.05475380893378938
1.0006591483518252,0.05338098213176131,0.05258685988278401,0.04656239048066332,0.04337872215196941,0.04463549205171606
1.0007062303769556,0.024158292773911582,0.05314206059693555,0.0379052596807291,0.035709917799351065,0.03630634421692913
1.000753312402086,0.006389706849983347,0.05234953834001919,0.024925530867037873,0.026578336634649154,0.023728486147251385
1.0008003944272164,4.4957735270936574e-05,0.05338559860261669,0.013623927240606612,0.018269601516831047,0.012800427254515174
1.0008474764523467,0.004476680458159687,0.05149491661825767,0.005279248516488982,0.015803405269933825,0.004571909646623171
1.000894558477477,0.016631009383087918,0.05372316768434099,0.00604487589630294,0.018246369312801606,0.005228463607419044
1.0009416405026075,0.030279800796216314,0.061682865837930846,0.01614856324889533,0.025048255444546176,0.015023918010229181
1.0009887225277379,0.04019506929021177,0.07290097339548614,0.031662352407458065,0.03710587296995253,0.030004110644878287
1.0010358045528682,0.045271217739530065,0.08311405165639633,0.049643587368788454,0.051503958970351836,0.047375229841449505
1.0010828865779986,0.04665854735345898,0.08659319430947644,0.06394396252727896,0.06580889936588072,0.06110377405863153
1.001129968603129,0.04557434040645729,0.08714857419062265,0.06951556918541625,0.07679202771437403,0.06625077471049713
1.0011770506282593,0.04281463251624272,0.0820266583092595,0.06676401531502141,0.08255778846130718,0.06326552815187693
1.0012241326533897,0.03911406922799136,0.07309182015342693,0.05756222886158259,0.08433947673566554,0.05396436671347427
1.00127121467852,0.035734840091298535,0.0631254408123758,0.04469056838221148,0.08358765720590317,0.041083390623838645
1.0013182967036505,0.034632288517627896,0.05501772413731061,0.03354469161607427,0.08308050009623218,0.029926223822824477
1.0013653787287808,0.03686446430802818,0.055602966433155605,0.03235087082016887,0.08337880332001137,0.0287164646517832
1.0014124607539112,0.040499198873267514,0.06245454793080363,0.04235422606047071,0.08508190315398842,0.03867847665346531
1.0014595427790416,0.04245011553894062,0.06969391614813296,0.05148956578485458,0.0858230580171275,0.04781262060799606
1.001506624804172,0.04142424671447975,0.07354020080819482,0.057489670337512934,0.08201375119490009,0.053984423419460754
1.0015537068293023,0.03772147907862947,0.07335083803882159,0.05838903434484734,0.07469135326402868,0.05517991703373469
1.0016007888544327,0.032149333674356434,0.07099758099576654,0.05286952532393206,0.06300411922657205,0.05012628376529117
1.001647870879563,0.025799799790141527,0.06633316989601407,0.040386054375886556,0.04760252942222014,0.038277711134968063
1.0016949529046935,0.020580986012262138,0.05752905919203467,0.02276083148008517,0.03132624346835337,0.021356870700983483
1.0017420349298238,0.01993155776046648,0.05114950799242679,0.008396000375120035,0.018945704032341283,0.007546691982347763
1.0017891169549542,0.027489951613850306,0.04992843678938663,0.00883020356959996,0.016049416550353062,0.008108938438057081
1.0018361989800846,0.042074300128446054,0.05034093773327992,0.022145335055818467,0.020908876328950842,0.021198994804426982
1.001883281005215,0.05845891480384451,0.05524787752174609,0.04104344236602053,0.031080934336256194,0.03964336134978498
1.0019303630303453,0.07582159493280267,0.06288148785489621,0.05832937685591873,0.041802984536998745,0.05647143756333132
1.0019774450554757,0.09824195100672209,0.06945999241553644,0.07041397317164165,0.0518471729086644,0.06814700884613277
1.002024527080606,0.1303669711588208,0.06791422344317673,0.07896421651578898,0.059400770832710816,0.07640322303785696
1.0020716091057364,0.17464242099810953,0.061765095352317216,0.08832693698111686,0.06439526128401887,0.0855855138806137
1.0021186911308668,0.22917237164395338,0.06378281143647789,0.11355266104308831,0.06867586019804597,0.11070345370933232
1.0021657731559972,0.2864808872447173,0.07110964745866796,0.14880372324738836,0.07338456079086426,0.1458870086429429
1.0022128551811276,0.335488571803669,0.07863190152255285,0.17945522269565434,0.0776660297968315,0.17650872692898426
1.002259937206258,0.3667004160945303,0.08366974827963106,0.20044309409803335,0.079939970728124,0.19751392006504745
1.0023070192313883,0.37630521047742305,0.08555828125155084,0.20989430295355302,0.07958605129789423,0.20701283973176487
1.0023541012565187,0.3658732131217113,0.08403089192497568,0.20800353236518512,0.07667088768261128,0.2051912367083756
1.002401183281649,0.3393357840705059,0.0799314643247092,0.19716291122807472,0.07080561538941281,0.19447549299623088
1.0024482653067794,0.30043566038503033,0.0739961429398642,0.1783931936762516,0.061477958552210055,0.17593854036327283
1.0024953473319098,0.25183659939415354,0.06560014031041903,0.15384153094853617,0.04827053894607691,0.15179403459805105
1.0025424293570402,0.1956066522565673,0.05374697742923153,0.12081929242955049,0.0333372541228816,0.11931642744477117
1.0025895113821706,0.13475970805500284,0.03748231062384986,0.07564140824241966,0.017440361575009857,0.07480939643485186
1.002636593407301,0.07582916802294695,0.02138136244157932,0.025728531183742454,0.005026609950476752,0.02548012801845974
1.0026836754324313,0.03145358980808763,0.018694772637606116,-0.0040036080406334615,0.0014458639300212164,-0.004063942562737945
1.0027307574575617,0.01779891286180085,0.028509423699924204,-0.006351274616742859,0.010568311047313783,-0.006815273135915663
1.002777839482692,0.04358985242398123,0.03051023153749678,0.006591376950054447,0.027773906569663786,0.005351994631398106
1.0028249215078224,0.1037077589167159,0.03513275350914737,0.04281328660270074,0.04339406758025123,0.040884963804644445
1.0028720035329528,0.18101238562213362,0.047555533113011354,0.0979436666785688,0.05665249939899233,0.09551580074401504
1.0029190855580832,0.25636899888384335,0.06679334989308158,0.15380629462607742,0.06475530682518231,0.15118799820601106
1.0029661675832136,0.31832235074100634,0.08482857773964605,0.19704252226634572,0.06474741396475775,0.19453238544958318
1.003013249608344,0.36361141655314383,0.09357230071823287,0.228525784613192,0.06505343117028473,0.22609401677337687
1.0030603316334743,0.39341420767750745,0.09859913019734708,0.24979870354304085,0.06514057299861374,0.24742751813698047
1.0031074136586047,0.4102870696014962,0.09997621077551698,0.26258314989231946,0.06357462340034832,0.26028940744750934
1.003154495683735,0.41662904201390033,0.09955604819435022,0.266777273312063,0.06111104712273578,0.2645565534071108
1.0032015777088654,0.41405085665469693,0.09718163615671749,0.26326150551395927,0.05728861526380418,0.26112892775292856
1.0032486597339958,0.4030953535584088,0.09289196446511394,0.251751202986526,0.05193883669052357,0.24973842929404058
1.0032957417591262,0.38301151602067063,0.08660223412097731,0.2324239377319079,0.0451505018914041,0.23058036632981305
1.0033428237842565,0.3514583105172215,0.07795065893134002,0.2047530276495091,0.03672598437419668,0.20315800431063505
1.003389905809387,0.3042863356687068,0.06668682439174406,0.16911475512504195,0.02696530333223734,0.16786317142791063
1.0034369878345173,0.2364892670841809,0.05341463719442673,0.12615890065588273,0.0162407929651097,0.12534725327184162
1.0034840698596477,0.14805992805189566,0.03883757466970618,0.07745804013496241,0.00570393175818756,0.07713176902747695
1.003531151884778,0.05937981673678241,0.028069628445487788,0.035632586371168055,-0.0017810700584501413,0.03567648955054172
1.0035782339099084,0.016571701488668728,0.02575264664541546,0.012038086514572617,-0.0028340001759875884,0.012152219108963016
1.0036253159350388,0.04141534161646615,0.034772717484779746,0.014399178728297872,0.005391200753543504,0.014145493141991452
1.0036723979601692,0.0978579156313711,0.04956920189381703,0.03595348541122598,0.01922001612166755,0.03507141779099881
1.0037194799852995,0.14599333246590304,0.06655022966185174,0.06503465797160808,0.03590324030128748,0.06342471213863535
1.00376656201043,0.17300879075255565,0.07869529274767606,0.0922030709843016,0.052419510513790235,0.08993327930284162
1.0038136440355603,0.18229222765708752,0.0884912477368952,0.11374971918924169,0.0640392535558626,0.11106991978430301
1.0038607260606907,0.18262972424027749,0.09473370016082766,0.12736778710133306,0.07398302722240761,0.12436728706480742
1.003907808085821,0.18292620727983336,0.096294135853881,0.13485525602086357,0.08354862777730346,0.13155929152584622
1.0039548901109514,0.18798821740501145,0.09689051769903907,0.13913083302593265,0.0886262580610274,0.13568976149400816
1.0040019721360818,0.19658928748535154,0.09605618485550374,0.1397247738744464,0.09003268870538375,0.13624221073261145
1.0040490541612122,0.20361099360789395,0.09512428094230427,0.1356935801867525,0.08770788131466643,0.13226673052983298
1.0040961361863425,0.20356945018764083,0.09056263394050498,0.1287855413388881,0.08405712111749966,0.12544944770531882
1.004143218211473,0.19261735903368254,0.08087055380071502,0.11776025800915435,0.07786969396970382,0.11459585500811517
1.0041903002366033,0.1692114287165738,0.06859408981772962,0.09836742477706704,0.06884817776329569,0.09547706107061159
1.0042373822617336,0.13469585530973552,0.054794083170067724,0.07519967777083232,0.05755545144683016,0.07270726275468911
1.004284464286864,0.094068350002802,0.042207720496982126,0.051842634052145065,0.04396737225368842,0.04989213865146759
1.0043315463119944,0.0558705414627791,0.03193672075553106,0.03082107495389939,0.029338905807129494,0.029500501390456967
1.0043786283371248,0.029785725493520713,0.02618620659563335,0.019809015244991575,0.016239134223422852,0.019070263485476094
1.0044257103622551,0.022326134922130727,0.02476639928709483,0.01684685304795892,0.006511664676375281,0.016541118522361276
1.0044727923873855,0.03362727707623793,0.027072680754372636,0.01768087969631584,0.00237842620515501,0.0175577367859761
1.004519874412516,0.057935866130881315,0.03244270084754919,0.0238553638180855,0.0036109401422325577,0.023671507985425642
1.0045669564376463,0.08691312585069338,0.04089295159873146,0.038233159934289905,0.010604741254186088,0.037726985845975405
1.0046140384627766,0.11302745450084833,0.05116624029199626,0.05542672474865837,0.022848426087185996,0.05437483016922412
1.004661120487907,0.13143773576861661,0.060140065388399666,0.07126698378066398,0.03641056053460469,0.06963579028408776
1.0047082025130374,0.140315951549541,0.06640036958420277,0.0817840112464661,0.049447980375431945,0.07962309300182774
1.0047552845381678,0.14016084842095028,0.06821671612254356,0.0846685751900148,0.060152767634611574,0.08208608989756112
1.0048023665632981,0.13271042804166153,0.0662898768362103,0.08028160564993014,0.06664216090576884,0.07743803751787479
1.0048494485884285,0.1199532079956697,0.06245046564467375,0.06958311394397716,0.07202098134396955,0.06650622838406861
1.0048965306135589,0.10352759540252561,0.05643409794471877,0.05738407400153901,0.0741540783422526,0.054194270112078544
1.0049436126386893,0.08458770500586026,0.04772434965031664,0.04469505929439128,0.07268802937752222,0.041537465413361084
1.0049906946638196,0.06411017510052013,0.040133405257019396,0.03435472552873721,0.06857774373383776,0.03135006460077975
1.00503777668895,0.043500849939608656,0.03270364683993965,0.022887706523455283,0.062054044369876264,0.02014651055309076
1.0050848587140804,0.02497562650004661,0.026297574247864768,0.013888116903115118,0.05308505345116563,0.011530732568440597
1.0051319407392107,0.011013597455985432,0.022838279433111883,0.011624969459267675,0.043099453719266836,0.009706359184739905
1.0051790227643411,0.003334338693202587,0.02034081635760374,0.009001101837417943,0.032539857346384655,0.007549429498460908
1.0052261047894715,0.0027948227754708652,0.015527795632897523,0.005716764128480125,0.023219493519155414,0.004679936088503996
1.0052731868146019,0.010164673003053454,0.01070511056922506,0.005314070387151807,0.014479345472586603,0.004665489295474199
1.0053202688397322,0.026566180290056158,0.007925540844511402,0.008193549268036414,0.005609934976560701,0.007936143523796114
1.0053673508648626,0.05291846997433676,0.007794185582854166,0.011498759854167706,0.0013223849696607148,0.011428608358139187
1.005414432889993,0.08828034555015178,0.011471465819715816,0.017065936640710815,0.0003970138723959065,0.01703141704211688
1.0054615149151234,0.12763762777320273,0.015314464196762837,0.025647230237824777,0.002051573638437857,0.02553079717641805
1.0055085969402537,0.16155770115500132,0.019493994561346897,0.038076850744054896,0.00828893845392795,0.03767275205498189
1.0055556789653841,0.18078890709766565,0.023799100386648276,0.05135766337998839,0.018245930702926863,0.050507214060544814
1.0056027609905145,0.18307418566708303,0.026362659677741,0.06056084021799014,0.02953626275401491,0.0592205971362475
1.0056498430156449,0.1741533504439713,0.02770694152594591,0.06655908741414072,0.03761324052196345,0.06487755741752207
1.0056969250407752,0.16242605985016223,0.027724516681143882,0.07063087442771013,0.04388051367437955,0.068690181793383
1.0057440070659056,0.15418810481596457,0.0270071529707422,0.07107575192890922,0.046537575883140433,0.06902608090263396
1.005791089091036,0.1523552110015489,0.02520205938899004,0.0660360559428213,0.0460835041710846,0.0640025499457418
1.0058381711161664,0.15691036178882456,0.024190388230958346,0.06130313889977103,0.044946217404930267,0.05931475966270688
1.0058852531412967,0.16538784679386007,0.025824413612884622,0.06307528196508604,0.043745088327149725,0.061137503578344014
1.005932335166427,0.17322460684996496,0.024957726919966505,0.06323184659303546,0.04097867566319573,0.061409371757264936
1.0059794171915575,0.17475929729964576,0.02276667346753436,0.05880087400333982,0.03636820937914177,0.05717160133741041
1.0060264992166879,0.16548577922015562,0.020500274246853415,0.05204155960234529,0.030825740233383084,0.05064894508786513
1.0060735812418182,0.1445721481217929,0.018017685401484955,0.04234591607178599,0.02380867927138048,0.04125987686724121
1.0061206632669486,0.11538472372115638,0.01577268984027563,0.03266210113426135,0.015386098908385885,0.031950519414890396
1.006167745292079,0.08342022676517998,0.012914873148499113,0.0259645785337829,0.0077389664207473475,0.025595902210706692
1.0062148273172093,0.053714935068683495,0.011864410611388118,0.01794830890199036,0.0024306818139786866,0.017822583730263138
1.0062619093423397,0.029620632829972474,0.010696697189513788,0.006428025048282717,-0.0008093286106906317,0.006457654809229926
1.00630899136747,0.012907514843990737,0.010598854413991245,-0.004503164505502606,-0.00037687779671494485,-0.004481953099118719
1.0063560733926005,0.004292560353454192,0.011336879135632008,-0.010519166817943732,0.002797076589624587,-0.010633158934886486
1.0064031554177308,0.0038095921685766332,0.01458925163511517,-0.007972360122875525,0.007076759751307769,-0.00827932634722646
1.0064502374428612,0.010924293923755681,0.02229864258196749,0.0013341291502741227,0.01669287501377301,0.000590627972415027
1.0064973194679916,0.02453035587728399,0.029018745118578326,0.011333716656649779,0.027545914061064908,0.01010169575340826
1.006544401493122,0.042966387475684646,0.03438346970180665,0.020787738978896356,0.03800184351834352,0.01909219007106317
1.0065914835182523,0.06411092062196938,0.037130293988356704,0.03329944681240632,0.04440673502105096,0.03132591624074264
1.0066385655433827,0.08556714248621351,0.0402907447411324,0.049462130528264495,0.04697777028467471,0.0473839409524034
1.006685647568513,0.10493697207975199,0.04333527502315274,0.06485229624100503,0.046660148924809214,0.06279439544769637
1.0067327295936435,0.12014720761669652,0.044989624474788575,0.07640706666955516,0.04458136741761555,0.07444004018718337
1.0067798116187738,0.12974860817624662,0.0444995932772021,0.08294186479002422,0.04104338574012937,0.08112162080164564
1.0068268936439042,0.1331160769266914,0.04502747570837,0.08436945777741765,0.03593591070602904,0.08275844537460081
1.0068739756690346,0.13051634907150206,0.04209912726130205,0.08386978816652868,0.03025309145908333,0.08249360289942731
1.006921057694165,0.12301693370584733,0.03616572679101819,0.08185258015702256,0.025211972623625883,0.08068764201365826
1.0069681397192953,0.11219272060745543,0.028753658387653473,0.07585112215539112,0.019584335831398205,0.07492738690801475
1.0070152217444257,0.09964098937742749,0.022250962809902623,0.06985230351433948,0.014071166852016512,0.06916920065204922
1.007062303769556,0.08648287672211809,0.016999621891614948,0.06302251331950957,0.009408360159594098,0.06254729921120765
1.0071093857946865,0.07315337862299943,0.014216061789274944,0.053521194673379444,0.005526221401273998,0.05322453803632861
1.0071564678198168,0.05967551136841471,0.012441075184986961,0.042771215350936226,0.0021869525576138403,0.04263210997252857
1.0072035498449472,0.046352747241279996,0.009366174068944723,0.029687677967592516,-0.000511465343657807,0.0296810563685735
1.0072506318700776,0.03458526276589038,0.007965401903059959,0.01916866027493343,-0.0011906314337298777,0.01920263449093556
1.007297713895208,0.02727830692374265,0.007855897568373087,0.01473006896934623,-0.0011170594370725137,0.014765166764979668
1.0073447959203383,0.0280866607277734,0.010226112636781902,0.01711698325886342,0.0004335229665708137,0.01708079082105705
1.0073918779454687,0.03925806445151868,0.017063554248835003,0.028584290137595406,0.005108892843406983,0.028329513590426687
1.007438959970599,0.059562255279517966,0.025454597798617026,0.043832242766228824,0.011084835325929625,0.043300129901445605
1.0074860419957294,0.08449757331606145,0.03277272142649576,0.058037587268334905,0.017153074876257526,0.057229832329940236
1.0075331240208598,0.10858230355013457,0.03784604266518479,0.06858033205585247,0.02359452020383382,0.0674896341950447
1.0075802060459902,0.12742598805780986,0.041725464274300586,0.07621925524513734,0.027895919219029456,0.07494348599628137
1.0076272880711206,0.13840784538629322,0.04258234210832193,0.07904744927672683,0.030335104459886245,0.07766878659323039
1.007674370096251,0.14057521646913557,0.04086995508637081,0.0769603579802706,0.03205858240744887,0.07551015320459749
1.0077214521213813,0.1345761316442056,0.03834938462210689,0.07084930100861353,0.031539864135338026,0.06942181600498436
1.0077685341465117,0.12269802495893224,0.033956858097045316,0.062425783036096825,0.028899880828647192,0.061111984495430885
