freq,gls,usurper,pdc_unbiased,shape_periodogram,shift_periodogram
1.0,0.02176245538732735,0.01635517658276519,-0.007335655112181927,0.009214818092521277,-0.00760402625216275
1.0000470820251304,0.05134779247241603,0.025197322679305155,0.016081221596065367,0.012687852984978907,0.015702176997315416
1.0000941640502607,0.09689124580742478,0.03712015599708575,0.05094334186944231,0.022059022236977005,0.050286685823432965
1.0001412460753911,0.14848755125694818,0.048863228681649905,0.08456655871201842,0.036052306608741806,0.08353407036117289
1.0001883281005215,0.19664060203551523,0.06048976140368143,0.10917973127593883,0.05389658446788823,0.10772909623161754
1.0002354101256519,0.23592916525893703,0.07026509831063842,0.12678225514793529,0.06846128323870002,0.1250493847002675
1.0002824921507822,0.26363730657080775,0.07661938912869241,0.13936052532630389,0.07765202002759936,0.1374880166137549
1.0003295741759126,0.2780607972143743,0.08079778006438382,0.14663287491158739,0.08294699110719636,0.14469429362035294
1.000376656201043,0.27778293516045677,0.08209704329950208,0.14742341655727248,0.08608391618712763,0.14543618819646376
1.0004237382261734,0.2619162710265795,0.07964709528130709,0.139633635428265,0.08629443938969002,0.13761035819342807
1.0004708202513037,0.23107843684954268,0.07391175692186934,0.12167319492364326,0.08297770439972953,0.11963834931377522
1.0005179022764341,0.1884924826566669,0.06615661110872666,0.09811663264576473,0.07779384950880586,0.09610534597033023
1.0005649843015645,0.1401213853463462,0.05995366350052158,0.07552593926328457,0.07240260332865792,0.07357187568021448
1.0006120663266949,0.09311329616242185,0.05516484346790664,0.056936636782797936,0.06582300377199767,0.05510269145832867
1.0006591483518252,0.05338098213176131,0.05238834536420132,0.04656239048066332,0.057017629780994304,0.0449420946038931
1.0007062303769556,0.024158292773911582,0.04844286497668782,0.0379052596807291,0.04556794926849972,0.03658825008306836
1.000753312402086,0.006389706849983347,0.04450114027507339,0.024925530867037873,0.03221240825991775,0.023979810800114996
1.0008003944272164,4.4957735270936574e-05,0.04178882450857104,0.013623927240606612,0.021081928202500547,0.013000505405522821
1.0008474764523467,0.004476680458159687,0.03878100830096489,0.005279248516488982,0.016876575251901064,0.004780877548925898
1.000894558477477,0.016631009383087918,0.04261775938030868,0.00604487589630294,0.019519027139970467,0.005468759995641863
1.0009416405026075,0.030279800796216314,0.05157827073248421,0.01614856324889533,0.0280234701111444,0.015322984075373268
1.0009887225277379,0.04019506929021177,0.06295624060187897,0.031662352407458065,0.042106217959245976,0.030437955653341123
1.0010358045528682,0.045271217739530065,0.07206247797509846,0.049643587368788454,0.059217892111509476,0.047969176034381764
1.0010828865779986,0.04665854735345898,0.07949238582683629,0.06394396252727896,0.07515147324804644,0.061891624910192046
1.001129968603129,0.04557434040645729,0.08418183135740716,0.06951556918541625,0.08704280726446381,0.06719513090888714
1.0011770506282593,0.04281463251624272,0.08426764195987296,0.06676401531502141,0.0922808511636401,0.06430949441239446
1.0012241326533897,0.03911406922799136,0.07989339018247692,0.05756222886158259,0.09174514443736596,0.05508112181333042
1.00127121467852,0.035734840091298535,0.07255410157279595,0.04469056838221148,0.08793410781650252,0.04225348314899282
1.0013182967036505,0.034632288517627896,0.06634569823639874,0.03354469161607427,0.0844295852237508,0.031159919846503622
1.0013653787287808,0.03686446430802818,0.06354462178205383,0.03235087082016887,0.08270440875856441,0.030008610628215283
1.0014124607539112,0.040499198873267514,0.06497125364864409,0.04235422606047071,0.08382802663391298,0.040015195515861836
1.0014595427790416,0.04245011553894062,0.06875935552014478,0.05148956578485458,0.0867549031466586,0.04910792936521285
1.001506624804172,0.04142424671447975,0.07057563710140366,0.057489670337512934,0.08540826656522481,0.055163606156782466
1.0015537068293023,0.03772147907862947,0.07053141117203438,0.05838903434484734,0.0783818447522359,0.056240356592454105
1.0016007888544327,0.032149333674356434,0.06614636943888175,0.05286952532393206,0.06643129132874441,0.05101147120696974
1.001647870879563,0.025799799790141527,0.05736644622993197,0.040386054375886556,0.04946176889779984,0.03896366282176927
1.0016949529046935,0.020580986012262138,0.04501636008243553,0.02276083148008517,0.03132348489327477,0.021840326691505506
1.0017420349298238,0.01993155776046648,0.03815159024574455,0.008396000375120035,0.01841563979043871,0.007851660038256067
1.0017891169549542,0.027489951613850306,0.03714784397203652,0.00883020356959996,0.016872000980939515,0.008330969580583113
1.0018361989800846,0.042074300128446054,0.03907111225198555,0.022145335055818467,0.02300547898563053,0.021464709178196
1.001883281005215,0.05845891480384451,0.047368004097236134,0.04104344236602053,0.03541256578239932,0.04001089357248163
1.0019303630303453,0.07582159493280267,0.05580557454550947,0.05832937685591873,0.05038974251319117,0.056900319669937256
1.0019774450554757,0.09824195100672209,0.06109889596057525,0.07041397317164165,0.06690426282799401,0.06858135813511343
1.002024527080606,0.1303669711588208,0.060012275552708064,0.07896421651578898,0.07811877718445294,0.07688510444144246
1.0020716091057364,0.17464242099810953,0.05673204209575575,0.08832693698111686,0.08551431961272551,0.08611340746656156
1.0021186911308668,0.22917237164395338,0.05856966334277475,0.11355266104308831,0.09125158805442335,0.11132728725416473
1.0021657731559972,0.2864808872447173,0.0638662731814159,0.14880372324738836,0.09700431878192627,0.14665458472678303
1.0022128551811276,0.335488571803669,0.06880741509374154,0.17945522269565434,0.10198220186308576,0.1774155563164158
1.002259937206258,0.3667004160945303,0.07123681258953422,0.20044309409803335,0.10456323729372344,0.1985082615402016
1.0023070192313883,0.37630521047742305,0.07081714714205284,0.20989430295355302,0.10399749082409673,0.2080228215021587
1.0023541012565187,0.3658732131217113,0.0679633999490993,0.20800353236518512,0.10051575307210654,0.2061457569082754
1.002401183281649,0.3393357840705059,0.06439572476229864,0.19716291122807472,0.09474076414040986,0.19529591291735898
1.0024482653067794,0.30043566038503033,0.05992225971003444,0.1783931936762516,0.0838813071841289,0.17656746812327562
1.0024953473319098,0.25183659939415354,0.05298623152091896,0.15384153094853617,0.06675483020932993,0.15221155254674137
1.0025424293570402,0.1956066522565673,0.04174621271103431,0.12081929242955049,0.04520050066084852,0.11958633857007984
1.0025895113821706,0.13475970805500284,0.03019877160634903,0.07564140824241966,0.01984011596554645,0.0750444494726333
1.002636593407301,0.07582916802294695,0.022750265442427833,0.025728531183742454,0.00022781934341246622,0.025710690521689224
1.0026836754324313,0.03145358980808763,0.02085034658307381,-0.0040036080406334615,-0.00030009824722812035,-0.003993039769093676
1.0027307574575617,0.01779891286180085,0.027578549777938978,-0.006351274616742859,0.01929422911395903,-0.00691772235739506
1.002777839482692,0.04358985242398123,0.036452613505641454,0.006591376950054447,0.04681396669395338,0.005216284350936909
1.0028249215078224,0.1037077589167159,0.05382445903740463,0.04281328660270074,0.07127816994266561,0.040805708293851155
1.0028720035329528,0.18101238562213362,0.07413794481145648,0.0979436666785688,0.0861160462886546,0.09575461075739317
1.0029190855580832,0.25636899888384335,0.09093211696384282,0.15380629462607742,0.09369652322753867,0.1517309140412208
1.0029661675832136,0.31832235074100634,0.10051191627665224,0.19704252226634572,0.09712668056564738,0.19515169744865488
1.003013249608344,0.36361141655314383,0.10609775866122811,0.228525784613192,0.09842967811616542,0.22680082905517346
1.0030603316334743,0.39341420767750745,0.10784209150072738,0.24979870354304085,0.09677260551190625,0.24820177334595536
1.0031074136586047,0.4102870696014962,0.1067271070158144,0.26258314989231946,0.09407486875379356,0.2610659406531587
1.003154495683735,0.41662904201390033,0.1040238082552924,0.266777273312063,0.08995086321677238,0.2652972125177356
1.0032015777088654,0.41405085665469693,0.09964221953844957,0.26326150551395927,0.0842607100924738,0.26179355406202137
1.0032486597339958,0.4030953535584088,0.09358151041617267,0.251751202986526,0.07688769831663285,0.25029028898701283
1.0032957417591262,0.38301151602067063,0.08567734839557137,0.2324239377319079,0.0678237099277312,0.2309939999251064
1.0033428237842565,0.3514583105172215,0.0756425028998826,0.2047530276495091,0.05696491979421496,0.20341131174366603
1.003389905809387,0.3042863356687068,0.06307262447268444,0.16911475512504195,0.04459864618523463,0.16794860978598922
1.0034369878345173,0.2364892670841809,0.048665153212241255,0.12615890065588273,0.03111644485288215,0.12527046649316445
1.0034840698596477,0.14805992805189566,0.03409854937893085,0.07745804013496241,0.017601567018371143,0.07692301917593128
1.003531151884778,0.05937981673678241,0.024350763077410808,0.035632586371168055,0.007496331379454381,0.0353979115941343
1.0035782339099084,0.016571701488668728,0.023146156434252607,0.012038086514572617,0.0038192247528062197,0.01192055815195432
1.0036253159350388,0.04141534161646615,0.03257862900969823,0.014399178728297872,0.01064236674877758,0.0140805614147048
1.0036723979601692,0.0978579156313711,0.04961600696714751,0.03595348541122598,0.026908933593209845,0.035160044058285184
1.0037194799852995,0.14599333246590304,0.07109309236765639,0.06503465797160808,0.0441491701744611,0.06377700908931037
1.00376656201043,0.17300879075255565,0.08715860549342593,0.0922030709843016,0.05959516169332405,0.09059078076156378
1.0038136440355603,0.18229222765708752,0.09825914718018548,0.11374971918924169,0.06953792820966939,0.11196063862583384
1.0038607260606907,0.18262972424027749,0.10346325961495001,0.12736778710133306,0.07611810373955277,0.1254845359457641
1.003907808085821,0.18292620727983336,0.10657613630764332,0.13485525602086357,0.08172004566474741,0.132893165644047
1.0039548901109514,0.18798821740501145,0.10916225752695821,0.13913083302593265,0.08639362238773353,0.13710377192905526
1.0040019721360818,0.19658928748535154,0.10811644560027037,0.1397247738744464,0.08891050992046236,0.13765795381170406
1.0040490541612122,0.20361099360789395,0.10332220406072944,0.1356935801867525,0.09029290949569445,0.13358559161874514
1.0040961361863425,0.20356945018764083,0.09518551239976308,0.1287855413388881,0.08859965000320971,0.12667614360061435
1.004143218211473,0.19261735903368254,0.0859291612191583,0.11776025800915435,0.08571387949829366,0.11565799314965822
1.0041903002366033,0.1692114287165738,0.07394346517832152,0.09836742477706704,0.07842049649334759,0.09634339559262724
1.0042373822617336,0.13469585530973552,0.06010101768145236,0.07519967777083232,0.06663225525555413,0.07338425946620837
1.004284464286864,0.094068350002802,0.045304153584860986,0.051842634052145065,0.052556787389006085,0.05034860739172979
1.0043315463119944,0.0558705414627791,0.03143859002632192,0.03082107495389939,0.03640529910990128,0.029757277580181034
1.0043786283371248,0.029785725493520713,0.02219864953741332,0.019809015244991575,0.02116931859824699,0.019181941279081113
1.0044257103622551,0.022326134922130727,0.017763063576365076,0.01684685304795892,0.009647862789710443,0.01655644693881142
1.0044727923873855,0.03362727707623793,0.01753279646063432,0.01768087969631584,0.003876258699130673,0.01755930272890932
1.004519874412516,0.057935866130881315,0.021096652883870793,0.0238553638180855,0.00393805031347686,0.023729393053830528
1.0045669564376463,0.08691312585069338,0.028061730252583208,0.038233159934289905,0.011049938617348695,0.037894363955805165
1.0046140384627766,0.11302745450084833,0.037033210890690574,0.05542672474865837,0.025152106526719623,0.054683005439817994
1.004661120487907,0.13143773576861661,0.04642914391515113,0.07126698378066398,0.04188570818620585,0.07007370745303294
1.0047082025130374,0.140315951549541,0.054740987654293194,0.0817840112464661,0.0583124548963148,0.08018470056636279
1.0047552845381678,0.14016084842095028,0.057734349858428485,0.0846685751900148,0.07186295779463168,0.08275139607323034
1.0048023665632981,0.13271042804166153,0.05714710210901845,0.08028160564993014,0.08151365066195379,0.07812846157458579
1.0048494485884285,0.1199532079956697,0.053515366053102705,0.06958311394397716,0.08815753751703453,0.06723680698528654
1.0048965306135589,0.10352759540252561,0.05091879813256779,0.05738407400153901,0.09131272678436199,0.05491275454549236
1.0049436126386893,0.08458770500586026,0.046878342156640315,0.04469505929439128,0.08953821053583375,0.042216761077374876
1.0049906946638196,0.06411017510052013,0.04296243205670449,0.03435472552873721,0.08370696275347808,0.03199205404258185
1.00503777668895,0.043500849939608656,0.03713627900830959,0.022887706523455283,0.07560817362178669,0.020713018882845463
1.0050848587140804,0.02497562650004661,0.03063854587166371,0.013888116903115118,0.06555463734865698,0.011978663732902252
1.0051319407392107,0.011013597455985432,0.024184209785015464,0.011624969459267675,0.05381347348314872,0.010050706856426688
1.0051790227643411,0.003334338693202587,0.01955596911905421,0.009001101837417943,0.03930266976514941,0.007846463855847556
1.0052261047894715,0.0027948227754708652,0.012852439547260322,0.005716764128480125,0.023414240514277214,0.005026467342260633
1.0052731868146019,0.010164673003053454,0.008493316006800679,0.005314070387151807,0.010256236797914261,0.0050101380966582265
1.0053202688397322,0.026566180290056158,0.007165383526045566,0.008193549268036414,0.0010539470642539372,0.008158982305395756
1.0053673508648626,0.05291846997433676,0.00786254962401861,0.011498759854167706,-0.003610225721789308,0.011600103469717502
1.005414432889993,0.08828034555015178,0.008761183151107388,0.017065936640710815,-0.0040497308299504275,0.01717784074291392
1.0054615149151234,0.12763762777320273,0.011279581769121255,0.025647230237824777,-0.00044531300579942065,0.025649221525421016
1.0055085969402537,0.16155770115500132,0.015424900918766488,0.038076850744054896,0.009188827603273669,0.03779206641028103
1.0055556789653841,0.18078890709766565,0.021078288187484043,0.05135766337998839,0.022289559265361535,0.0506944671394809
1.0056027609905145,0.18307418566708303,0.02484720246753191,0.06056084021799014,0.03622049087080482,0.05951316389559806
1.0056498430156449,0.1741533504439713,0.029295359243812078,0.06655908741414072,0.04897346380426008,0.06517600839672165
1.0056969250407752,0.16242605985016223,0.03177396960482604,0.07063087442771013,0.059694241539330256,0.06897847054685376
1.0057440070659056,0.15418810481596457,0.031460855689913164,0.07107575192890922,0.06618094791976613,0.06926244491987922
1.005791089091036,0.1523552110015489,0.028494483999430772,0.0660360559428213,0.06818478636129457,0.06416188269904081
1.0058381711161664,0.15691036178882456,0.026760360291434165,0.06130313889977103,0.06745703894471566,0.059436718390828744
1.0058852531412967,0.16538784679386007,0.026401569568524293,0.06307528196508604,0.06431522351395971,0.061292225036037117
1.005932335166427,0.17322460684996496,0.02511979620079372,0.06323184659303546,0.05887651700286937,0.06158798034174237
1.0059794171915575,0.17475929729964576,0.021300987373630342,0.05880087400333982,0.05089258580526771,0.05735904139099052
1.0060264992166879,0.16548577922015562,0.01694141631960368,0.05204155960234529,0.04282432823692396,0.050809964275878715
1.0060735812418182,0.1445721481217929,0.012779593409822158,0.04234591607178599,0.03384681009639136,0.041357545747451686
1.0061206632669486,0.11538472372115638,0.009026223947388813,0.03266210113426135,0.025418392501492127,0.031911209134080805
1.006167745292079,0.08342022676517998,0.007725268230144264,0.0259645785337829,0.018678422237145657,0.025408485532260647
1.0062148273172093,0.053714935068683495,0.009054665851029636,0.01794830890199036,0.01429571855923593,0.01752170976613908
1.0062619093423397,0.029620632829972474,0.01143908565168502,0.006428025048282717,0.012512069001000686,0.0060574269531774045
1.00630899136747,0.012907514843990737,0.014135160505622529,-0.004503164505502606,0.012268819559222228,-0.004862715259860609
1.0063560733926005,0.004292560353454192,0.018419282739454448,-0.010519166817943732,0.013971897208155615,-0.010926884733811364
1.0064031554177308,0.0038095921685766332,0.023675578969103828,-0.007972360122875525,0.015914652982080262,-0.008438394585011867
1.0064502374428612,0.010924293923755681,0.03213719421121835,0.0013341291502741227,0.021593439623195182,0.0006980849619607893
1.0064973194679916,0.02453035587728399,0.04056276566085495,0.011333716656649779,0.029457234753297368,0.010466391424802544
1.006544401493122,0.042966387475684646,0.04756379994428798,0.020787738978896356,0.036980413198970025,0.019704311457085347
1.0065914835182523,0.06411092062196938,0.05265742788055127,0.03329944681240632,0.0431765266250611,0.032045963485746246
1.0066385655433827,0.08556714248621351,0.05830724864198657,0.049462130528264495,0.04814763047667585,0.048084147810910235
1.006685647568513,0.10493697207975199,0.060908517529090545,0.06485229624100503,0.051316620792486944,0.06340624236032574
1.0067327295936435,0.12014720761669652,0.06096418272631738,0.07640706666955516,0.052324777564823774,0.07494919010990057
1.0067798116187738,0.12974860817624662,0.05727950039938154,0.08294186479002422,0.050613443953277916,0.08153517235820608
1.0068268936439042,0.1331160769266914,0.05326241856505266,0.08436945777741765,0.04647870574531445,0.08306849117428276
1.0068739756690346,0.13051634907150206,0.047946285509781035,0.08386978816652868,0.041676104792288476,0.08269098931416458
1.006921057694165,0.12301693370584733,0.04106985847063886,0.08185258015702256,0.03452729829748043,0.08085895397207556
1.0069681397192953,0.11219272060745543,0.03269905473515656,0.07585112215539112,0.02661125295478817,0.07506821740341423
1.0070152217444257,0.09964098937742749,0.024104210868477825,0.06985230351433948,0.019224561448670685,0.0692731232983676
1.007062303769556,0.08648287672211809,0.017487565972714236,0.06302251331950957,0.0138615833270791,0.06259567980792059
1.0071093857946865,0.07315337862299943,0.012599554663917337,0.053521194673379444,0.009992876484862342,0.053207819559187235
1.0071564678198168,0.05967551136841471,0.007932306259185506,0.042771215350936226,0.006680573012543819,0.042557548149680303
1.0072035498449472,0.046352747241279996,0.004643683024327509,0.029687677967592516,0.005490928185693923,0.029513848944485162
1.0072506318700776,0.03458526276589038,0.002907143433537039,0.01916866027493343,0.0060223391067177725,0.018983522550745317
1.007297713895208,0.02727830692374265,0.0033197760882253693,0.01473006896934623,0.006702722546135075,0.014526773772448612
1.0073447959203383,0.0280866607277734,0.0059093762531457865,0.01711698325886342,0.00936697772431147,0.01683469674742038
1.0073918779454687,0.03925806445151868,0.012741705904366542,0.028584290137595406,0.015751317534516668,0.028112297188634842
1.007438959970599,0.059562255279517966,0.022115915956823926,0.043832242766228824,0.023602432648381712,0.04313247935974603
1.0074860419957294,0.08449757331606145,0.030950576378355875,0.058037587268334905,0.03328122664742203,0.05706921832945153
1.0075331240208598,0.10858230355013457,0.03812800198109547,0.06858033205585247,0.04166717045353772,0.06739097147353652
1.0075802060459902,0.12742598805780986,0.04293505280873963,0.07621925524513734,0.04773170034796841,0.07487823865590154
1.0076272880711206,0.13840784538629322,0.045345603769677334,0.07904744927672683,0.05141669384547708,0.07761582536933363
1.007674370096251,0.14057521646913557,0.044414090887142765,0.0769603579802706,0.05263466195723552,0.07549535309871612
1.0077214521213813,0.1345761316442056,0.040554856268778694,0.07084930100861353,0.05089863221328644,0.06942106023468733
1.0077685341465117,0.12269802495893224,0.034976621830019185,0.062425783036096825,0.04492960916144714,0.06114534992893423
