freq,gls,usurper,pdc_unbiased,shape_periodogram,shift_periodogram
1.0,0.02176245538732735,0.11895594963324148,-0.007335655112181927,0.03327664483840864,-0.007967555965872187
1.0000470820251304,0.05134779247241603,0.10313984633908731,0.016081221596065367,0.04954477491180368,0.015161023123569695
1.0000941640502607,0.09689124580742478,0.08895420658978918,0.05094334186944231,0.06346075601066205,0.04983976956230911
1.0001412460753911,0.14848755125694818,0.08047157562508589,0.08456655871201842,0.07104141798608557,0.08343253013699338
1.0001883281005215,0.19664060203551523,0.0750803130816463,0.10917973127593883,0.0761176768503419,0.10805716480182442
1.0002354101256519,0.23592916525893703,0.07189772121038837,0.12678225514793529,0.07991751214532761,0.12568122693238815
1.0002824921507822,0.26363730657080775,0.07109362881109628,0.13936052532630389,0.08341486875606242,0.13827769696101105
1.0003295741759126,0.2780607972143743,0.07425502784335031,0.14663287491158739,0.08756228430055435,0.1455522916581254
1.000376656201043,0.27778293516045677,0.08078960614282282,0.14742341655727248,0.09300954411447268,0.14631706871028058
1.0004237382261734,0.2619162710265795,0.0881642310748447,0.139633635428265,0.09787432236031533,0.13846485025395056
1.0004708202513037,0.23107843684954268,0.0939357970893429,0.12167319492364326,0.10228658513944883,0.12038322797811381
1.0005179022764341,0.1884924826566669,0.09835397320263839,0.09811663264576473,0.10549822963561158,0.09666819897870182
1.0005649843015645,0.1401213853463462,0.10615899142934379,0.07552593926328457,0.10895184586608041,0.07390829112007138
1.0006120663266949,0.09311329616242185,0.1167142909584333,0.056936636782797936,0.11257753830731095,0.055158583422552955
1.0006591483518252,0.05338098213176131,0.12693842269048775,0.04656239048066332,0.11727030955436148,0.04465230461784143
1.0007062303769556,0.024158292773911582,0.1343835792397452,0.0379052596807291,0.1205956439663077,0.03588570439375371
1.000753312402086,0.006389706849983347,0.1365593063006436,0.024925530867037873,0.12152320496856729,0.022795374728408438
1.0008003944272164,4.4957735270936574e-05,0.1376653344860872,0.013623927240606612,0.12111870944969516,0.011417202083192534
1.0008474764523467,0.004476680458159687,0.13449483389483874,0.005279248516488982,0.1214638795238196,0.0030052230972745604
1.000894558477477,0.016631009383087918,0.13308445342518396,0.00604487589630294,0.12476900238843722,0.0037150583022933447
1.0009416405026075,0.030279800796216314,0.13498900762946334,0.01614856324889533,0.12997524037326966,0.013807365064415048
1.0009887225277379,0.04019506929021177,0.13872269708834442,0.031662352407458065,0.1348183024133104,0.029380476415547852
1.0010358045528682,0.045271217739530065,0.1428586022767529,0.049643587368788454,0.13873802380465164,0.04748024568236069
1.0010828865779986,0.04665854735345898,0.1413406168983143,0.06394396252727896,0.1415512363318862,0.061894168005091135
1.001129968603129,0.04557434040645729,0.13627288794780668,0.06951556918541625,0.14159794786065677,0.06752326085037004
1.0011770506282593,0.04281463251624272,0.1289923851581016,0.06676401531502141,0.13778901141935251,0.06478030797227215
1.0012241326533897,0.03911406922799136,0.12119029949896153,0.05756222886158259,0.13134437230625343,0.055561545413541746
1.00127121467852,0.035734840091298535,0.11225215426598517,0.04469056838221148,0.12337724621934304,0.042683192780300444
1.0013182967036505,0.034632288517627896,0.10786192348934989,0.03354469161607427,0.11816295023792446,0.031529890371826116
1.0013653787287808,0.03686446430802818,0.11139491752978106,0.03235087082016887,0.11784423264924036,0.030332530125087857
1.0014124607539112,0.040499198873267514,0.11751417914787599,0.04235422606047071,0.12115034854415259,0.04035984186140525
1.0014595427790416,0.04245011553894062,0.12415636335121587,0.05148956578485458,0.12564836135704915,0.049506325973767355
1.001506624804172,0.04142424671447975,0.13028615207208055,0.057489670337512934,0.12924701771507865,0.0555127510778761
1.0015537068293023,0.03772147907862947,0.13369605032296805,0.05838903434484734,0.13142880125641537,0.056394745701846015
1.0016007888544327,0.032149333674356434,0.13661171074388528,0.05286952532393206,0.1301056766937547,0.05084228429689551
1.001647870879563,0.025799799790141527,0.138569065204343,0.040386054375886556,0.126222039273337,0.0383049545552651
1.0016949529046935,0.020580986012262138,0.13713282668847154,0.02276083148008517,0.11941056659265119,0.020649448192011397
1.0017420349298238,0.01993155776046648,0.13332021633646776,0.008396000375120035,0.11416141255531978,0.0062783266666246555
1.0017891169549542,0.027489951613850306,0.12847443095286334,0.00883020356959996,0.1134707797977659,0.006727930796443181
1.0018361989800846,0.042074300128446054,0.12354751225628044,0.022145335055818467,0.11542172965796255,0.02009587811320929
1.001883281005215,0.05845891480384451,0.11879228106197698,0.04104344236602053,0.11752669736190997,0.039090947176703944
1.0019303630303453,0.07582159493280267,0.11834598192135656,0.05832937685591873,0.12133781898960935,0.05645302303560935
1.0019774450554757,0.09824195100672209,0.11944476883380595,0.07041397317164165,0.11761352181137658,0.06866920111217374
1.002024527080606,0.1303669711588208,0.11536276259262912,0.07896421651578898,0.11074735711678889,0.07734934349043396
1.0020716091057364,0.17464242099810953,0.10512560386519931,0.08832693698111686,0.10090377308706945,0.08686625397356222
1.0021186911308668,0.22917237164395338,0.09827910428225134,0.11355266104308831,0.09327002578469419,0.11228685018584178
1.0021657731559972,0.2864808872447173,0.09565099883183967,0.14880372324738836,0.08905090883792277,0.1477240021044151
1.0022128551811276,0.335488571803669,0.0918000731367787,0.17945522269565434,0.08421808308545918,0.17852239036518933
1.002259937206258,0.3667004160945303,0.0869611077554068,0.20044309409803335,0.07784368230842324,0.19960646147947333
1.0023070192313883,0.37630521047742305,0.08023300853047952,0.20989430295355302,0.07054608978812615,0.20911018498729497
1.0023541012565187,0.3658732131217113,0.07180032453639348,0.20800353236518512,0.06264486848444534,0.20724934158877728
1.002401183281649,0.3393357840705059,0.06336302385115283,0.19716291122807472,0.054628137142409175,0.1964380509414913
1.0024482653067794,0.30043566038503033,0.05700354694094242,0.1783931936762516,0.04643101006607873,0.17771187104008487
1.0024953473319098,0.25183659939415354,0.05386783133175412,0.15384153094853617,0.03759559896325397,0.1532349795741808
1.0025424293570402,0.1956066522565673,0.05506190254334275,0.12081929242955049,0.03010153230369618,0.12029525309185288
1.0025895113821706,0.13475970805500284,0.059494651573287,0.07564140824241966,0.021938117693906967,0.07523493337135218
1.002636593407301,0.07582916802294695,0.06484474907475674,0.025728531183742454,0.015336019329857575,0.02543739741623114
1.0026836754324313,0.03145358980808763,0.07546633430303966,-0.0040036080406334615,0.012297332357020177,-0.004235599343016015
1.0027307574575617,0.01779891286180085,0.08181403996242544,-0.006351274616742859,0.010771604195010697,-0.0065540670395462484
1.002777839482692,0.04358985242398123,0.07305365137263505,0.006591376950054447,0.011662890473402812,0.006370244681863309
1.0028249215078224,0.1037077589167159,0.060728636952574966,0.04281328660270074,0.012057138802447569,0.042581514590745995
1.0028720035329528,0.18101238562213362,0.05419662789055902,0.0979436666785688,0.0198180192705333,0.0975761630853593
1.0029190855580832,0.25636899888384335,0.05306897331365456,0.15380629462607742,0.028337799134864113,0.15332290472283766
1.0029661675832136,0.31832235074100634,0.05849027555439739,0.19704252226634572,0.028515808435678174,0.19657765612236774
1.003013249608344,0.36361141655314383,0.06353436324233508,0.228525784613192,0.027082573425755586,0.22809409073802053
1.0030603316334743,0.39341420767750745,0.06870552627945706,0.24979870354304085,0.027602298896997942,0.2493723139395192
1.0031074136586047,0.4102870696014962,0.07121782415895404,0.26258314989231946,0.0294465538387379,0.26214531277432057
1.003154495683735,0.41662904201390033,0.07244318456474937,0.266777273312063,0.032220703257408,0.26631628442599403
1.0032015777088654,0.41405085665469693,0.07316444109351088,0.26326150551395927,0.035323824403281655,0.26277089255615915
1.0032486597339958,0.4030953535584088,0.07356187175858074,0.251751202986526,0.03848129447719619,0.2512240588769866
1.0032957417591262,0.38301151602067063,0.07356679724762553,0.2324239377319079,0.041892287416088414,0.23184866818325617
1.0033428237842565,0.3514583105172215,0.07360836102819003,0.2047530276495091,0.045346595120408964,0.2041153788460347
1.003389905809387,0.3042863356687068,0.07388808919096909,0.16911475512504195,0.04886024155254477,0.16839661445004442
1.0034369878345173,0.2364892670841809,0.07544094907338945,0.12615890065588273,0.052501639842195136,0.12533812291516377
1.0034840698596477,0.14805992805189566,0.07856704167311881,0.07745804013496241,0.056143092134156566,0.07651269091934436
1.003531151884778,0.05937981673678241,0.08643101043045004,0.035632586371168055,0.061522353098105734,0.034531073004912434
1.0035782339099084,0.016571701488668728,0.0985457818078832,0.012038086514572617,0.07056618842245628,0.010729398101691627
1.0036253159350388,0.04141534161646615,0.10942387688901602,0.014399178728297872,0.08177225011438155,0.012894904502111558
1.0036723979601692,0.0978579156313711,0.11253367301552741,0.03595348541122598,0.0935337137750495,0.03433309239744587
1.0037194799852995,0.14599333246590304,0.11200982791663283,0.06503465797160808,0.10345496345570172,0.06341898703796249
1.00376656201043,0.17300879075255565,0.1111124606624221,0.0922030709843016,0.10960103133441956,0.09068315428115334
1.0038136440355603,0.18229222765708752,0.10651448590172705,0.11374971918924169,0.11457621942128213,0.11233608330692825
1.0038607260606907,0.18262972424027749,0.10250435650597765,0.12736778710133306,0.11624611753509646,0.12604202368282583
1.003907808085821,0.18292620727983336,0.10127235254377175,0.13485525602086357,0.11491533454869676,0.13358734315964357
1.0039548901109514,0.18798821740501145,0.10369741438564452,0.13913083302593265,0.11165372547949941,0.13790255547883312
1.0040019721360818,0.19658928748535154,0.10868669626105064,0.1397247738744464,0.10996649050718142,0.13850588789383175
1.0040490541612122,0.20361099360789395,0.1147820167488245,0.1356935801867525,0.10743399932623857,0.13445879288831222
1.0040961361863425,0.20356945018764083,0.12094455313497975,0.1287855413388881,0.10403958049929023,0.127525682399775
1.004143218211473,0.19261735903368254,0.12614237122737962,0.11776025800915435,0.10160716217043206,0.11645311273977342
1.0041903002366033,0.1692114287165738,0.1289096137634753,0.09836742477706704,0.10022713670169588,0.09696657040129655
1.0042373822617336,0.13469585530973552,0.13066575074590808,0.07519967777083232,0.09947769818349565,0.07368547274758287
1.004284464286864,0.094068350002802,0.1348192931052789,0.051842634052145065,0.09970969247989256,0.050206001697914164
1.0043315463119944,0.0558705414627791,0.1391144937980398,0.03082107495389939,0.10070059636971218,0.029062716485248163
1.0043786283371248,0.029785725493520713,0.14532836701366042,0.019809015244991575,0.1017036144537198,0.017977723670040767
1.0044257103622551,0.022326134922130727,0.1544661173661167,0.01684685304795892,0.10252391232572503,0.014986058451426726
1.0044727923873855,0.03362727707623793,0.16570872340115445,0.01768087969631584,0.10246882432559233,0.01582538577674837
1.004519874412516,0.057935866130881315,0.17571339746948408,0.0238553638180855,0.1021594556656908,0.022037282737566034
1.0045669564376463,0.08691312585069338,0.18173339890522708,0.038233159934289905,0.10433607793616236,0.036457445921367015
1.0046140384627766,0.11302745450084833,0.18138657967247257,0.05542672474865837,0.10812000996183133,0.05369657435162921
1.004661120487907,0.13143773576861661,0.17557612556037422,0.07126698378066398,0.11273234124001945,0.06958108771258802
1.0047082025130374,0.140315951549541,0.1671364815126162,0.0817840112464661,0.1158832129936822,0.08013738918632313
1.0047552845381678,0.14016084842095028,0.1545743065345723,0.0846685751900148,0.11789724334197224,0.08302393719735573
1.0048023665632981,0.13271042804166153,0.13887661936286794,0.08028160564993014,0.1165378423208876,0.07861814339006994
1.0048494485884285,0.1199532079956697,0.12177384973621704,0.06958311394397716,0.11341359321782361,0.06787852099273144
1.0048965306135589,0.10352759540252561,0.10602911548350326,0.05738407400153901,0.10898976146859335,0.05565452545699609
1.0049436126386893,0.08458770500586026,0.09563565258605455,0.04469505929439128,0.10477109030329841,0.042948767732397856
1.0049906946638196,0.06411017510052013,0.08939562053829195,0.03435472552873721,0.10260495835478509,0.03258463046386153
1.00503777668895,0.043500849939608656,0.09038677625957646,0.022887706523455283,0.1007867364805237,0.021087683922439055
1.0050848587140804,0.02497562650004661,0.09361741607275276,0.013888116903115118,0.09758848044708458,0.012099645354291949
1.0051319407392107,0.011013597455985432,0.09791464433896664,0.011624969459267675,0.0944441344154788,0.009882590514603684
1.0051790227643411,0.003334338693202587,0.10367073392485224,0.009001101837417943,0.09081805744849931,0.007313630976532952
1.0052261047894715,0.0027948227754708652,0.11521252115598303,0.005716764128480125,0.08484048535872499,0.004127388553428056
1.0052731868146019,0.010164673003053454,0.13429198937462397,0.005314070387151807,0.07329702562052347,0.003938611451222696
1.0053202688397322,0.026566180290056158,0.15898704016073023,0.008193549268036414,0.0607241859388162,0.007057659538907953
1.0053673508648626,0.05291846997433676,0.18485467895226082,0.011498759854167706,0.04748893447316384,0.01061140797196036
1.005414432889993,0.08828034555015178,0.2059930804352104,0.017065936640710815,0.035066219260048624,0.016410585555347367
1.0054615149151234,0.12763762777320273,0.2154252253523019,0.025647230237824777,0.025673128661346883,0.025166248112768585
1.0055085969402537,0.16155770115500132,0.21519216174852956,0.038076850744054896,0.019437907945472312,0.03771063352111153
1.0055556789653841,0.18078890709766565,0.20857740584222018,0.05135766337998839,0.015539901538523353,0.0510621509048549
1.0056027609905145,0.18307418566708303,0.19890996879892162,0.06056084021799014,0.014778324598483222,0.060278874259454884
1.0056498430156449,0.1741533504439713,0.1883904257705141,0.06655908741414072,0.014664087245135122,0.06627906227823695
1.0056969250407752,0.16242605985016223,0.17672029235692338,0.07063087442771013,0.01499703762928706,0.07034489488838698
1.0057440070659056,0.15418810481596457,0.16421067066434247,0.07107575192890922,0.017483297168495254,0.07074597557252395
1.005791089091036,0.1523552110015489,0.15059812685098253,0.0660360559428213,0.01969024672463253,0.06566730643776102
1.0058381711161664,0.15691036178882456,0.13323240101020942,0.06130313889977103,0.02209015166213884,0.06089191640224252
1.0058852531412967,0.16538784679386007,0.11561557836036647,0.06307528196508604,0.02522713935335168,0.0626099945300476
1.005932335166427,0.17322460684996496,0.09891514980349558,0.06323184659303546,0.02772676475738914,0.06272375891513812
1.0059794171915575,0.17475929729964576,0.08478795731062716,0.05880087400333982,0.030444129043947506,0.058244942265781474
1.0060264992166879,0.16548577922015562,0.07400544524906034,0.05204155960234529,0.03274936094161803,0.051443405581490964
1.0060735812418182,0.1445721481217929,0.06605012952105997,0.04234591607178599,0.033569282522715724,0.04172914125488629
1.0061206632669486,0.11538472372115638,0.0636743066839651,0.03266210113426135,0.0331052710316545,0.032049190091041437
1.006167745292079,0.08342022676517998,0.06698037994854099,0.0259645785337829,0.032208508982733766,0.025365029173693758
1.0062148273172093,0.053714935068683495,0.07721889458822077,0.01794830890199036,0.031384672286045585,0.017360831936270305
1.0062619093423397,0.029620632829972474,0.09153615623444222,0.006428025048282717,0.029275510245479162,0.005876185928824619
1.00630899136747,0.012907514843990737,0.1075365057168632,-0.004503164505502606,0.027695175630272392,-0.0050276474662420126
1.0063560733926005,0.004292560353454192,0.12015742033105804,-0.010519166817943732,0.027918896665255537,-0.01104910732799499
1.0064031554177308,0.0038095921685766332,0.12845938166933346,-0.007972360122875525,0.030713598419238812,-0.008555330829897427
1.0064502374428612,0.010924293923755681,0.13266172234611753,0.0013341291502741227,0.03644486476856317,0.0006455949547763469
1.0064973194679916,0.02453035587728399,0.133579327301762,0.011333716656649779,0.041667349821615594,0.01055357957972139
1.006544401493122,0.042966387475684646,0.1311285764317485,0.020787738978896356,0.046172842486533076,0.0199332585878084
1.0065914835182523,0.06411092062196938,0.12622671366708454,0.03329944681240632,0.049368922830887806,0.03240152181847024
1.0066385655433827,0.08556714248621351,0.12169543822517165,0.049462130528264495,0.049980985400656514,0.04857275330362524
1.006685647568513,0.10493697207975199,0.11951247931022041,0.06485229624100503,0.04851338349690254,0.06400472024861015
1.0067327295936435,0.12014720761669652,0.11670104867635189,0.07640706666955516,0.04686225777800319,0.07559814428466183
1.0067798116187738,0.12974860817624662,0.11414954421070106,0.08294186479002422,0.04377145070774575,0.08218664626440132
1.0068268936439042,0.1331160769266914,0.11135467117595532,0.08436945777741765,0.04196949122326263,0.08364292517197906
1.0068739756690346,0.13051634907150206,0.1100237423467913,0.08386978816652868,0.04056768076045443,0.08316426601100443
1.006921057694165,0.12301693370584733,0.10914280339955866,0.08185258015702256,0.04110583363403202,0.08113709761564604
1.0069681397192953,0.11219272060745543,0.11070743353061097,0.07585112215539112,0.04416476336902936,0.0750830009432747
1.0070152217444257,0.09964098937742749,0.11601874450129059,0.06985230351433948,0.04657778620919,0.0690406025948576
1.007062303769556,0.08648287672211809,0.12640516872644655,0.06302251331950957,0.048509619149673285,0.06217286950226976
1.0071093857946865,0.07315337862299943,0.14093582531675147,0.053521194673379444,0.05054147892259102,0.05262764547016245
1.0071564678198168,0.05967551136841471,0.1569919838883815,0.042771215350936226,0.05220637047222108,0.04183660393625174
1.0072035498449472,0.046352747241279996,0.170585608368097,0.029687677967592516,0.05446467028878701,0.028696994804928194
1.0072506318700776,0.03458526276589038,0.17973653896367117,0.01916866027493343,0.05688751529028611,0.018120086296383058
1.007297713895208,0.02727830692374265,0.1816040695865843,0.01473006896934623,0.06034976629908582,0.013612113731557199
1.0073447959203383,0.0280866607277734,0.17780629194690004,0.01711698325886342,0.06256285321800477,0.0159633786000017
1.0073918779454687,0.03925806445151868,0.17014331960086101,0.028584290137595406,0.06592437302990525,0.027394376627021877
1.007438959970599,0.059562255279517966,0.1618457766487802,0.043832242766228824,0.06811503004686478,0.042639660959642695
1.0074860419957294,0.08449757331606145,0.15263253993830292,0.058037587268334905,0.0701244042693793,0.0568480964102046
1.0075331240208598,0.10858230355013457,0.14359007089611853,0.06858033205585247,0.07192079520179272,0.06739212115856928
1.0075802060459902,0.12742598805780986,0.13739106694196285,0.07621925524513734,0.07233401359646988,0.07504593612295103
1.0076272880711206,0.13840784538629322,0.13287981680647898,0.07904744927672683,0.07172142245793187,0.07788989056256501
1.007674370096251,0.14057521646913557,0.13117424013324974,0.0769603579802706,0.07138033868974367,0.0758017748049473
1.0077214521213813,0.1345761316442056,0.13192464942272625,0.07084930100861353,0.06938596138696326,0.06970232815633665
1.0077685341465117,0.12269802495893224,0.13451378968807695,0.062425783036096825,0.06655100892751518,0.06129960099228478
1.007815616171642,0.10844877640211482,0.14081837428953242,0.054884533548136764,0.06494737932145951,0.05376600950104216
