freq,gls,usurper,pdc_unbiased,shape_periodogram,shift_periodogram
1.0,0.02176245538732735,0.04013019935024968,-0.007335655112181927,0.0387198465852044,-0.017807330177812206
1.0000470820251304,0.05134779247241603,0.09446858575403623,0.016081221596065367,0.0899512774436119,-0.009559268715895892
1.0000941640502607,0.09689124580742478,0.1593513304405334,0.05094334186944231,0.15166109411882095,0.006981293936982913
1.0001412460753911,0.14848755125694818,0.22498395860462897,0.08456655871201842,0.21261355049695188,0.023029799845761388
1.0001883281005215,0.19664060203551523,0.2779240367184245,0.10917973127593883,0.26274424520305173,0.033743465576767405
1.0002354101256519,0.23592916525893703,0.3153133271159898,0.12678225514793529,0.2983611783875024,0.04182945615445967
1.0002824921507822,0.26363730657080775,0.3418010315637541,0.13936052532630389,0.3217699127632384,0.048392773363509084
1.0003295741759126,0.2780607972143743,0.3570881986833088,0.14663287491158739,0.33546968450302955,0.05223577187992323
1.000376656201043,0.27778293516045677,0.36172854884442857,0.14742341655727248,0.34019153310366046,0.05177247258776984
1.0004237382261734,0.2619162710265795,0.35380499244780544,0.139633635428265,0.33308086402679815,0.04555989005241029
1.0004708202513037,0.23107843684954268,0.3297551937054952,0.12167319492364326,0.3118560156937263,0.032808091700516205
1.0005179022764341,0.1884924826566669,0.29651281531168466,0.09811663264576473,0.28299978093864736,0.01683718210521271
1.0005649843015645,0.1401213853463462,0.2709563010429435,0.07552593926328457,0.2623317225606318,-6.5180657863223e-05
1.0006120663266949,0.09311329616242185,0.25657842043033185,0.056936636782797936,0.2528356511908624,-0.015919446045040316
1.0006591483518252,0.05338098213176131,0.2536769118610689,0.04656239048066332,0.25295133080339277,-0.026289193991111032
1.0007062303769556,0.024158292773911582,0.25361499423716,0.0379052596807291,0.2556533919424987,-0.035696634741551346
1.000753312402086,0.006389706849983347,0.2456674898678186,0.024925530867037873,0.25247257574996085,-0.0476282062865575
1.0008003944272164,4.4957735270936574e-05,0.23718972529763835,0.013623927240606612,0.24589097594515624,-0.05682966818325958
1.0008474764523467,0.004476680458159687,0.23372869645276773,0.005279248516488982,0.24610882761818717,-0.06512102779382077
1.000894558477477,0.016631009383087918,0.2454074734646115,0.00604487589630294,0.25975915700657437,-0.06850199541688692
1.0009416405026075,0.030279800796216314,0.2765415449573633,0.01614856324889533,0.2893150435136092,-0.06754368476393828
1.0009887225277379,0.04019506929021177,0.3217932504591505,0.031662352407458065,0.33075569173862235,-0.06491468857576015
1.0010358045528682,0.045271217739530065,0.3732408971219977,0.049643587368788454,0.3768911313643254,-0.061293486754639095
1.0010828865779986,0.04665854735345898,0.41323536250544396,0.06394396252727896,0.41542170986063676,-0.05901110401142598
1.001129968603129,0.04557434040645729,0.4323611084565493,0.06951556918541625,0.43520624075728287,-0.059733239665713866
1.0011770506282593,0.04281463251624272,0.4285518217988667,0.06676401531502141,0.4341061384871276,-0.06229940856999765
1.0012241326533897,0.03911406922799136,0.407114744992708,0.05756222886158259,0.4157373381132697,-0.06585514440774984
1.00127121467852,0.035734840091298535,0.3755234566149633,0.04469056838221148,0.3864679329987464,-0.06956246566717589
1.0013182967036505,0.034632288517627896,0.35220091002748094,0.03354469161607427,0.3647122598340578,-0.07390829581642305
1.0013653787287808,0.03686446430802818,0.3524254019877742,0.03235087082016887,0.363619660548097,-0.07477463968653877
1.0014124607539112,0.040499198873267514,0.3732151374396329,0.04235422606047071,0.3818238775461865,-0.07045057004955352
1.0014595427790416,0.04245011553894062,0.40190944148725727,0.05148956578485458,0.40927972308008376,-0.07007204253651166
1.001506624804172,0.04142424671447975,0.42280317784232746,0.057489670337512934,0.42886051823948684,-0.07038059768257425
1.0015537068293023,0.03772147907862947,0.4256386500959349,0.05838903434484734,0.4314603453362832,-0.07031544222352828
1.0016007888544327,0.032149333674356434,0.4068579709573939,0.05286952532393206,0.4128912215805496,-0.06983865768205935
1.001647870879563,0.025799799790141527,0.36578967153826725,0.040386054375886556,0.3738267845901194,-0.06985665783810384
1.0016949529046935,0.020580986012262138,0.3116418648484768,0.02276083148008517,0.32202569926364455,-0.07114695780058358
1.0017420349298238,0.01993155776046648,0.2653719230060396,0.008396000375120035,0.27818937651955733,-0.07182038893288202
1.0017891169549542,0.027489951613850306,0.24616688322962854,0.00883020356959996,0.259478867209034,-0.06566435582352989
1.0018361989800846,0.042074300128446054,0.2522524282858554,0.022145335055818467,0.2652211324542563,-0.05421452282861253
1.001883281005215,0.05845891480384451,0.27492718679269906,0.04104344236602053,0.28649892889250844,-0.04179058966482352
1.0019303630303453,0.07582159493280267,0.2999084317905512,0.05832937685591873,0.3078320577531009,-0.0308096083755175
1.0019774450554757,0.09824195100672209,0.3143674308274696,0.07041397317164165,0.3154191283960183,-0.020809408080581262
1.002024527080606,0.1303669711588208,0.3076810304124823,0.07896421651578898,0.3026697196075572,-0.008318412011867832
1.0020716091057364,0.17464242099810953,0.2944520467286756,0.08832693698111686,0.28535397492578285,0.006227468716534118
1.0021186911308668,0.22917237164395338,0.3068963533965749,0.11355266104308831,0.2907173505738723,0.030390214841621323
1.0021657731559972,0.2864808872447173,0.34221939386747885,0.14880372324738836,0.31810513618872466,0.05923035960220581
1.0022128551811276,0.335488571803669,0.3793756479383708,0.17945522269565434,0.3494728989228067,0.08320117938526528
1.002259937206258,0.3667004160945303,0.403429487044791,0.20044309409803335,0.3697981921223981,0.10054200302913549
1.0023070192313883,0.37630521047742305,0.41028734740112216,0.20989430295355302,0.37460252175259834,0.1096065954982551
1.0023541012565187,0.3658732131217113,0.40096553905037285,0.20800353236518512,0.3646463483561109,0.1100126325509059
1.002401183281649,0.3393357840705059,0.37852235488203934,0.19716291122807472,0.3434023633538357,0.10364655429881243
1.0024482653067794,0.30043566038503033,0.3461044837995577,0.1783931936762516,0.3138402794003812,0.0912963501329388
1.0024953473319098,0.25183659939415354,0.3053482105977339,0.15384153094853617,0.2763554000826157,0.07558915349439523
1.0025424293570402,0.1956066522565673,0.2498762690174485,0.12081929242955049,0.22697565651519877,0.05527444249109044
1.0025895113821706,0.13475970805500284,0.1734104810737849,0.07564140824241966,0.16010489307269232,0.028788532265189678
1.002636593407301,0.07582916802294695,0.09103976990118053,0.025728531183742454,0.08887793645821568,5.1507150523425565e-05
1.0026836754324313,0.03145358980808763,0.03826149408527871,-0.0040036080406334615,0.03998183056893167,-0.014956205692747337
1.0027307574575617,0.01779891286180085,0.029493457161517054,-0.006351274616742859,0.02829284556882509,-0.013960556738125908
1.002777839482692,0.04358985242398123,0.05273964258994308,0.006591376950054447,0.04884178470568901,-0.007235360096984345
1.0028249215078224,0.1037077589167159,0.10902304720990708,0.04281328660270074,0.09822230237665593,0.013966066553732894
1.0028720035329528,0.18101238562213362,0.19719250089460333,0.0979436666785688,0.1781946913541474,0.045763504747613766
1.0029190855580832,0.25636899888384335,0.28768508608042304,0.15380629462607742,0.25937742379897416,0.08002213319964696
1.0029661675832136,0.31832235074100634,0.36124441710438676,0.19704252226634572,0.3217138904173504,0.10894323245304682
1.003013249608344,0.36361141655314383,0.41158666763006035,0.228525784613192,0.36594492458682837,0.131988672826978
1.0030603316334743,0.39341420767750745,0.4447887209693294,0.24979870354304085,0.3950707810548437,0.148719806944145
1.0031074136586047,0.4102870696014962,0.46406755281186896,0.26258314989231946,0.4123300813108145,0.1592581020139478
1.003154495683735,0.41662904201390033,0.4714403856818169,0.266777273312063,0.4189636843222871,0.16258329482540734
1.0032015777088654,0.41405085665469693,0.46814073302184217,0.26326150551395927,0.4154686644377664,0.15934747996900003
1.0032486597339958,0.4030953535584088,0.4540556649386603,0.251751202986526,0.4018318596932298,0.14938757511255812
1.0032957417591262,0.38301151602067063,0.4286801961625074,0.2324239377319079,0.37782822529633553,0.13346028778945918
1.0033428237842565,0.3514583105172215,0.39119952010860526,0.2047530276495091,0.34317387976137403,0.11181883678248825
1.003389905809387,0.3042863356687068,0.34132453258239187,0.16911475512504195,0.2983568147700411,0.08561047958977135
1.0034369878345173,0.2364892670841809,0.27957041095636964,0.12615890065588273,0.2441764978728671,0.05599799978910502
1.0034840698596477,0.14805992805189566,0.2101788583760878,0.07745804013496241,0.18525547494781225,0.023609583441620025
1.003531151884778,0.05937981673678241,0.15568102227290537,0.035632586371168055,0.14136366276140477,-0.005041908818531104
1.0035782339099084,0.016571701488668728,0.1396903699409019,0.012038086514572617,0.13354512968790627,-0.02573076494190279
1.0036253159350388,0.04141534161646615,0.17614897083501657,0.014399178728297872,0.1737508287177846,-0.03491170803964285
1.0036723979601692,0.0978579156313711,0.24866909548114244,0.03595348541122598,0.2466452137717784,-0.03497008993104259
1.0037194799852995,0.14599333246590304,0.33584364049742976,0.06503465797160808,0.33424711691210823,-0.032007466463067624
1.00376656201043,0.17300879075255565,0.4132545121667755,0.0922030709843016,0.4118208099557478,-0.02783072316971767
1.0038136440355603,0.18229222765708752,0.46949392617264246,0.11374971918924169,0.46874907532131543,-0.022794816564765747
1.0038607260606907,0.18262972424027749,0.5053309482355788,0.12736778710133306,0.5056482905259118,-0.01971344460197285
1.003907808085821,0.18292620727983336,0.524506247276334,0.13485525602086357,0.5246837810578666,-0.0175149441464699
1.0039548901109514,0.18798821740501145,0.5333090915187199,0.13913083302593265,0.5313095929668112,-0.014784215595591977
1.0040019721360818,0.19658928748535154,0.531580148121288,0.1397247738744464,0.5282677701206002,-0.013064963514095406
1.0040490541612122,0.20361099360789395,0.5198736486486308,0.1356935801867525,0.5130798621611357,-0.012655107202676095
1.0040961361863425,0.20356945018764083,0.4970332537929169,0.1287855413388881,0.48541039085150334,-0.01143285555616562
1.004143218211473,0.19261735903368254,0.45988826891067014,0.11776025800915435,0.4460218991579394,-0.011059936457086021
1.0041903002366033,0.1692114287165738,0.4049379091264244,0.09836742477706704,0.3916663417931385,-0.01496625592286627
1.0042373822617336,0.13469585530973552,0.3398284259817238,0.07519967777083232,0.3291086009983317,-0.02002945642871637
1.004284464286864,0.094068350002802,0.2770321211790124,0.051842634052145065,0.26872631941006825,-0.025667250161946525
1.0043315463119944,0.0558705414627791,0.22116189680973863,0.03082107495389939,0.2152161420178377,-0.03083232579361014
1.0043786283371248,0.029785725493520713,0.18377475012744604,0.019809015244991575,0.17902015169319524,-0.031153416825274956
1.0044257103622551,0.022326134922130727,0.16533236971113463,0.01684685304795892,0.16086376521559018,-0.028835357132052444
1.0044727923873855,0.03362727707623793,0.16404110019669943,0.01768087969631584,0.1605540928411401,-0.02793573482564302
1.004519874412516,0.057935866130881315,0.1768238069481474,0.0238553638180855,0.17416599707208277,-0.02581340104150575
1.0045669564376463,0.08691312585069338,0.2053476705249626,0.038233159934289905,0.2024532236043954,-0.019854716616364093
1.0046140384627766,0.11302745450084833,0.2427983043286581,0.05542672474865837,0.23997057676397324,-0.013688788114988611
1.004661120487907,0.13143773576861661,0.27941595729340324,0.07126698378066398,0.2779600915937059,-0.008875884465040595
1.0047082025130374,0.140315951549541,0.307233614178833,0.0817840112464661,0.3073198073712109,-0.006813627661220458
1.0047552845381678,0.14016084842095028,0.3207610598855188,0.0846685751900148,0.3236815188274404,-0.008693826913271476
1.0048023665632981,0.13271042804166153,0.31913483851730545,0.08028160564993014,0.32476638382028783,-0.013516714126584
1.0048494485884285,0.1199532079956697,0.30354978563419643,0.06958311394397716,0.3126344348531332,-0.02082187721925865
1.0048965306135589,0.10352759540252561,0.27564336867705386,0.05738407400153901,0.28681279346339045,-0.025466880652461155
1.0049436126386893,0.08458770500586026,0.23989322761409484,0.04469505929439128,0.25186615287960784,-0.027828003195074294
1.0049906946638196,0.06411017510052013,0.2041316217715275,0.03435472552873721,0.21660234182273427,-0.02775731657942921
1.00503777668895,0.043500849939608656,0.1699391371503968,0.022887706523455283,0.18250260450952438,-0.029149491484869595
1.0050848587140804,0.02497562650004661,0.13624409434142284,0.013888116903115118,0.147573575560947,-0.027920446159732996
1.0051319407392107,0.011013597455985432,0.11083469703227689,0.011624969459267675,0.11983805921432557,-0.0222552825018629
1.0051790227643411,0.003334338693202587,0.0908478978318146,0.009001101837417943,0.09906255399229581,-0.018943658208256987
1.0052261047894715,0.0027948227754708652,0.07011149403754122,0.005716764128480125,0.07723720453185261,-0.01599600318700841
1.0052731868146019,0.010164673003053454,0.05311829261465446,0.005314070387151807,0.05694153758291389,-0.010719487547392206
1.0053202688397322,0.026566180290056158,0.043501987153154426,0.008193549268036414,0.0446902409805297,-0.004539541438705432
1.0053673508648626,0.05291846997433676,0.040666999234139634,0.011498759854167706,0.040168516404097444,-0.00010407240981226995
1.005414432889993,0.08828034555015178,0.043410570967528934,0.017065936640710815,0.03970487238942279,0.005378889199260447
1.0054615149151234,0.12763762777320273,0.05116282018559533,0.025647230237824777,0.043221687216277845,0.012658909457415716
1.0055085969402537,0.16155770115500132,0.06623696091958603,0.038076850744054896,0.054690143539534136,0.021450896166416527
1.0055556789653841,0.18078890709766565,0.08371218865935806,0.05135766337998839,0.07026832556668473,0.029956995479489136
1.0056027609905145,0.18307418566708303,0.09782247354994844,0.06056084021799014,0.08482624948887646,0.03484252191589234
1.0056498430156449,0.1741533504439713,0.10714402233391841,0.06655908741414072,0.09408430519041498,0.03810688279547372
1.0056969250407752,0.16242605985016223,0.11380029260062316,0.07063087442771013,0.10082864675552251,0.04020511488602859
1.0057440070659056,0.15418810481596457,0.11984066365195298,0.07107575192890922,0.10748932267463253,0.03880986283501126
1.005791089091036,0.1523552110015489,0.12196283650137808,0.0660360559428213,0.11111754269723911,0.032917006443739946
1.0058381711161664,0.15691036178882456,0.12208164691947551,0.06130313889977103,0.11302429400969469,0.027794300180327695
1.0058852531412967,0.16538784679386007,0.12738736783024696,0.06307528196508604,0.11798079428082144,0.028148785021215237
1.005932335166427,0.17322460684996496,0.13242958466298482,0.06323184659303546,0.12401609627260536,0.02663531949148596
1.0059794171915575,0.17475929729964576,0.13109492897739708,0.05880087400333982,0.12464155418181622,0.022152100838584
1.0060264992166879,0.16548577922015562,0.12366954062401303,0.05204155960234529,0.11912857635224977,0.017110922668890537
1.0060735812418182,0.1445721481217929,0.11073398528256818,0.04234591607178599,0.10833518841354843,0.010704545266888962
1.0061206632669486,0.11538472372115638,0.09908172111644617,0.03266210113426135,0.09715329414465099,0.0044444896323618584
1.006167745292079,0.08342022676517998,0.08751853026496502,0.0259645785337829,0.08571887099403683,0.0011595784448820887
1.0062148273172093,0.053714935068683495,0.07865246919933863,0.01794830890199036,0.07710415561920402,-0.0041722758058125725
1.0062619093423397,0.029620632829972474,0.06747396934482155,0.006428025048282717,0.0674291826276384,-0.012571662262355392
1.00630899136747,0.012907514843990737,0.0567010778134456,-0.004503164505502606,0.05896976567344886,-0.020728859700133512
1.0063560733926005,0.004292560353454192,0.05243797504590447,-0.010519166817943732,0.05608387640046367,-0.025708076135094737
1.0064031554177308,0.0038095921685766332,0.05726838867115679,-0.007972360122875525,0.06164880451202713,-0.024813578589611356
1.0064502374428612,0.010924293923755681,0.07863622758397379,0.0013341291502741227,0.08365022341374383,-0.02201291023507313
1.0064973194679916,0.02453035587728399,0.10620317171712829,0.011333716656649779,0.11140846315614027,-0.02016146667466334
1.006544401493122,0.042966387475684646,0.1337068634086111,0.020787738978896356,0.1397374488152194,-0.019001667984695037
1.0065914835182523,0.06411092062196938,0.16089880322558414,0.03329944681240632,0.16486985093401574,-0.01395208790463702
1.0066385655433827,0.08556714248621351,0.1892265003964423,0.049462130528264495,0.1891757599365233,-0.005033225819475052
1.006685647568513,0.10493697207975199,0.2155145824794946,0.06485229624100503,0.21180198123340035,0.0037189120552626816
1.0067327295936435,0.12014720761669652,0.2336158024767217,0.07640706666955516,0.22668777176461824,0.010971326298344214
1.0067798116187738,0.12974860817624662,0.24169298855514731,0.08294186479002422,0.23090978931559253,0.016290617961660106
1.0068268936439042,0.1331160769266914,0.23791916599756965,0.08436945777741765,0.22374810354738006,0.01972297703780606
1.0068739756690346,0.13051634907150206,0.22651296981133387,0.08386978816652868,0.20944890914112832,0.023220126002687858
1.006921057694165,0.12301693370584733,0.20737401297510472,0.08185258015702256,0.18929022224832906,0.02682505726814209
1.0069681397192953,0.11219272060745543,0.182505301121718,0.07585112215539112,0.16471748560801833,0.02771974362253921
1.0070152217444257,0.09964098937742749,0.15421244691400357,0.06985230351433948,0.1363230144942956,0.029689392743451507
1.007062303769556,0.08648287672211809,0.12763350038366164,0.06302251331950957,0.11037311251738721,0.030195093155722864
1.0071093857946865,0.07315337862299943,0.10404993917559233,0.053521194673379444,0.08809666799763077,0.027129525849292492
1.0071564678198168,0.05967551136841471,0.08566196056197833,0.042771215350936226,0.0713733369673437,0.021362720497083314
1.0072035498449472,0.046352747241279996,0.06883873569460834,0.029687677967592516,0.057871452679310355,0.012487112073235915
1.0072506318700776,0.03458526276589038,0.057731907772308015,0.01916866027493343,0.05012140054273274,0.004509602662719086
1.007297713895208,0.02727830692374265,0.0532020314957843,0.01473006896934623,0.047821948870249494,0.0008773854423230922
1.0073447959203383,0.0280866607277734,0.05901089313345234,0.01711698325886342,0.053718538461892396,0.001535563824261698
1.0073918779454687,0.03925806445151868,0.08079374232904186,0.028584290137595406,0.07348372342204865,0.007090542322147978
1.007438959970599,0.059562255279517966,0.10990504908223442,0.043832242766228824,0.09897168993404858,0.01474430724775388
1.0074860419957294,0.08449757331606145,0.1369871175244183,0.058037587268334905,0.12268839065627594,0.021950509722054826
1.0075331240208598,0.10858230355013457,0.15771325593474558,0.06858033205585247,0.14196309847083546,0.026891331011199993
1.0075802060459902,0.12742598805780986,0.16970402204424964,0.07621925524513734,0.15299950190151304,0.03131500267646893
1.0076272880711206,0.13840784538629322,0.1720546449087587,0.07904744927672683,0.15519873197833908,0.03347983694435426
1.007674370096251,0.14057521646913557,0.16552325726420403,0.0769603579802706,0.15094274015672932,0.03260721529672061
1.0077214521213813,0.1345761316442056,0.15142025988843028,0.07084930100861353,0.1397080227305366,0.029728964295215595
1.0077685341465117,0.12269802495893224,0.13012689826636212,0.062425783036096825,0.12098643874280839,0.0266877846543158
1.007815616171642,0.10844877640211482,0.10803989478025684,0.054884533548136764,0.10033231170844464,0.02507137532497773
