freq,gls,usurper,pdc_unbiased,shape_periodogram,shift_periodogram
1.0,0.02176245538732735,0.014398702109025838,-0.007335655112181927,0.007777571805811792,-0.007504080697524123
1.0000470820251304,0.05134779247241603,0.018512881564586848,0.016081221596065367,0.00763725128536455,0.01591101226755359
1.0000941640502607,0.09689124580742478,0.02493709002558588,0.05094334186944231,0.011485814542575943,0.050684512586737805
1.0001412460753911,0.14848755125694818,0.03071637745574846,0.08456655871201842,0.020281163951429527,0.08412520062021978
1.0001883281005215,0.19664060203551523,0.0370490497713768,0.10917973127593883,0.033218019012243624,0.10850007524183553
1.0002354101256519,0.23592916525893703,0.04346538232735336,0.12678225514793529,0.04430013797902392,0.12592910318185346
1.0002824921507822,0.26363730657080775,0.04789415334139308,0.13936052532630389,0.05105357477758362,0.13842135004583708
1.0003295741759126,0.2780607972143743,0.050832728873269166,0.14663287491158739,0.05448656600084397,0.14565758046911
1.000376656201043,0.27778293516045677,0.051558033426492365,0.14742341655727248,0.056858987996548926,0.14641817654241157
1.0004237382261734,0.2619162710265795,0.04953419878322106,0.139633635428265,0.057267901386462795,0.13860866509923814
1.0004708202513037,0.23107843684954268,0.04512720546841827,0.12167319492364326,0.05507881061817927,0.12064776685709756
1.0005179022764341,0.1884924826566669,0.03926845009625749,0.09811663264576473,0.05160783259672942,0.09710987757484943
1.0005649843015645,0.1401213853463462,0.03497279534178077,0.07552593926328457,0.04786327104863734,0.0745558280476737
1.0006120663266949,0.09311329616242185,0.032354120564340325,0.056936636782797936,0.04329562750163341,0.05603383564520915
1.0006591483518252,0.05338098213176131,0.032168089557068416,0.04656239048066332,0.037139181973566575,0.04577379156470322
1.0007062303769556,0.024158292773911582,0.03179545472542584,0.0379052596807291,0.029305742619066488,0.037273140781224776
1.000753312402086,0.006389706849983347,0.032095930860536276,0.024925530867037873,0.020249451392474097,0.024482489758082884
1.0008003944272164,4.4957735270936574e-05,0.03278081323933677,0.013623927240606612,0.01275281808900042,0.013343146036396749
1.0008474764523467,0.004476680458159687,0.03181084167098871,0.005279248516488982,0.010499834424673605,0.005048820928188597
1.000894558477477,0.016631009383087918,0.036064827910225,0.00604487589630294,0.013244722335190383,0.00575451342599037
1.0009416405026075,0.030279800796216314,0.043755438372667654,0.01614856324889533,0.020305540451303613,0.015704373837280673
1.0009887225277379,0.04019506929021177,0.05300781897028842,0.031662352407458065,0.03225514017028971,0.030967056112483057
1.0010358045528682,0.045271217739530065,0.05931618828240583,0.049643587368788454,0.04713343098020654,0.0486594252827731
1.0010828865779986,0.04665854735345898,0.06509611474805153,0.06394396252727896,0.061304306220554675,0.06271459350002025
1.001129968603129,0.04557434040645729,0.06918600987767969,0.06951556918541625,0.07231640139232663,0.06810738671380956
1.0011770506282593,0.04281463251624272,0.07009026646480207,0.06676401531502141,0.07771399505135748,0.06525742243048833
1.0012241326533897,0.03911406922799136,0.06662310075132334,0.05756222886158259,0.07771453677579937,0.05602732264240045
1.00127121467852,0.035734840091298535,0.060187741199066266,0.04469056838221148,0.07469315876792185,0.04317272294898916
1.0013182967036505,0.034632288517627896,0.054322657816222523,0.03354469161607427,0.07157260509556164,0.03205725070564597
1.0013653787287808,0.03686446430802818,0.05049597060916483,0.03235087082016887,0.06952735144609055,0.030900742815356586
1.0014124607539112,0.040499198873267514,0.05036871485161558,0.04235422606047071,0.06967506858631872,0.04092475060241102
1.0014595427790416,0.04245011553894062,0.05270669612302269,0.05148956578485458,0.07170084862865206,0.0500449359285388
1.001506624804172,0.04142424671447975,0.05375069500613638,0.057489670337512934,0.06987212127749153,0.056093087474208825
1.0015537068293023,0.03772147907862947,0.054287055561434955,0.05838903434484734,0.0632547261224004,0.05711372141788248
1.0016007888544327,0.032149333674356434,0.051623520377520465,0.05286952532393206,0.05292197864893231,0.05177752628214001
1.001647870879563,0.025799799790141527,0.04570984594301079,0.040386054375886556,0.038751184741846585,0.039561285796790635
1.0016949529046935,0.020580986012262138,0.03678861330126477,0.02276083148008517,0.023951453936796062,0.022238758135890824
1.0017420349298238,0.01993155776046648,0.03240621868631989,0.008396000375120035,0.013288957112517867,0.008104335230543092
1.0017891169549542,0.027489951613850306,0.03161001901067977,0.00883020356959996,0.011543603606354598,0.00857643104807182
1.0018361989800846,0.042074300128446054,0.03213860283501789,0.022145335055818467,0.015885155096053878,0.021795908666612972
1.001883281005215,0.05845891480384451,0.03794394005769295,0.04104344236602053,0.025336058893545652,0.040494341671582286
1.0019303630303453,0.07582159493280267,0.0433751116695933,0.05832937685591873,0.03684112872580097,0.05755338919759849
1.0019774450554757,0.09824195100672209,0.04552367892411756,0.07041397317164165,0.050118653638308905,0.06939679157653364
1.002024527080606,0.1303669711588208,0.0419474997030138,0.07896421651578898,0.05884973662421261,0.07780527045249588
1.0020716091057364,0.17464242099810953,0.037340674214521356,0.08832693698111686,0.06465495672914404,0.08709017254875578
1.0021186911308668,0.22917237164395338,0.03787118561209148,0.11355266104308831,0.06930411966204011,0.11230682486374782
1.0021657731559972,0.2864808872447173,0.04209169304459605,0.14880372324738836,0.07427745419591379,0.14759768152194536
1.0022128551811276,0.335488571803669,0.04635306568574039,0.17945522269565434,0.0789639455329602,0.1783091863878866
1.002259937206258,0.3667004160945303,0.048682252911414765,0.20044309409803335,0.08189671372628918,0.1993564704474682
1.0023070192313883,0.37630521047742305,0.048876403528042546,0.20989430295355302,0.0824261151548475,0.20884165229587334
1.0023541012565187,0.3658732131217113,0.047378538345561404,0.20800353236518512,0.08077017252598064,0.206950625144291
1.002401183281649,0.3393357840705059,0.046078012269708285,0.19716291122807472,0.07746332094023978,0.19608840532433772
1.0024482653067794,0.30043566038503033,0.04455355629873684,0.1783931936762516,0.06944293880755477,0.17732030628008807
1.0024953473319098,0.25183659939415354,0.040731488799741936,0.15384153094853617,0.05556940363430833,0.15286450199335624
1.0025424293570402,0.1956066522565673,0.03338896539492199,0.12081929242955049,0.037972684536890726,0.12006435835813277
1.0025895113821706,0.13475970805500284,0.02653134278218021,0.07564140824241966,0.017294531257492047,0.07525992161969111
1.002636593407301,0.07582916802294695,0.022776776622311905,0.025728531183742454,0.0010695656423997764,0.025699055550695182
1.0026836754324313,0.03145358980808763,0.02048050840002617,-0.0040036080406334615,0.0005204827591867397,-0.0040140264141366065
1.0027307574575617,0.01779891286180085,0.022483780140194764,-0.006351274616742859,0.01629392122687362,-0.006706698866035616
1.002777839482692,0.04358985242398123,0.024881736871659142,0.006591376950054447,0.0379345322913151,0.0057650110510058614
1.0028249215078224,0.1037077589167159,0.036317691217636366,0.04281328660270074,0.055711811046915784,0.041653433708793895
1.0028720035329528,0.18101238562213362,0.052001701649127985,0.0979436666785688,0.06515497503100968,0.09672039805721981
1.0029190855580832,0.25636899888384335,0.06564508319983552,0.15380629462607742,0.06919945608313238,0.1526684934946601
1.0029661675832136,0.31832235074100634,0.07305566645537152,0.19704252226634572,0.07065043935090352,0.1960127654210143
1.003013249608344,0.36361141655314383,0.07775918390355636,0.228525784613192,0.07077146095176301,0.22758745944895314
1.0030603316334743,0.39341420767750745,0.07900732473489087,0.24979870354304085,0.06841187562036034,0.248931872390841
1.0031074136586047,0.4102870696014962,0.0777758767821112,0.26258314989231946,0.06570398259399136,0.26176105637331226
1.003154495683735,0.41662904201390033,0.07546962165283044,0.266777273312063,0.06213740412178406,0.2659795680723857
1.0032015777088654,0.41405085665469693,0.07190230291439692,0.26326150551395927,0.057453585507125336,0.26247886024082495
1.0032486597339958,0.4030953535584088,0.06703262806372644,0.251751202986526,0.0515020839983782,0.25098637139855623
1.0032957417591262,0.38301151602067063,0.06079507787234026,0.2324239377319079,0.0443586368081529,0.23169504471911798
1.0033428237842565,0.3514583105172215,0.052916837300791816,0.2047530276495091,0.03593346833012391,0.20409590843744735
1.003389905809387,0.3042863356687068,0.043128343688771116,0.16911475512504195,0.02660555348818665,0.16857675946242678
1.0034369878345173,0.2364892670841809,0.03205661543652418,0.12615890065588273,0.016655069997116207,0.12579108481811963
1.0034840698596477,0.14805992805189566,0.021099726156893074,0.07745804013496241,0.0068249787035070415,0.07729363272458704
1.003531151884778,0.05937981673678241,0.014245882688469888,0.035632586371168055,-0.0002215671399067044,0.03562892140548657
1.0035782339099084,0.016571701488668728,0.014682528872379964,0.012038086514572617,-0.0019158962242022814,0.012077093522065927
1.0036253159350388,0.04141534161646615,0.02428075452912238,0.014399178728297872,0.005211320043958342,0.014282086092906234
1.0036723979601692,0.0978579156313711,0.039952154934861456,0.03595348541122598,0.020138990977194585,0.035512845837822514
1.0037194799852995,0.14599333246590304,0.05933520590808745,0.06503465797160808,0.035159475907439654,0.06429524664498049
1.00376656201043,0.17300879075255565,0.07346778637765804,0.0922030709843016,0.04835098569361683,0.09124373725655967
1.0038136440355603,0.18229222765708752,0.08319564352480689,0.11374971918924169,0.05651923124350451,0.11268926409915857
1.0038607260606907,0.18262972424027749,0.08763641352035838,0.12736778710133306,0.061548686534542804,0.12626065404420544
1.003907808085821,0.18292620727983336,0.09033042650457206,0.13485525602086357,0.0661498653151306,0.1337045188768051
1.0039548901109514,0.18798821740501145,0.09241960679725549,0.13913083302593265,0.07023971406357055,0.13794138938078568
1.0040019721360818,0.19658928748535154,0.09121027675695029,0.1397247738744464,0.07230959467635986,0.1385130562628709
1.0040490541612122,0.20361099360789395,0.08579689152860073,0.1356935801867525,0.07313342345892122,0.13446057308336468
1.0040961361863425,0.20356945018764083,0.07722344036643072,0.1287855413388881,0.07090148985558997,0.1275596204111408
1.004143218211473,0.19261735903368254,0.06823585463775782,0.11776025800915435,0.06847330322027509,0.11653660480953995
1.0041903002366033,0.1692114287165738,0.05710711793772284,0.09836742477706704,0.06222133666071057,0.09719038605448542
1.0042373822617336,0.13469585530973552,0.044749448596581295,0.07519967777083232,0.05171518727908418,0.07415979862686163
1.004284464286864,0.094068350002802,0.03192726412467809,0.051842634052145065,0.0397304069573131,0.051005658492713414
1.0043315463119944,0.0558705414627791,0.020503411334715897,0.03082107495389939,0.026174700675471174,0.030252877249490894
1.0043786283371248,0.029785725493520713,0.01347975793654995,0.019809015244991575,0.013294769702608109,0.01951564657974181
1.0044257103622551,0.022326134922130727,0.010544404045823358,0.01684685304795892,0.003553269771701402,0.01676531960274302
1.0044727923873855,0.03362727707623793,0.011224201964298623,0.01768087969631584,-0.000996766978161063,0.01769843973171541
1.004519874412516,0.057935866130881315,0.014958445739518784,0.0238553638180855,-0.00045152833659921023,0.02385953151955517
1.0045669564376463,0.08691312585069338,0.0211133371867325,0.038233159934289905,0.0059350705876917735,0.03809529610559161
1.0046140384627766,0.11302745450084833,0.028111191055424787,0.05542672474865837,0.018020323960629928,0.05503043673079189
1.004661120487907,0.13143773576861661,0.03522763271458502,0.07126698378066398,0.03218204777828646,0.07058844965518074
1.0047082025130374,0.140315951549541,0.04128082002014994,0.0817840112464661,0.04610823352158432,0.08085239586508572
1.0047552845381678,0.14016084842095028,0.04247436034997929,0.0846685751900148,0.05763343449513517,0.08354023671696652
1.0048023665632981,0.13271042804166153,0.04070727654553554,0.08028160564993014,0.06584412432556211,0.07900767952830046
1.0048494485884285,0.1199532079956697,0.03635357458914505,0.06958311394397716,0.07160433395663449,0.0681871095940711
1.0048965306135589,0.10352759540252561,0.033483663291139255,0.05738407400153901,0.07446037822965478,0.055905737501765744
1.0049436126386893,0.08458770500586026,0.029286489860480047,0.04469505929439128,0.07263452698755618,0.043215636170535844
1.0049906946638196,0.06411017510052013,0.026024170801883354,0.03435472552873721,0.06691848695554987,0.03296043295794238
1.00503777668895,0.043500849939608656,0.021398253920405046,0.022887706523455283,0.059734004712155016,0.021616417465564752
1.0050848587140804,0.02497562650004661,0.0166562975983845,0.013888116903115118,0.05113555358749744,0.012784348988891647
1.0051319407392107,0.011013597455985432,0.012389164170472972,0.011624969459267675,0.04103805424929939,0.010734593232351132
1.0051790227643411,0.003334338693202587,0.01055498507606378,0.009001101837417943,0.028721975409553877,0.008374812974582282
1.0052261047894715,0.0027948227754708652,0.0067219409799372035,0.005716764128480125,0.015713531209401426,0.005372688078050127
1.0052731868146019,0.010164673003053454,0.005045837924319268,0.005314070387151807,0.005702936877223509,0.00518826380738829
1.0053202688397322,0.026566180290056158,0.005929738086447777,0.008193549268036414,-0.0009017793552279781,0.008211300773776086
1.0053673508648626,0.05291846997433676,0.008251720262680671,0.011498759854167706,-0.0038346807382928227,0.011579882437056621
1.005414432889993,0.08828034555015178,0.01016763849873958,0.017065936640710815,-0.0030371493816566467,0.017128283478879527
1.0054615149151234,0.12763762777320273,0.012971946863234527,0.025647230237824777,0.0013388033137555421,0.025611904184352934
1.0055085969402537,0.16155770115500132,0.015824523331587674,0.038076850744054896,0.010089765886730764,0.03784967801468172
1.0055556789653841,0.18078890709766565,0.019529529418386652,0.05135766337998839,0.020811219752736875,0.050903417964268505
1.0056027609905145,0.18307418566708303,0.02102394506463467,0.06056084021799014,0.03192080256320696,0.05988305650689191
1.0056498430156449,0.1741533504439713,0.023249887801445265,0.06655908741414072,0.04197699358660308,0.06568958774485821
1.0056969250407752,0.16242605985016223,0.02365367760369324,0.07063087442771013,0.05052136009570738,0.06960662024252397
1.0057440070659056,0.15418810481596457,0.02188057480292776,0.07107575192890922,0.05539037337446302,0.069964299506614
1.005791089091036,0.1523552110015489,0.018132529862436523,0.0660360559428213,0.056486467719307445,0.06489704253968444
1.0058381711161664,0.15691036178882456,0.01611514030705333,0.06130313889977103,0.05550521962002555,0.060174715657844005
1.0058852531412967,0.16538784679386007,0.015574643384115306,0.06307528196508604,0.05247601423974379,0.06200532810386283
1.005932335166427,0.17322460684996496,0.014519797569059151,0.06323184659303546,0.04740240903048033,0.06225673174604113
1.0059794171915575,0.17475929729964576,0.011652231626870624,0.05880087400333982,0.04011745610930542,0.057961165495451966
1.0060264992166879,0.16548577922015562,0.008349777686642777,0.05204155960234529,0.03311485045909931,0.05133647895430199
1.0060735812418182,0.1445721481217929,0.005396803251350295,0.04234591607178599,0.0255350620868319,0.04179288395747225
1.0061206632669486,0.11538472372115638,0.0024585824660107846,0.03266210113426135,0.018355644060846023,0.03225924389425984
1.006167745292079,0.08342022676517998,0.0014855250734821658,0.0259645785337829,0.012309602407738934,0.02569159296691818
1.0062148273172093,0.053714935068683495,0.0031656109282260617,0.01794830890199036,0.009031109815582071,0.017747483750034345
1.0062619093423397,0.029620632829972474,0.006051699758546097,0.006428025048282717,0.008172981484502394,0.0062481041492127905
1.00630899136747,0.012907514843990737,0.009394767194002677,-0.004503164505502606,0.00886326693170134,-0.004695957675388598
1.0063560733926005,0.004292560353454192,0.014237692712917976,-0.010519166817943732,0.011137575935464016,-0.010760672097185772
1.0064031554177308,0.0038095921685766332,0.019959868695598074,-0.007972360122875525,0.013183493942412769,-0.008259246422605374
1.0064502374428612,0.010924293923755681,0.028050566984378175,0.0013341291502741227,0.018066094437174912,0.0009391636594156448
1.0064973194679916,0.02453035587728399,0.03567292764911376,0.011333716656649779,0.024701206957949036,0.010794603781008006
1.006544401493122,0.042966387475684646,0.04178007635009306,0.020787738978896356,0.030733320899422458,0.020121079328936763
1.0065914835182523,0.06411092062196938,0.04608679881372918,0.03329944681240632,0.03567089695269082,0.03253393077090392
1.0066385655433827,0.08556714248621351,0.051307178169849574,0.049462130528264495,0.03971329358091333,0.048623881286614476
1.006685647568513,0.10493697207975199,0.053559987230692246,0.06485229624100503,0.04237288892073815,0.0639738661099411
1.0067327295936435,0.12014720761669652,0.05360228924701069,0.07640706666955516,0.04318502803257837,0.07552340087907439
1.0067798116187738,0.12974860817624662,0.049895738135715385,0.08294186479002422,0.041725895052936605,0.08209065083251305
1.0068268936439042,0.1331160769266914,0.04607208541015034,0.08436945777741765,0.03799590532727183,0.0835878209704589
1.0068739756690346,0.13051634907150206,0.040833221199073816,0.08386978816652868,0.03379186384145425,0.08316631728274543
1.006921057694165,0.12301693370584733,0.034330080339051355,0.08185258015702256,0.02711761431310509,0.0812761511800398
1.0069681397192953,0.11219272060745543,0.02634343343885534,0.07585112215539112,0.019540094346042276,0.0754240761266774
1.0070152217444257,0.09964098937742749,0.018014710502525615,0.06985230351433948,0.012497954102887976,0.0695699791288192
1.007062303769556,0.08648287672211809,0.011426174104385872,0.06302251331950957,0.007415163309953789,0.06284816073193333
1.0071093857946865,0.07315337862299943,0.0066596534147183,0.053521194673379444,0.004033516758028776,0.053421115933618125
1.0071564678198168,0.05967551136841471,0.0019354455099311935,0.042771215350936226,0.001102074143051338,0.04273702801402678
1.0072035498449472,0.046352747241279996,-0.0013725394927231538,0.029687677967592516,0.0003365464217067046,0.02967325134180725
1.0072506318700776,0.03458526276589038,-0.0030956825466593426,0.01916866027493343,0.0013551396077191766,0.019134504109793397
1.007297713895208,0.02727830692374265,-0.0028864938332727906,0.01473006896934623,0.0023241567701825358,0.01467581803146617
1.0073447959203383,0.0280866607277734,-0.0011168629360129537,0.01711698325886342,0.004523944618463601,0.017014251601482882
1.0073918779454687,0.03925806445151868,0.0040942478165458315,0.028584290137595406,0.009509400771669766,0.02837119370692438
1.007438959970599,0.059562255279517966,0.011500048617919884,0.043832242766228824,0.015676134370522,0.043485534529968194
1.0074860419957294,0.08449757331606145,0.018135925055176638,0.058037587268334905,0.023216892052874635,0.057534406907878206
1.0075331240208598,0.10858230355013457,0.02341740383490384,0.06858033205585247,0.02940225255734967,0.06795522760610027
1.0075802060459902,0.12742598805780986,0.026824952680050102,0.07621925524513734,0.0336976830214846,0.07551374450860113
1.0076272880711206,0.13840784538629322,0.02859139112301185,0.07904744927672683,0.03633135766053194,0.07829346141001241
1.007674370096251,0.14057521646913557,0.027843630357355823,0.0769603579802706,0.037206236767305875,0.07618859562924755
1.0077214521213813,0.1345761316442056,0.02478545998561526,0.07084930100861353,0.0357785186499606,0.07010106852226179
