freq,gls,usurper,pdc_unbiased,shape_periodogram,shift_periodogram
1.0,0.02176245538732735,0.003855989744852249,-0.007335655112181927,0.01035556974156623,-0.007442916826488265
1.0000470820251304,0.05134779247241603,0.007593430304366377,0.016081221596065367,0.008060317731274587,0.01599742056353591
1.0000941640502607,0.09689124580742478,0.013219257412349906,0.05094334186944231,0.008537453123997977,0.050854375407449665
1.0001412460753911,0.14848755125694818,0.018661820427880994,0.08456655871201842,0.014042410996238848,0.08442642022333559
1.0001883281005215,0.19664060203551523,0.023230137036502178,0.10917973127593883,0.02425050069297486,0.10895888311862101
1.0002354101256519,0.23592916525893703,0.02797975470329587,0.12678225514793529,0.03411219803059278,0.12650312981657175
1.0002824921507822,0.26363730657080775,0.0332017095224153,0.13936052532630389,0.04149155430174091,0.1390532703621095
1.0003295741759126,0.2780607972143743,0.035868035633507996,0.14663287491158739,0.04531535653474352,0.14631789612686585
1.000376656201043,0.27778293516045677,0.035821040882880656,0.14742341655727248,0.04779567923578377,0.14710108627876115
1.0004237382261734,0.2619162710265795,0.03469302184788036,0.139633635428265,0.048074518923119695,0.13930071262992272
1.0004708202513037,0.23107843684954268,0.031881875744287434,0.12167319492364326,0.046364287647324885,0.12132565356371809
1.0005179022764341,0.1884924826566669,0.027914434627877512,0.09811663264576473,0.04447978626379302,0.09775311996904891
1.0005649843015645,0.1401213853463462,0.02510856180086174,0.07552593926328457,0.04359378176327897,0.0751452276512601
1.0006120663266949,0.09311329616242185,0.024097777643451668,0.056936636782797936,0.04368533245572512,0.05653707366428337
1.0006591483518252,0.05338098213176131,0.025187268647731284,0.04656239048066332,0.04322031631046814,0.046156693457545375
1.0007062303769556,0.024158292773911582,0.026155790130930372,0.0379052596807291,0.04050570084089609,0.03751530252525383
1.000753312402086,0.006389706849983347,0.027698949152093526,0.024925530867037873,0.03649773515536998,0.024562846467299296
1.0008003944272164,4.4957735270936574e-05,0.028930744821590533,0.013623927240606612,0.032701502673632366,0.013291667738029813
1.0008474764523467,0.004476680458159687,0.028759317216685107,0.005279248516488982,0.03246421669780272,0.004945314617807228
1.000894558477477,0.016631009383087918,0.032414680429631755,0.00604487589630294,0.034200925411311894,0.005693641072346089
1.0009416405026075,0.030279800796216314,0.0366844656507655,0.01614856324889533,0.03864141510725388,0.015759361853134205
1.0009887225277379,0.04019506929021177,0.041825304000384984,0.031662352407458065,0.043764311555258666,0.031237908635848976
1.0010358045528682,0.045271217739530065,0.04549331243278371,0.049643587368788454,0.05109512918787117,0.049177693395442486
1.0010828865779986,0.04665854735345898,0.05089663698264784,0.06394396252727896,0.057070463858494166,0.06345599602073752
1.001129968603129,0.04557434040645729,0.05374951351237495,0.06951556918541625,0.06159098813835343,0.06900885623545491
1.0011770506282593,0.04281463251624272,0.054112694366658484,0.06676401531502141,0.062240602107091814,0.06624789486790675
1.0012241326533897,0.03911406922799136,0.05239462352627542,0.05756222886158259,0.058919618792929215,0.057050639678681805
1.00127121467852,0.035734840091298535,0.04780102285373597,0.04469056838221148,0.05337260990961195,0.044199843685564046
1.0013182967036505,0.034632288517627896,0.04459248157594333,0.03354469161607427,0.049099444867670296,0.03307500626783858
1.0013653787287808,0.03686446430802818,0.04281625901791087,0.03235087082016887,0.047415361390446525,0.03189459566155744
1.0014124607539112,0.040499198873267514,0.04189493086383723,0.04235422606047071,0.04888492524598679,0.04189694774344808
1.0014595427790416,0.04245011553894062,0.043588844204384115,0.05148956578485458,0.0535923356527484,0.05100698550968642
1.001506624804172,0.04142424671447975,0.045232439110011,0.057489670337512934,0.057163439511264444,0.05699027607138176
1.0015537068293023,0.03772147907862947,0.04679526971099969,0.05838903434484734,0.05754430524501953,0.05788847550765042
1.0016007888544327,0.032149333674356434,0.04513250959440788,0.05286952532393206,0.054333971375225484,0.05238339621654955
1.001647870879563,0.025799799790141527,0.039771373798193066,0.040386054375886556,0.04784081735206898,0.03993519815764333
1.0016949529046935,0.020580986012262138,0.032714910859697854,0.02276083148008517,0.03942051967152476,0.022368975947630917
1.0017420349298238,0.01993155776046648,0.028834281525446002,0.008396000375120035,0.033583988390538,0.008052257958708208
1.0017891169549542,0.027489951613850306,0.02744003480325299,0.00883020356959996,0.035155263671851046,0.008470861660857466
1.0018361989800846,0.042074300128446054,0.027661711743743395,0.022145335055818467,0.038831185474681486,0.021758620238206915
1.001883281005215,0.05845891480384451,0.03177464215093841,0.04104344236602053,0.04590642029641038,0.04060966637428077
1.0019303630303453,0.07582159493280267,0.03239776348966527,0.05832937685591873,0.05333159247189433,0.05785869577084595
1.0019774450554757,0.09824195100672209,0.029646823725677358,0.07041397317164165,0.05994832088376975,0.06991896749383061
1.002024527080606,0.1303669711588208,0.024276658711343956,0.07896421651578898,0.06020837695326707,0.07848364287067536
1.0020716091057364,0.17464242099810953,0.020358582009228177,0.08832693698111686,0.059870417364155167,0.08786568219305552
1.0021186911308668,0.22917237164395338,0.019937259613092013,0.11355266104308831,0.06034967350128797,0.11313710275913343
1.0021657731559972,0.2864808872447173,0.022314833470107834,0.14880372324738836,0.06278763270456332,0.1484534149212069
1.0022128551811276,0.335488571803669,0.025023232978252773,0.17945522269565434,0.06560230594564721,0.17917243685010265
1.002259937206258,0.3667004160945303,0.026418113879788794,0.20044309409803335,0.06729846740357821,0.20021289949584595
1.0023070192313883,0.37630521047742305,0.02645326331630098,0.20989430295355302,0.06726231589050573,0.2096862687673174
1.0023541012565187,0.3658732131217113,0.02584989827319825,0.20800353236518512,0.06573489795519885,0.20778560397788462
1.002401183281649,0.3393357840705059,0.025120531942854338,0.19716291122807472,0.06364223158331124,0.19691522436022313
1.0024482653067794,0.30043566038503033,0.023110392012533253,0.1783931936762516,0.05846710326240885,0.1781019304551337
1.0024953473319098,0.25183659939415354,0.020927101395298776,0.15384153094853617,0.048595583309796554,0.15352493317933996
1.0025424293570402,0.1956066522565673,0.017319992903855688,0.12081929242955049,0.03589625571790299,0.12052572052752586
1.0025895113821706,0.13475970805500284,0.015660617342955152,0.07564140824241966,0.01897823912396206,0.07545598600845232
1.002636593407301,0.07582916802294695,0.013854878789014369,0.025728531183742454,0.004231005801516071,0.025683599435220653
1.0026836754324313,0.03145358980808763,0.009130958628400932,-0.0040036080406334615,0.0022143157375594897,-0.004026338877460239
1.0027307574575617,0.01779891286180085,0.006604579426655785,-0.006351274616742859,0.016128971891420967,-0.006518838398335573
1.002777839482692,0.04358985242398123,0.009596841367394561,0.006591376950054447,0.033447001884832815,0.006248090118643222
1.0028249215078224,0.1037077589167159,0.021485072320851055,0.04281328660270074,0.04978845891727216,0.042349103873417955
1.0028720035329528,0.18101238562213362,0.03728658693147495,0.0979436666785688,0.053394564580008,0.09753109426682027
1.0029190855580832,0.25636899888384335,0.04818369012579855,0.15380629462607742,0.057546737599106106,0.15347145932571601
1.0029661675832136,0.31832235074100634,0.05057441006355014,0.19704252226634572,0.06255875982080084,0.1967921923263352
1.003013249608344,0.36361141655314383,0.053624797148407254,0.228525784613192,0.061141769533856735,0.22833465675318107
1.0030603316334743,0.39341420767750745,0.05476975688048635,0.24979870354304085,0.057476875062476146,0.249632532321066
1.0031074136586047,0.4102870696014962,0.05451216660705367,0.26258314989231946,0.0550311226699813,0.26242816518332096
1.003154495683735,0.41662904201390033,0.053148247004525785,0.266777273312063,0.05196664646118261,0.26661671050139996
1.0032015777088654,0.41405085665469693,0.05086527143732033,0.26326150551395927,0.04819343363017194,0.26308463522306097
1.0032486597339958,0.4030953535584088,0.04776904474875091,0.251751202986526,0.04353059538177899,0.2515531428473176
1.0032957417591262,0.38301151602067063,0.04367034041115653,0.2324239377319079,0.038255019264854064,0.232208327537547
1.0033428237842565,0.3514583105172215,0.0385566649634348,0.2047530276495091,0.032121582544185956,0.20453158416958134
1.003389905809387,0.3042863356687068,0.03231562218458541,0.16911475512504195,0.025442455885839592,0.16890672883113567
1.0034369878345173,0.2364892670841809,0.025386069704697645,0.12615890065588273,0.018315480083060248,0.125987827345531
1.0034840698596477,0.14805992805189566,0.018794738331208493,0.07745804013496241,0.011277973204887262,0.07734302780192515
1.003531151884778,0.05937981673678241,0.015036493350899143,0.035632586371168055,0.005960622792445711,0.035569684361904774
1.0035782339099084,0.016571701488668728,0.016661373413199367,0.012038086514572617,0.00464891720011921,0.011989426399385817
1.0036253159350388,0.04141534161646615,0.02501802637724619,0.014399178728297872,0.010308506172007027,0.014292421171734062
1.0036723979601692,0.0978579156313711,0.03729316319857495,0.03595348541122598,0.024597488570333184,0.03570805418804008
1.0037194799852995,0.14599333246590304,0.053039320395016604,0.06503465797160808,0.039263440173817894,0.06467671111076949
1.00376656201043,0.17300879075255565,0.0663718844211126,0.0922030709843016,0.05033296623958009,0.09179878179508731
1.0038136440355603,0.18229222765708752,0.0745906144987928,0.11374971918924169,0.05712580822924387,0.1133460870159049
1.0038607260606907,0.18262972424027749,0.07657874638119369,0.12736778710133306,0.06006379853974555,0.12697948726390224
1.003907808085821,0.18292620727983336,0.07988782684255295,0.13485525602086357,0.058886299810831724,0.13448384677654007
1.0039548901109514,0.18798821740501145,0.08096561745237513,0.13913083302593265,0.05889264952321452,0.1387672716880776
1.0040019721360818,0.19658928748535154,0.07680554963137007,0.1397247738744464,0.05806770569872926,0.13936400141064878
1.0040490541612122,0.20361099360789395,0.07011734965627903,0.1356935801867525,0.0591873174370338,0.13532304267924464
1.0040961361863425,0.20356945018764083,0.062043544307468945,0.1287855413388881,0.056567250803565915,0.12840949176957506
1.004143218211473,0.19261735903368254,0.055375523564971045,0.11776025800915435,0.05293805309129553,0.11737932600717021
1.0041903002366033,0.1692114287165738,0.046651564675689386,0.09836742477706704,0.04776955825100914,0.09798531027894287
1.0042373822617336,0.13469585530973552,0.03712200135312272,0.07519967777083232,0.03958423027231124,0.07484743374772558
1.004284464286864,0.094068350002802,0.027073867164048106,0.051842634052145065,0.03043785061767544,0.05154966321111396
1.0043315463119944,0.0558705414627791,0.017816213885391466,0.03082107495389939,0.020889184491858965,0.030610027923386064
1.0043786283371248,0.029785725493520713,0.011908476316104704,0.019809015244991575,0.012550794385697332,0.01967957491087959
1.0044257103622551,0.022326134922130727,0.009126033442580797,0.01684685304795892,0.007172735885027376,0.01677211577662898
1.0044727923873855,0.03362727707623793,0.008677781116623415,0.01768087969631584,0.005812862753969131,0.01762004645606811
1.004519874412516,0.057935866130881315,0.010848581369307796,0.0238553638180855,0.008018765767831821,0.02377185936624339
1.0045669564376463,0.08691312585069338,0.014760718023939747,0.038233159934289905,0.014562267371499535,0.03808463485125239
1.0046140384627766,0.11302745450084833,0.01886037533591319,0.05542672474865837,0.02542194759236348,0.055179420874410974
1.004661120487907,0.13143773576861661,0.022494824020936575,0.07126698378066398,0.03837777803981184,0.07092064791646241
1.0047082025130374,0.140315951549541,0.027412752712572125,0.0817840112464661,0.050589159761572626,0.08136435056478077
1.0047552845381678,0.14016084842095028,0.028639206601495843,0.0846685751900148,0.06016511226156694,0.08419895715662683
1.0048023665632981,0.13271042804166153,0.02815132046792902,0.08028160564993014,0.06774834680055569,0.07976439197581454
1.0048494485884285,0.1199532079956697,0.024321634919845844,0.06958311394397716,0.07216527409558152,0.06901635510203727
1.0048965306135589,0.10352759540252561,0.022932413104423684,0.05738407400153901,0.07231015991930098,0.056783823355519326
1.0049436126386893,0.08458770500586026,0.0217858014592564,0.04469505929439128,0.06830088183401087,0.044090039282699514
1.0049906946638196,0.06411017510052013,0.019576304532006785,0.03435472552873721,0.061170136367266266,0.03378356626197276
1.00503777668895,0.043500849939608656,0.01591903068991717,0.022887706523455283,0.053499273735353396,0.02236476145536598
1.0050848587140804,0.02497562650004661,0.011540173580559556,0.013888116903115118,0.045927747274599945,0.013425941645173082
1.0051319407392107,0.011013597455985432,0.005997816884762502,0.011624969459267675,0.03913771483184271,0.011227630620024727
1.0051790227643411,0.003334338693202587,0.0032498314847863433,0.009001101837417943,0.030708033354018397,0.008686673033550397
1.0052261047894715,0.0027948227754708652,-0.0004627310909279211,0.005716764128480125,0.018303039779425292,0.005527806054084593
1.0052731868146019,0.010164673003053454,-0.0011110905791932022,0.005314070387151807,0.007406277855877128,0.005237216522898412
1.0053202688397322,0.026566180290056158,-0.0009492408951707362,0.008193549268036414,0.0013097031112895496,0.008179551960632555
1.0053673508648626,0.05291846997433676,-0.0008403969274952181,0.011498759854167706,-0.001353901218774995,0.011512174786180978
1.005414432889993,0.08828034555015178,-0.001891550652952445,0.017065936640710815,-0.00218893483264789,0.017087725772073997
1.0054615149151234,0.12763762777320273,-0.0015604928432778596,0.025647230237824777,-0.0010986459309089089,0.0256572394596714
1.0055085969402537,0.16155770115500132,0.0002816199861284865,0.038076850744054896,0.0032288706772354804,0.03804163638116543
1.0055556789653841,0.18078890709766565,0.002722460871152219,0.05135766337998839,0.010564063749844109,0.051248774787042914
1.0056027609905145,0.18307418566708303,0.0027240209467387106,0.06056084021799014,0.01876359356522646,0.06037490146314217
1.0056498430156449,0.1741533504439713,0.004480741257327746,0.06655908741414072,0.026999255759765924,0.06630178141863802
1.0056969250407752,0.16242605985016223,0.005829225450780005,0.07063087442771013,0.03397683382992879,0.07031818242723634
1.0057440070659056,0.15418810481596457,0.005019785766000401,0.07107575192890922,0.03908773891240664,0.07072390494690071
1.005791089091036,0.1523552110015489,0.0030374197151677436,0.0660360559428213,0.041428921149645574,0.06566231711081699
1.0058381711161664,0.15691036178882456,0.002666117168918816,0.06130313889977103,0.04139196940006423,0.06092553480280862
1.0058852531412967,0.16538784679386007,0.0036387324733210113,0.06307528196508604,0.03890113511295288,0.0627186405467947
1.005932335166427,0.17322460684996496,0.005884779860915774,0.06323184659303546,0.03454361932971967,0.0629101870193983
1.0059794171915575,0.17475929729964576,0.005239067102861835,0.05880087400333982,0.029391662430015675,0.05852005109456402
1.0060264992166879,0.16548577922015562,0.00358721725239281,0.05204155960234529,0.024999362305210136,0.05179701795959756
1.0060735812418182,0.1445721481217929,0.0017622542424639296,0.04234591607178599,0.02078875114149486,0.04213798078013752
1.0061206632669486,0.11538472372115638,-0.0002535595040201305,0.03266210113426135,0.01873358133397355,0.03247230587652247
1.006167745292079,0.08342022676517998,0.0001362596459578481,0.0259645785337829,0.017669813716332663,0.025784365870237646
1.0062148273172093,0.053714935068683495,0.0026431201070173083,0.01794830890199036,0.01764473023818006,0.017767431453071428
1.0062619093423397,0.029620632829972474,0.006314775972066484,0.006428025048282717,0.019723096165281184,0.006224607681335465
1.00630899136747,0.012907514843990737,0.00851053348555407,-0.004503164505502606,0.019416920712352435,-0.0047049276469147
1.0063560733926005,0.004292560353454192,0.01189622285915723,-0.010519166817943732,0.01880607390874719,-0.01071526126356556
1.0064031554177308,0.0038095921685766332,0.014941874489922463,-0.007972360122875525,0.01901965531232806,-0.008170400231993927
1.0064502374428612,0.010924293923755681,0.018723471649418257,0.0013341291502741227,0.019217624558191152,0.0011352078940537744
1.0064973194679916,0.02453035587728399,0.024052241990428828,0.011333716656649779,0.02113850982618065,0.011116677045184375
1.006544401493122,0.042966387475684646,0.028067073090669248,0.020787738978896356,0.023011435380597016,0.02055386048822903
1.0065914835182523,0.06411092062196938,0.03196886052449129,0.03329944681240632,0.024667445697107115,0.033052620400999135
1.0066385655433827,0.08556714248621351,0.03661106399563648,0.049462130528264495,0.026778161182082125,0.049200722396393524
1.006685647568513,0.10493697207975199,0.03909443021158969,0.06485229624100503,0.02923659018257592,0.0645753827426456
1.0067327295936435,0.12014720761669652,0.038628455708239896,0.07640706666955516,0.031054187402990062,0.07612062735641044
1.0067798116187738,0.12974860817624662,0.03623448713494534,0.08294186479002422,0.029774380553948352,0.08266860335902662
1.0068268936439042,0.1331160769266914,0.032988986801670984,0.08436945777741765,0.026970355220091738,0.08411895047534977
1.0068739756690346,0.13051634907150206,0.030557851443395373,0.08386978816652868,0.023509979567353692,0.08364731512732897
1.006921057694165,0.12301693370584733,0.027411820522358462,0.08185258015702256,0.017182152102807182,0.08168400209252062
1.0069681397192953,0.11219272060745543,0.022681025085420685,0.07585112215539112,0.011415609827947199,0.07573475520622414
1.0070152217444257,0.09964098937742749,0.016721890817654746,0.06985230351433948,0.006167599804776211,0.06978647662930804
1.007062303769556,0.08648287672211809,0.011669774127693839,0.06302251331950957,0.002529945041279611,0.06299329678897786
1.0071093857946865,0.07315337862299943,0.006429106465308165,0.053521194673379444,0.0003477574635763478,0.05351474817343099
1.0071564678198168,0.05967551136841471,0.0007230079414847278,0.042771215350936226,-0.0006074347472084236,0.04277520752311839
1.0072035498449472,0.046352747241279996,-0.002021560932852979,0.029687677967592516,0.00024797927948545193,0.029683522392223605
1.0072506318700776,0.03458526276589038,-0.004005558370444662,0.01916866027493343,0.0015604765652337622,0.01915150080021374
1.007297713895208,0.02727830692374265,-0.003897490870519167,0.01473006896934623,0.0032737351032696856,0.014695458683857514
1.0073447959203383,0.0280866607277734,-0.002524073342096681,0.01711698325886342,0.00636078282742797,0.01705055272683945
1.0073918779454687,0.03925806445151868,0.00026693490590865677,0.028584290137595406,0.011185178668567865,0.028468820553408124
1.007438959970599,0.059562255279517966,0.006144235964610774,0.043832242766228824,0.015932085688730276,0.043670874074994225
1.0074860419957294,0.08449757331606145,0.011779930076292265,0.058037587268334905,0.022591745508995904,0.05781635804390684
1.0075331240208598,0.10858230355013457,0.01642822903678879,0.06858033205585247,0.028208410979793062,0.06831358984733235
1.0075802060459902,0.12742598805780986,0.01814223618870241,0.07621925524513734,0.032373591306583405,0.07592232950433021
1.0076272880711206,0.13840784538629322,0.019695985511056887,0.07904744927672683,0.03604082525431872,0.07872422328725182
1.007674370096251,0.14057521646913557,0.01933654288400831,0.0769603579802706,0.03912866271342325,0.07661285566853471
1.0077214521213813,0.1345761316442056,0.016193355558027932,0.07084930100861353,0.04025081859356849,0.07048855021866308
