freq,gls,usurper,pdc_unbiased,shape_periodogram,shift_periodogram
1.0,0.02176245538732735,0.023207960362538926,-0.007335655112181927,-0.01313937894666532,-0.007113813430889725
1.0000470820251304,0.05134779247241603,0.029787572368508538,0.016081221596065367,-0.011021209479722642,0.01626558814469542
1.0000941640502607,0.09689124580742478,0.0328384035523336,0.05094334186944231,-0.003136257772304976,0.05098902412808772
1.0001412460753911,0.14848755125694818,0.03400719035685687,0.08456655871201842,0.003769116982432873,0.08449239129456437
1.0001883281005215,0.19664060203551523,0.03501779748766116,0.10917973127593883,0.012030196457186984,0.10897307106599712
1.0002354101256519,0.23592916525893703,0.035049472387621176,0.12678225514793529,0.01814752583722596,0.12648652996380003
1.0002824921507822,0.26363730657080775,0.033181197925532896,0.13936052532630389,0.020442674007836042,0.13903506231565704
1.0003295741759126,0.2780607972143743,0.03231706349815532,0.14663287491158739,0.02148640998420253,0.14629503458201762
1.000376656201043,0.27778293516045677,0.03191548160297442,0.14742341655727248,0.02155175420103389,0.14708490325270698
1.0004237382261734,0.2619162710265795,0.029635314371280527,0.139633635428265,0.02135629336854528,0.13929588392843606
1.0004708202513037,0.23107843684954268,0.025740561610950063,0.12167319492364326,0.020169980935408744,0.1213480776368116
1.0005179022764341,0.1884924826566669,0.020752560849030887,0.09811663264576473,0.018032360407191802,0.09781905853120672
1.0005649843015645,0.1401213853463462,0.016892430325063514,0.07552593926328457,0.016143919456912743,0.07525527678738403
1.0006120663266949,0.09311329616242185,0.014296296903514165,0.056936636782797936,0.013457071090959838,0.05670800757798221
1.0006591483518252,0.05338098213176131,0.013624433301964507,0.04656239048066332,0.010153985120958343,0.04638761257609908
1.0007062303769556,0.024158292773911582,0.012725945230997873,0.0379052596807291,0.007043149092138354,0.037782380327152476
1.000753312402086,0.006389706849983347,0.011964161992697314,0.024925530867037873,0.00323102033134525,0.024867722869685104
1.0008003944272164,4.4957735270936574e-05,0.013036095562634957,0.013623927240606612,-0.0011790941838458232,0.013641867445679433
1.0008474764523467,0.004476680458159687,0.012764506425321214,0.005279248516488982,-0.0032393385664921857,0.005333115440700037
1.000894558477477,0.016631009383087918,0.01560052508853221,0.00604487589630294,-0.0032019575684438255,0.006098006738919992
1.0009416405026075,0.030279800796216314,0.022644640607409665,0.01614856324889533,-0.0014976992095580156,0.016171518756635025
1.0009887225277379,0.04019506929021177,0.03064742637711474,0.031662352407458065,0.005678782497609161,0.03156281057952027
1.0010358045528682,0.045271217739530065,0.03706984800031828,0.049643587368788454,0.013732777630878417,0.04941062185848759
1.0010828865779986,0.04665854735345898,0.03805148398924785,0.06394396252727896,0.021770062176206154,0.06358528177115713
1.001129968603129,0.04557434040645729,0.03990419378070744,0.06951556918541625,0.027746681227296597,0.06906797098057
1.0011770506282593,0.04281463251624272,0.038864853690608055,0.06676401531502141,0.03054730512124803,0.06627398154789482
1.0012241326533897,0.03911406922799136,0.03424169907402693,0.05756222886158259,0.03136628899292819,0.057056064062657015
1.00127121467852,0.035734840091298535,0.028868721463495006,0.04469056838221148,0.03115937562973266,0.044182086326640536
1.0013182967036505,0.034632288517627896,0.02460246227497789,0.03354469161607427,0.031388242491201805,0.03302809745358629
1.0013653787287808,0.03686446430802818,0.024085478877745908,0.03235087082016887,0.032108215298501754,0.03182240365829551
1.0014124607539112,0.040499198873267514,0.02525060452521633,0.04235422606047071,0.03351439173310801,0.04180836472049278
1.0014595427790416,0.04245011553894062,0.025071706366488353,0.05148956578485458,0.03409245377062848,0.05093952250340119
1.001506624804172,0.04142424671447975,0.02334022358011772,0.057489670337512934,0.031142010028997656,0.05698683836058122
1.0015537068293023,0.03772147907862947,0.02172164564856367,0.05838903434484734,0.026513962470280948,0.05795651576150425
1.0016007888544327,0.032149333674356434,0.020330730671434868,0.05286952532393206,0.01984516205139113,0.05253930784605823
1.001647870879563,0.025799799790141527,0.01893437735304035,0.040386054375886556,0.011251465971329326,0.040193714594515796
1.0016949529046935,0.020580986012262138,0.015160773937270193,0.02276083148008517,0.0033783474463583004,0.022700840802153403
1.0017420349298238,0.01993155776046648,0.014296531717722182,0.008396000375120035,-0.0022301558074590898,0.008432408791968798
1.0017891169549542,0.027489951613850306,0.015018436978807219,0.00883020356959996,-0.004206446695790454,0.008899909178916386
1.0018361989800846,0.042074300128446054,0.013076236440355209,0.022145335055818467,-0.0020851659746276533,0.022177354229871663
1.001883281005215,0.05845891480384451,0.013232802069604959,0.04104344236602053,0.0024767897649027064,0.04099611418611301
1.0019303630303453,0.07582159493280267,0.018995832249842266,0.05832937685591873,0.007129463203559544,0.0582030576462633
1.0019774450554757,0.09824195100672209,0.026070890771300766,0.07041397317164165,0.012119518553514685,0.07020642199054332
1.002024527080606,0.1303669711588208,0.026440588597165894,0.07896421651578898,0.017052974694482696,0.07867973072081678
1.0020716091057364,0.17464242099810953,0.023046263142043995,0.08832693698111686,0.020841228292127176,0.08798631228668304
1.0021186911308668,0.22917237164395338,0.0247925038715119,0.11355266104308831,0.0239663865534255,0.11317269777170587
1.0021657731559972,0.2864808872447173,0.0277618456565988,0.14880372324738836,0.025963267751259136,0.1484088476231032
1.0022128551811276,0.335488571803669,0.03140551155406437,0.17945522269565434,0.027388196630160667,0.1790560710958808
1.002259937206258,0.3667004160945303,0.03395156265700939,0.20044309409803335,0.02730856416132888,0.2000545689816268
1.0023070192313883,0.37630521047742305,0.035487842810653196,0.20989430295355302,0.02616130653931911,0.20952223848915247
1.0023541012565187,0.3658732131217113,0.03592850058908531,0.20800353236518512,0.024108245983183216,0.20765276444261785
1.002401183281649,0.3393357840705059,0.03626749934091559,0.19716291122807472,0.020889835958538376,0.19684553232934282
1.0024482653067794,0.30043566038503033,0.03547718942507914,0.1783931936762516,0.016365553131507678,0.17812900182387947
1.0024953473319098,0.25183659939415354,0.03312121667851156,0.15384153094853617,0.009484433230117018,0.15367274609418002
1.0025424293570402,0.1956066522565673,0.02686493134092962,0.12081929242955049,0.0021230167724888343,0.12076765501220536
1.0025895113821706,0.13475970805500284,0.019109458200395082,0.07564140824241966,-0.00439091979772629,0.07570481658178395
1.002636593407301,0.07582916802294695,0.012661661980778973,0.025728531183742454,-0.006766417738274124,0.025839388313739855
1.0026836754324313,0.03145358980808763,0.012668935815372087,-0.0040036080406334615,-0.00404677634794639,-0.003934875016525506
1.0027307574575617,0.01779891286180085,0.0165821134869836,-0.006351274616742859,0.0039810307641596435,-0.00641750975791176
1.002777839482692,0.04358985242398123,0.012624045839205844,0.006591376950054447,0.015337251971807051,0.006332730920391039
1.0028249215078224,0.1037077589167159,0.013658964631052355,0.04281328660270074,0.024753876486673033,0.04240415831996261
1.0028720035329528,0.18101238562213362,0.016196046556467194,0.0979436666785688,0.038094785297323915,0.09736705876921742
1.0029190855580832,0.25636899888384335,0.025108227175296698,0.15380629462607742,0.04124678581536069,0.1532416152836271
1.0029661675832136,0.31832235074100634,0.03862608948189937,0.19704252226634572,0.03513271587430497,0.19657426044926993
1.003013249608344,0.36361141655314383,0.043424539126611816,0.228525784613192,0.0331700465846178,0.22809812433042603
1.0030603316334743,0.39341420767750745,0.045611084662666404,0.24979870354304085,0.03172354329812268,0.24939768932736045
1.0031074136586047,0.4102870696014962,0.045467101182830684,0.26258314989231946,0.028689434887147307,0.2622144991325914
1.003154495683735,0.41662904201390033,0.0445637728102029,0.266777273312063,0.025687289259084367,0.26643617173092654
1.0032015777088654,0.41405085665469693,0.04292608542082109,0.26326150551395927,0.02208750627410265,0.26295215650334364
1.0032486597339958,0.4030953535584088,0.040550292385428024,0.251751202986526,0.017636295630639596,0.25148490798749956
1.0032957417591262,0.38301151602067063,0.0374115471592637,0.2324239377319079,0.012492993583980786,0.23221612948231996
1.0033428237842565,0.3514583105172215,0.03352846880762693,0.2047530276495091,0.006745456024694319,0.20462301910200828
1.003389905809387,0.3042863356687068,0.028488267146065074,0.16911475512504195,0.000706729941237875,0.16908006323125516
1.0034369878345173,0.2364892670841809,0.022963348067414638,0.12615890065588273,-0.005186274148949804,0.12622826261279194
1.0034840698596477,0.14805992805189566,0.01763265185979694,0.07745804013496241,-0.010252599253529738,0.07762238752962161
1.003531151884778,0.05937981673678241,0.014850649052202245,0.035632586371168055,-0.012662601361387736,0.03584339038337924
1.0035782339099084,0.016571701488668728,0.01579739625596788,0.012038086514572617,-0.010539109503140418,0.012214626639523033
1.0036253159350388,0.04141534161646615,0.020936371830354367,0.014399178728297872,-0.002995965092782416,0.014447672850258251
1.0036723979601692,0.0978579156313711,0.029584700707833943,0.03595348541122598,0.005371554758753642,0.03585855364589334
1.0037194799852995,0.14599333246590304,0.037970833332484126,0.06503465797160808,0.014725011034147643,0.06478586880713605
1.00376656201043,0.17300879075255565,0.04152107779293585,0.0922030709843016,0.024138929840814817,0.09181496770452195
1.0038136440355603,0.18229222765708752,0.04462415838650382,0.11374971918924169,0.030874701444124287,0.1132767871366409
1.0038607260606907,0.18262972424027749,0.045060124775671596,0.12736778710133306,0.03670592390189986,0.12683041870396364
1.003907808085821,0.18292620727983336,0.04114253439967999,0.13485525602086357,0.04306658846476702,0.1342525905343497
1.0039548901109514,0.18798821740501145,0.039349063289769046,0.13913083302593265,0.04408016662901242,0.13852200840892476
1.0040019721360818,0.19658928748535154,0.0390953390332693,0.1397247738744464,0.04194002349052875,0.139139071977504
1.0040490541612122,0.20361099360789395,0.03830443174182676,0.1356935801867525,0.037244593210718505,0.13515623661413448
1.0040961361863425,0.20356945018764083,0.035423525623978505,0.1287855413388881,0.032483182815894796,0.12830022797150417
1.004143218211473,0.19261735903368254,0.030207828559268762,0.11776025800915435,0.027289333279042156,0.11733646452244022
1.0041903002366033,0.1692114287165738,0.024112282537347568,0.09836742477706704,0.020487149601493646,0.09803368912834323
1.0042373822617336,0.13469585530973552,0.017757598568674187,0.07519967777083232,0.013111641045933892,0.0749763693965345
1.004284464286864,0.094068350002802,0.012012285684540382,0.051842634052145065,0.005881086340635774,0.051737471240567295
1.0043315463119944,0.0558705414627791,0.007744372641627438,0.03082107495389939,-0.0011948903613554327,0.030836832288976396
1.0043786283371248,0.029785725493520713,0.006149738858375658,0.019809015244991575,-0.0072547253788825495,0.01992891531931543
1.0044257103622551,0.022326134922130727,0.006692243565285733,0.01684685304795892,-0.012063623765426317,0.017048916153860658
1.0044727923873855,0.03362727707623793,0.008525358616297836,0.01768087969631584,-0.013845568941714945,0.017913307702294514
1.004519874412516,0.057935866130881315,0.01190975515604588,0.0238553638180855,-0.013016977536322288,0.024073196078448194
1.0045669564376463,0.08691312585069338,0.016486991385320674,0.038233159934289905,-0.009576292241269439,0.038390525341102794
1.0046140384627766,0.11302745450084833,0.021793813627152103,0.05542672474865837,-0.0033087258401117035,0.05547468367092819
1.004661120487907,0.13143773576861661,0.025927488712104946,0.07126698378066398,0.003587655930195155,0.07119736872955676
1.0047082025130374,0.140315951549541,0.027759846882970583,0.0817840112464661,0.0111162953880535,0.08159201658539993
1.0047552845381678,0.14016084842095028,0.027768791765514878,0.0846685751900148,0.01806670561040883,0.08436909616886144
1.0048023665632981,0.13271042804166153,0.025940295502553418,0.08028160564993014,0.02217710308256155,0.07991965832280266
1.0048494485884285,0.1199532079956697,0.024089980202224016,0.06958311394397716,0.02602917116246517,0.06916110555142735
1.0048965306135589,0.10352759540252561,0.020732501314104358,0.05738407400153901,0.028022538975853137,0.056928296533359894
1.0049436126386893,0.08458770500586026,0.016216312947860023,0.04469505929439128,0.027957917193391812,0.044236217896704594
1.0049906946638196,0.06411017510052013,0.012838553675583815,0.03435472552873721,0.026635665125083762,0.03391377733258377
1.00503777668895,0.043500849939608656,0.010066702402421001,0.022887706523455283,0.02360986243355876,0.02249314661164305
1.0050848587140804,0.02497562650004661,0.008069465443137124,0.013888116903115118,0.0183303576687189,0.013579601165029653
1.0051319407392107,0.011013597455985432,0.005008415939898437,0.011624969459267675,0.012397062269833694,0.0114153159844967
1.0051790227643411,0.003334338693202587,0.003505961189171715,0.009001101837417943,0.005232626720017505,0.008911773426532082
1.0052261047894715,0.0027948227754708652,0.00011422055873743646,0.005716764128480125,-0.0002557094694721576,0.005720261617005438
1.0052731868146019,0.010164673003053454,-0.003178115309780471,0.005314070387151807,-0.003959815831131378,0.005380087852152208
1.0053202688397322,0.026566180290056158,-0.0047998998929523464,0.008193549268036414,-0.010434728546591537,0.0083686745129504
1.0053673508648626,0.05291846997433676,-0.004125384884516868,0.011498759854167706,-0.014276918443675528,0.011738876413837042
1.005414432889993,0.08828034555015178,-0.0007626275188246208,0.017065936640710815,-0.014466561271713576,0.01730901425694156
1.0054615149151234,0.12763762777320273,0.0023758771935441445,0.025647230237824777,-0.013000998704022501,0.025864656307601847
1.0055085969402537,0.16155770115500132,0.004792163326075861,0.038076850744054896,-0.009017920041863232,0.03822464606981778
1.0055556789653841,0.18078890709766565,0.00684746368050672,0.05135766337998839,-0.0027404523360374617,0.0513965823808567
1.0056027609905145,0.18307418566708303,0.007030359695356286,0.06056084021799014,0.003997757090895789,0.06048575046569701
1.0056498430156449,0.1741533504439713,0.006497006726488126,0.06655908741414072,0.009864280381207123,0.0663877553624261
1.0056969250407752,0.16242605985016223,0.005350803159426544,0.07063087442771013,0.015417679813787593,0.07037132461716693
1.0057440070659056,0.15418810481596457,0.004152905837967846,0.07107575192890922,0.019357939988237108,0.07075512844780824
1.005791089091036,0.1523552110015489,0.003097749726444606,0.0660360559428213,0.02178338816428789,0.0656775162191304
1.0058381711161664,0.15691036178882456,0.003174601565135919,0.06130313889977103,0.02426735189352283,0.06090565747252492
1.0058852531412967,0.16538784679386007,0.0038234357274293256,0.06307528196508604,0.025503897392759472,0.06265940171140442
1.005932335166427,0.17322460684996496,0.0024837673076057694,0.06323184659303546,0.02552029983512568,0.0628157587100958
1.0059794171915575,0.17475929729964576,0.0010016528359795948,0.05880087400333982,0.023726173052705416,0.05841115136919243
1.0060264992166879,0.16548577922015562,5.8021729927104666e-05,0.05204155960234529,0.020098236616591266,0.05170726569441327
1.0060735812418182,0.1445721481217929,0.0004731605281037995,0.04234591607178599,0.01430147854932091,0.042103840015932044
1.0061206632669486,0.11538472372115638,0.0006244580285941454,0.03266210113426135,0.007324329423635541,0.03253510280495111
1.006167745292079,0.08342022676517998,0.0003066441186319711,0.0259645785337829,0.0005854324345299404,0.025951042112203872
1.0062148273172093,0.053714935068683495,0.00040950971868645276,0.01794830890199036,-0.004414891182596228,0.01802030224939299
1.0062619093423397,0.029620632829972474,-0.00011899747802272016,0.006428025048282717,-0.0074788232613856335,0.006553324391595836
1.00630899136747,0.012907514843990737,8.76523988307386e-05,-0.004503164505502606,-0.007189410585631117,-0.004381482287540013
1.0063560733926005,0.004292560353454192,0.0008611983507832622,-0.010519166817943732,-0.005026751173395319,-0.01043310553965656
1.0064031554177308,0.0038095921685766332,0.0037476881659919245,-0.007972360122875525,-0.002425756296118541,-0.007930375162055575
1.0064502374428612,0.010924293923755681,0.009098534768546149,0.0013341291502741227,0.0036199545258959382,0.0012729428992267818
1.0064973194679916,0.02453035587728399,0.012408681390878947,0.011333716656649779,0.010985110548077283,0.011147688376510716
1.006544401493122,0.042966387475684646,0.01550301034922815,0.020787738978896356,0.017795238667580073,0.020488328305156175
1.0065914835182523,0.06411092062196938,0.015383810231656936,0.03329944681240632,0.022161224635496673,0.032929943468311525
1.0066385655433827,0.08556714248621351,0.01692061399427921,0.049462130528264495,0.02373523096998739,0.04907037109210311
1.006685647568513,0.10493697207975199,0.018044841124472213,0.06485229624100503,0.023555674578721774,0.06446645236284503
1.0067327295936435,0.12014720761669652,0.019431356873085354,0.07640706666955516,0.022625923524799883,0.07603764569531811
1.0067798116187738,0.12974860817624662,0.019349056192357557,0.08294186479002422,0.020899842407101542,0.08259948317097851
1.0068268936439042,0.1331160769266914,0.021036312939817992,0.08436945777741765,0.018854325940278985,0.08405802847109908
1.0068739756690346,0.13051634907150206,0.019179383726910932,0.08386978816652868,0.016057131951556863,0.08360090161591925
1.006921057694165,0.12301693370584733,0.0156449879410507,0.08185258015702256,0.013658392321761116,0.08162072097583621
1.0069681397192953,0.11219272060745543,0.011467359130840403,0.07585112215539112,0.010302413132717158,0.07567227625170946
1.0070152217444257,0.09964098937742749,0.008263539332530066,0.06985230351433948,0.006585925024142818,0.06973375746664515
1.007062303769556,0.08648287672211809,0.006604719804967101,0.06302251331950957,0.002371426900528901,0.06297404835914039
1.0071093857946865,0.07315337862299943,0.008016502790326034,0.053521194673379444,-0.001601941812360528,0.053540564995601975
1.0071564678198168,0.05967551136841471,0.00917764864462777,0.042771215350936226,-0.005498368202149752,0.04285820565259665
1.0072035498449472,0.046352747241279996,0.008133898507527574,0.029687677967592516,-0.008518906316142577,0.029827921269053644
1.0072506318700776,0.03458526276589038,0.00832962494486297,0.01916866027493343,-0.009759517133280923,0.0193312402432374
1.007297713895208,0.02727830692374265,0.008854807959734257,0.01473006896934623,-0.010596325854793866,0.014907330078720906
1.0073447959203383,0.0280866607277734,0.009609030288591853,0.01711698325886342,-0.010914115119519889,0.017299431633288297
1.0073918779454687,0.03925806445151868,0.013185348288570117,0.028584290137595406,-0.009243969290681778,0.02873705303217641
1.007438959970599,0.059562255279517966,0.01743404628871272,0.043832242766228824,-0.005641925457645681,0.04392153380409604
1.0074860419957294,0.08449757331606145,0.020412288186016207,0.058037587268334905,-0.0013852750529600544,0.05805265589961716
1.0075331240208598,0.10858230355013457,0.021488347298548073,0.06858033205585247,0.0032127621829137563,0.0685172285191028
1.0075802060459902,0.12742598805780986,0.022132537239267173,0.07621925524513734,0.005786489912291173,0.07611309124597189
1.0076272880711206,0.13840784538629322,0.02105197745056488,0.07904744927672683,0.00742061947451446,0.07891456498015634
1.007674370096251,0.14057521646913557,0.01905572115061687,0.0769603579802706,0.008434076851581382,0.07681133212998958
