freq,gls,usurper,pdc_unbiased,shape_periodogram,shift_periodogram
1.0,0.02176245538732735,0.028438840810818534,-0.007335655112181927,0.005761217882759921,-0.007567680350151592
1.0000470820251304,0.05134779247241603,0.0429510054487147,0.016081221596065367,0.01231519672585515,0.015559687495879116
1.0000941640502607,0.09689124580742478,0.05708321049139447,0.05094334186944231,0.026750278123883586,0.04981592117617007
1.0001412460753911,0.14848755125694818,0.07200688026152036,0.08456655871201842,0.0430190700407289,0.08281094919145537
1.0001883281005215,0.19664060203551523,0.08569431085618921,0.10917973127593883,0.06042508601444114,0.10682572937442478
1.0002354101256519,0.23592916525893703,0.09495026698291878,0.12678225514793529,0.07365916685711081,0.12403332538805581
1.0002824921507822,0.26363730657080775,0.09874743182847483,0.13936052532630389,0.08147894325364426,0.13641542681907678
1.0003295741759126,0.2780607972143743,0.1011023567235697,0.14663287491158739,0.08644941607298023,0.143574315092128
1.000376656201043,0.27778293516045677,0.10210800030722023,0.14742341655727248,0.08860735013087617,0.14430835428843922
1.0004237382261734,0.2619162710265795,0.09886160842087438,0.139633635428265,0.08885097960350968,0.13647694037066083
1.0004708202513037,0.23107843684954268,0.09144240327639198,0.12167319492364326,0.08595373249004482,0.11852583032510897
1.0005179022764341,0.1884924826566669,0.08157514669248556,0.09811663264576473,0.08097397263351419,0.09504160250146007
1.0005649843015645,0.1401213853463462,0.07383314821037441,0.07552593926328457,0.07579421103977017,0.07256137521030688
1.0006120663266949,0.09311329616242185,0.06854333423108637,0.056936636782797936,0.06956982698322066,0.05415591635795964
1.0006591483518252,0.05338098213176131,0.06685381867423856,0.04656239048066332,0.06106951447264066,0.0440876988674654
1.0007062303769556,0.024158292773911582,0.06445785801882846,0.0379052596807291,0.05026121920809156,0.03584437510062801
1.000753312402086,0.006389706849983347,0.06047293855031007,0.024925530867037873,0.03722830932980797,0.023382613467422323
1.0008003944272164,4.4957735270936574e-05,0.058695381193933534,0.013623927240606612,0.02560888788477333,0.012557898716242907
1.0008474764523467,0.004476680458159687,0.0561053067754767,0.005279248516488982,0.02200909279727905,0.0043658819906440055
1.000894558477477,0.016631009383087918,0.05888024848047422,0.00604487589630294,0.02498826578918342,0.005008206009471664
1.0009416405026075,0.030279800796216314,0.06866437937625568,0.01614856324889533,0.03389198852001086,0.014742500605405722
1.0009887225277379,0.04019506929021177,0.0830375884306946,0.031662352407458065,0.0492103889170895,0.029639497528378054
1.0010358045528682,0.045271217739530065,0.09503433164605987,0.049643587368788454,0.06739425702276067,0.0469310823423286
1.0010828865779986,0.04665854735345898,0.10068405433344205,0.06394396252727896,0.08485330862303878,0.06061948086482314
1.001129968603129,0.04557434040645729,0.10299302839864004,0.06951556918541625,0.0978178885665341,0.06575379757105412
1.0011770506282593,0.04281463251624272,0.09901619185751682,0.06676401531502141,0.10409114680192692,0.06277019389990107
1.0012241326533897,0.03911406922799136,0.08993903059935307,0.05756222886158259,0.10486521775093459,0.05349165059890561
1.00127121467852,0.035734840091298535,0.07862042369107937,0.04469056838221148,0.1020253703468129,0.04065757532182959
1.0013182967036505,0.034632288517627896,0.06929840417518898,0.03354469161607427,0.09958470429329253,0.02955171207547689
1.0013653787287808,0.03686446430802818,0.06879021386828275,0.03235087082016887,0.098466404304457,0.02839574431462957
1.0014124607539112,0.040499198873267514,0.07532866879385695,0.04235422606047071,0.09979844881426438,0.03839344697952598
1.0014595427790416,0.04245011553894062,0.08265954524380914,0.05148956578485458,0.1014984776097958,0.04750944965227294
1.001506624804172,0.04142424671447975,0.08641470548820598,0.057489670337512934,0.09861164114387772,0.05364316760761264
1.0015537068293023,0.03772147907862947,0.08600774487207605,0.05838903434484734,0.09063281401125575,0.054835089708875316
1.0016007888544327,0.032149333674356434,0.08205448644512112,0.05286952532393206,0.07704885683529485,0.04979915711159618
1.001647870879563,0.025799799790141527,0.07440920884619562,0.040386054375886556,0.05845732554980291,0.03800517850473087
1.0016949529046935,0.020580986012262138,0.06221805917919668,0.02276083148008517,0.03867537463364141,0.021159367964785958
1.0017420349298238,0.01993155776046648,0.05336640893123169,0.008396000375120035,0.023536384167023798,0.0074178818394924784
1.0017891169549542,0.027489951613850306,0.05185333137299279,0.00883020356959996,0.020723034876280588,0.007967684242402186
1.0018361989800846,0.042074300128446054,0.053786147135241845,0.022145335055818467,0.02725322158435305,0.02100824038656511
1.001883281005215,0.05845891480384451,0.061483802619084635,0.04104344236602053,0.040615209593634,0.03936571179374071
1.0019303630303453,0.07582159493280267,0.07258092674967444,0.05832937685591873,0.05557991765198279,0.05607943980302023
1.0019774450554757,0.09824195100672209,0.0808075122978209,0.07041397317164165,0.07079289142768458,0.06761690649743557
1.002024527080606,0.1303669711588208,0.08008053011853679,0.07896421651578898,0.08169574011147142,0.07580160408726756
1.0020716091057364,0.17464242099810953,0.07499799345568368,0.08832693698111686,0.08858186978224931,0.08496225787668754
1.0021186911308668,0.22917237164395338,0.07826167052296264,0.11355266104308831,0.09405971171556296,0.1101227292707906
1.0021657731559972,0.2864808872447173,0.0868564078419407,0.14880372324738836,0.09978572760783887,0.14539666325180073
1.0022128551811276,0.335488571803669,0.09528547738874471,0.17945522269565434,0.10479077022906307,0.17611662276030085
1.002259937206258,0.3667004160945303,0.10061332679678424,0.20044309409803335,0.10725043908968335,0.19719668085490263
1.0023070192313883,0.37630521047742305,0.10210809729773855,0.20989430295355302,0.1063442584722887,0.20672997424332984
1.0023541012565187,0.3658732131217113,0.09968737569425062,0.20800353236518512,0.10221097465568717,0.2049017242663358
1.002401183281649,0.3393357840705059,0.09493228500470212,0.19716291122807472,0.09485303302508855,0.1941437268731616
1.0024482653067794,0.30043566038503033,0.08820566943657687,0.1783931936762516,0.08318411716461034,0.17555578125476123
1.0024953473319098,0.25183659939415354,0.07833273734269224,0.15384153094853617,0.06624576433450612,0.15139405997568145
1.0025424293570402,0.1956066522565673,0.06323044520969845,0.12081929242955049,0.04550274295019306,0.11899810034153836
1.0025895113821706,0.13475970805500284,0.04373679111747012,0.07564140824241966,0.02207438411476919,0.0746902744369479
1.002636593407301,0.07582916802294695,0.02598435229947363,0.025728531183742454,0.0032892378723229677,0.025570829510919626
1.0026836754324313,0.03145358980808763,0.02171190716483052,-0.0040036080406334615,-0.0018403957320266948,-0.003924104179979555
1.0027307574575617,0.01779891286180085,0.03155094427749907,-0.006351274616742859,0.011584384480576752,-0.0068252149466488925
1.002777839482692,0.04358985242398123,0.03835515485414213,0.006591376950054447,0.03641189721078455,0.005083779368566395
1.0028249215078224,0.1037077589167159,0.050243599898353745,0.04281328660270074,0.05950586525032231,0.04039437581835348
1.0028720035329528,0.18101238562213362,0.07025804118825013,0.0979436666785688,0.0771080287592932,0.09499730399921547
1.0029190855580832,0.25636899888384335,0.09263370117607966,0.15380629462607742,0.08808564722460703,0.15073412202599798
1.0029661675832136,0.31832235074100634,0.11171387209694943,0.19704252226634572,0.09041704680432353,0.19411914914641243
1.003013249608344,0.36361141655314383,0.1213059845712766,0.228525784613192,0.09134021023944194,0.2257471852121771
1.0030603316334743,0.39341420767750745,0.12643267110474662,0.24979870354304085,0.09110152221716611,0.2471390157886751
1.0031074136586047,0.4102870696014962,0.12762697867669004,0.26258314989231946,0.0890673075692942,0.26002466912694266
1.003154495683735,0.41662904201390033,0.1265338041937117,0.266777273312063,0.08576504259021484,0.264292482817009
1.0032015777088654,0.41405085665469693,0.12316741722809883,0.26326150551395927,0.0809017513177355,0.26084158726302187
1.0032486597339958,0.4030953535584088,0.11752692362221571,0.251751202986526,0.07426186663833786,0.24940894592510934
1.0032957417591262,0.38301151602067063,0.10942091033578266,0.2324239377319079,0.06580695051887134,0.23020265655704633
1.0033428237842565,0.3514583105172215,0.09848379666708243,0.2047530276495091,0.05531687176000211,0.20273656508749122
1.003389905809387,0.3042863356687068,0.08439521977514226,0.16911475512504195,0.0431356899447257,0.16741743016512747
1.0034369878345173,0.2364892670841809,0.06777651721936648,0.12615890065588273,0.02959484761166926,0.12491181348054516
1.0034840698596477,0.14805992805189566,0.049728601557342066,0.07745804013496241,0.01589781031844594,0.07675042005198073
1.003531151884778,0.05937981673678241,0.03646730775301732,0.035632586371168055,0.005630877477981451,0.03537035536047319
1.0035782339099084,0.016571701488668728,0.03341263281911133,0.012038086514572617,0.00268949732775982,0.011916667783643345
1.0036253159350388,0.04141534161646615,0.04388916544004497,0.014399178728297872,0.010938552994263604,0.013935596608610991
1.0036723979601692,0.0978579156313711,0.062085669859616784,0.03595348541122598,0.027164176309069372,0.034814648184877346
1.0037194799852995,0.14599333246590304,0.08375414807436884,0.06503465797160808,0.047272974279490725,0.06310710922725994
1.00376656201043,0.17300879075255565,0.10010463837713374,0.0922030709843016,0.06693973479179878,0.0895908232919112
1.0038136440355603,0.18229222765708752,0.11177891385123018,0.11374971918924169,0.07981439627253625,0.11076486851411636
1.0038607260606907,0.18262972424027749,0.11776268678208542,0.12736778710133306,0.09021312609300013,0.12411691610504581
1.003907808085821,0.18292620727983336,0.11908632163611531,0.13485525602086357,0.09997983148278544,0.13136417710337106
1.0039548901109514,0.18798821740501145,0.11941194313428694,0.13913083302593265,0.105328228371087,0.13552144759664148
1.0040019721360818,0.19658928748535154,0.1178211359531948,0.1397247738744464,0.10659225490690963,0.13608609916175582
1.0040490541612122,0.20361099360789395,0.11504498306912174,0.1356935801867525,0.1047159836451532,0.1320790917258193
1.0040961361863425,0.20356945018764083,0.10860425491761194,0.1287855413388881,0.10142112683709922,0.125220206104983
1.004143218211473,0.19261735903368254,0.09753809352753666,0.11776025800915435,0.09553859470914931,0.11430619750457315
1.0041903002366033,0.1692114287165738,0.08337954975726304,0.09836742477706704,0.08586207996435229,0.09513192412627589
1.0042373822617336,0.13469585530973552,0.06732495878531781,0.07519967777083232,0.07282315149353966,0.07234048382123619
1.004284464286864,0.094068350002802,0.05205510028691096,0.051842634052145065,0.05705540897298072,0.04952908068232159
1.0043315463119944,0.0558705414627791,0.038948648326739825,0.03082107495389939,0.03949712514496984,0.02918673834854584
1.0043786283371248,0.029785725493520713,0.030915847600000858,0.019809015244991575,0.023171469726279214,0.018839677998224624
1.0044257103622551,0.022326134922130727,0.028135296107315303,0.01684685304795892,0.010781917029073482,0.016387822750945094
1.0044727923873855,0.03362727707623793,0.029884341146026144,0.01768087969631584,0.004927024695045152,0.017462370468162142
1.004519874412516,0.057935866130881315,0.03541055155969809,0.0238553638180855,0.005354379658055533,0.023614132635906438
1.0045669564376463,0.08691312585069338,0.04479702707880968,0.038233159934289905,0.013003561525411381,0.03766723936435315
1.0046140384627766,0.11302745450084833,0.05673647125021802,0.05542672474865837,0.027392097374358892,0.05427238790142503
1.004661120487907,0.13143773576861661,0.06777620013741137,0.07126698378066398,0.04392290876969708,0.06947058198798506
1.0047082025130374,0.140315951549541,0.0767021177332556,0.0817840112464661,0.06057058729631306,0.07937944633184461
1.0047552845381678,0.14016084842095028,0.08024863721764451,0.0846685751900148,0.07446915879146213,0.08177522482335359
1.0048023665632981,0.13271042804166153,0.07863270677099807,0.08028160564993014,0.0838119308025959,0.07704976555812638
1.0048494485884285,0.1199532079956697,0.0741792478941578,0.06958311394397716,0.09121071439631205,0.0660529035952266
1.0048965306135589,0.10352759540252561,0.06896988341735595,0.05738407400153901,0.0945554490412995,0.0536836983160515
1.0049436126386893,0.08458770500586026,0.06110522888935355,0.04469505929439128,0.09385976764436502,0.04096756892767537
1.0049906946638196,0.06411017510052013,0.05447367582199748,0.03435472552873721,0.08956854301730956,0.03075162023061922
1.00503777668895,0.043500849939608656,0.047191034250672434,0.022887706523455283,0.08194246875595519,0.019548322695976388
1.0050848587140804,0.02497562650004661,0.03954398432773196,0.013888116903115118,0.0707050186989149,0.010981180721552464
1.0051319407392107,0.011013597455985432,0.034316204191977166,0.011624969459267675,0.05784495834908614,0.009239354462885511
1.0051790227643411,0.003334338693202587,0.02939989909202477,0.009001101837417943,0.04340245789326339,0.007205945899008105
1.0052261047894715,0.0027948227754708652,0.021314368803566207,0.005716764128480125,0.028730865900788233,0.004525945026919142
1.0052731868146019,0.010164673003053454,0.013679338064703351,0.005314070387151807,0.015627628632103534,0.004664013166631954
1.0053202688397322,0.026566180290056158,0.008966042867685656,0.008193549268036414,0.0038845857269240967,0.008026016442967212
1.0053673508648626,0.05291846997433676,0.007795898446037771,0.011498759854167706,-0.002243714216007208,0.011581703989076882
1.005414432889993,0.08828034555015178,0.010314421591452193,0.017065936640710815,-0.003987081379729425,0.017216254855864463
1.0054615149151234,0.12763762777320273,0.013757324635068957,0.025647230237824777,-0.0020774190778851467,0.025711174830127637
1.0055085969402537,0.16155770115500132,0.01844850905163659,0.038076850744054896,0.005971830237490369,0.037798647790475405
1.0055556789653841,0.18078890709766565,0.02422213599377588,0.05135766337998839,0.018452108444416162,0.05056253784287772
1.0056027609905145,0.18307418566708303,0.028488392294640195,0.06056084021799014,0.03246244653579725,0.05920542189882503
1.0056498430156449,0.1741533504439713,0.03196810626961838,0.06655908741414072,0.043817713797302975,0.0647644595472593
1.0056969250407752,0.16242605985016223,0.03422259124092448,0.07063087442771013,0.05339733662446105,0.06847632996259277
1.0057440070659056,0.15418810481596457,0.03407561432202045,0.07107575192890922,0.058797843980643534,0.06872043632955124
1.005791089091036,0.1523552110015489,0.03189613271720568,0.0660360559428213,0.06007290891064637,0.06362623842118266
1.0058381711161664,0.15691036178882456,0.030961721545799882,0.06130313889977103,0.05964309180722979,0.0589028554745544
1.0058852531412967,0.16538784679386007,0.03237780420902952,0.06307528196508604,0.05827753413797526,0.060728779938194644
1.005932335166427,0.17322460684996496,0.031610088826021815,0.06323184659303546,0.05451904846282434,0.061027403338453516
1.0059794171915575,0.17475929729964576,0.028943521662998534,0.05880087400333982,0.04823209079236965,0.056832570238820795
1.0060264992166879,0.16548577922015562,0.025769709458663685,0.05204155960234529,0.0409775437877369,0.05035184192674269
1.0060735812418182,0.1445721481217929,0.022297290841480962,0.04234591607178599,0.03205655167344513,0.041008918801396295
1.0061206632669486,0.11538472372115638,0.01941499232079743,0.03266210113426135,0.022254716775823184,0.03172338423683134
1.006167745292079,0.08342022676517998,0.017197092838888737,0.0259645785337829,0.014187753110358442,0.025358945390740826
1.0062148273172093,0.053714935068683495,0.017299472171400727,0.01794830890199036,0.009072483576041977,0.01755877517433454
1.0062619093423397,0.029620632829972474,0.01764427342252945,0.006428025048282717,0.00646971300254766,0.006155190565816589
1.00630899136747,0.012907514843990737,0.018253499425407386,-0.004503164505502606,0.006818795968532635,-0.00478133203991875
1.0063560733926005,0.004292560353454192,0.019624478464029666,-0.010519166817943732,0.009561764257794337,-0.010905924945198172
1.0064031554177308,0.0038095921685766332,0.022743415345186372,-0.007972360122875525,0.012530000693850064,-0.008484196696884235
1.0064502374428612,0.010924293923755681,0.03061357847136347,0.0013341291502741227,0.020960758197477624,0.0004664922312420063
1.0064973194679916,0.02453035587728399,0.03763276279830288,0.011333716656649779,0.03142954042065128,0.010029783877507704
1.006544401493122,0.042966387475684646,0.04335605016862123,0.020787738978896356,0.041961757108197384,0.019052916033283556
1.0065914835182523,0.06411092062196938,0.04681475835635484,0.03329944681240632,0.04858218160266654,0.03130249233990415
1.0066385655433827,0.08556714248621351,0.05132188614050157,0.049462130528264495,0.05244935977468095,0.047324069968112614
1.006685647568513,0.10493697207975199,0.05442410765295454,0.06485229624100503,0.05370105090706447,0.06268045517492057
1.0067327295936435,0.12014720761669652,0.05548801711819767,0.07640706666955516,0.052858992040256396,0.07427853226602016
1.0067798116187738,0.12974860817624662,0.054100227926681635,0.08294186479002422,0.04989339610198831,0.08092947681649494
1.0068268936439042,0.1331160769266914,0.053425172840799756,0.08436945777741765,0.0450117309442789,0.08253933174493609
1.0068739756690346,0.13051634907150206,0.04932139542572471,0.08386978816652868,0.03965691330242737,0.0822401745039533
1.006921057694165,0.12301693370584733,0.04243321885814099,0.08185258015702256,0.03393055951442075,0.08044007241063575
1.0069681397192953,0.11219272060745543,0.03395932162203276,0.07585112215539112,0.026921952675118446,0.07470994677367067
1.0070152217444257,0.09964098937742749,0.02619908776752908,0.06985230351433948,0.020003899409852838,0.06898553255351061
1.007062303769556,0.08648287672211809,0.020171874101572052,0.06302251331950957,0.014360577736448669,0.062385021521008686
1.0071093857946865,0.07315337862299943,0.01688803370817192,0.053521194673379444,0.009731322023071094,0.053077450486191204
1.0071564678198168,0.05967551136841471,0.014752935307140589,0.042771215350936226,0.005637178717730337,0.04250295745861419
1.0072035498449472,0.046352747241279996,0.012080374954938088,0.029687677967592516,0.00289195905144024,0.02954303224817277
1.0072506318700776,0.03458526276589038,0.011131275554174097,0.01916866027493343,0.0023339029280532125,0.019055888615086145
1.007297713895208,0.02727830692374265,0.011850642548949764,0.01473006896934623,0.0024004680140387595,0.014618306504424822
1.0073447959203383,0.0280866607277734,0.015570537716703794,0.01711698325886342,0.00451989768043183,0.016915735647956686
1.0073918779454687,0.03925806445151868,0.024843767192030155,0.028584290137595406,0.010919709861153759,0.028110624486112804
1.007438959970599,0.059562255279517966,0.036407082017880135,0.043832242766228824,0.01939376879335126,0.04300335951734934
1.0074860419957294,0.08449757331606145,0.0470734313422744,0.058037587268334905,0.028911274278089934,0.05682240282293397
1.0075331240208598,0.10858230355013457,0.05547915982789027,0.06858033205585247,0.03866636156400024,0.06698420605009735
1.0075802060459902,0.12742598805780986,0.061375898174669014,0.07621925524513734,0.045439063831555264,0.07436814853109151
1.0076272880711206,0.13840784538629322,0.06314624475620917,0.07904744927672683,0.049320789114262104,0.07705295488457917
1.007674370096251,0.14057521646913557,0.06030516458532435,0.0769603579802706,0.050881390042203746,0.07490592042087739
1.0077214521213813,0.1345761316442056,0.05567888788397411,0.07084930100861353,0.04932892089011763,0.06884787308595584
1.0077685341465117,0.12269802495893224,0.04834139204299477,0.062425783036096825,0.04504229427770021,0.06058218868683462
