freq,gls,usurper,pdc_unbiased,shape_periodogram,shift_periodogram
1.0,0.02176245538732735,0.01311770685049902,-0.007335655112181927,-0.0018516975060095923,-0.007295085718673949
1.0000470820251304,0.05134779247241603,0.018290002060140812,0.016081221596065367,-2.4542092496379486e-05,0.016078178621468056
1.0000941640502607,0.09689124580742478,0.02261993569818549,0.05094334186944231,0.006493160252932872,0.05079707007179907
1.0001412460753911,0.14848755125694818,0.02719419359925841,0.08456655871201842,0.012516165115026293,0.0842939872979166
1.0001883281005215,0.19664060203551523,0.03157208946157021,0.10917973127593883,0.019411599872882622,0.10877491855579971
1.0002354101256519,0.23592916525893703,0.034382224782577145,0.12678225514793529,0.02442630860488737,0.12629005844904934
1.0002824921507822,0.26363730657080775,0.03378937056527529,0.13936052532630389,0.026245879987543637,0.13884088696626004
1.0003295741759126,0.2780607972143743,0.03434497868613233,0.14663287491158739,0.027789587462726986,0.14609029034474283
1.000376656201043,0.27778293516045677,0.03590748467372872,0.14742341655727248,0.028830142887838115,0.1468641939992058
1.0004237382261734,0.2619162710265795,0.035551205776582315,0.139633635428265,0.029905722374293352,0.1390533051651342
1.0004708202513037,0.23107843684954268,0.03352746434114231,0.12167319492364326,0.029960399929566398,0.12108369781001346
1.0005179022764341,0.1884924826566669,0.030373908944536357,0.09811663264576473,0.029282548773397796,0.09752923574408079
1.0005649843015645,0.1401213853463462,0.028720221933327912,0.07552593926328457,0.02749668193218804,0.07496385192350476
1.0006120663266949,0.09311329616242185,0.027836799241416528,0.056936636782797936,0.023655072723269572,0.05644449233250618
1.0006591483518252,0.05338098213176131,0.02914255220241388,0.04656239048066332,0.017460766984524735,0.046192928211680674
1.0007062303769556,0.024158292773911582,0.0296718506984823,0.0379052596807291,0.00968890542919309,0.03769522171903678
1.000753312402086,0.006389706849983347,0.030141077424763487,0.024925530867037873,0.0012124170726826127,0.024894548079761887
1.0008003944272164,4.4957735270936574e-05,0.0329400453266072,0.013623927240606612,-0.005865504062284059,0.01374452815534568
1.0008474764523467,0.004476680458159687,0.032517651041988505,0.005279248516488982,-0.0067604813447986216,0.005420443294291848
1.000894558477477,0.016631009383087918,0.03383722455305794,0.00604487589630294,-0.0038435255964134264,0.006124449193833488
1.0009416405026075,0.030279800796216314,0.038887935949479285,0.01614856324889533,0.001964038406886464,0.016103711481113163
1.0009887225277379,0.04019506929021177,0.04584416340254818,0.031662352407458065,0.011727568961292918,0.031411118878053895
1.0010358045528682,0.045271217739530065,0.0512742741506443,0.049643587368788454,0.023582969071072674,0.04915187168410834
1.0010828865779986,0.04665854735345898,0.05086710711124192,0.06394396252727896,0.035496435774772864,0.06322719980108686
1.001129968603129,0.04557434040645729,0.04958933407244603,0.06951556918541625,0.045584772097919626,0.06861895776796842
1.0011770506282593,0.04281463251624272,0.04522525734173966,0.06676401531502141,0.05234064074158947,0.06574497446955727
1.0012241326533897,0.03911406922799136,0.038664807103622516,0.05756222886158259,0.05608415971460289,0.0564638018953084
1.00127121467852,0.035734840091298535,0.03165118877929412,0.04469056838221148,0.05757466529814932,0.04354490362429655
1.0013182967036505,0.034632288517627896,0.02571598015686578,0.03354469161607427,0.05790837958382968,0.0323750903139353
1.0013653787287808,0.03686446430802818,0.025649916298330074,0.03235087082016887,0.0568689195453803,0.031199401822576703
1.0014124607539112,0.040499198873267514,0.0291865143852391,0.04235422606047071,0.05541525174645564,0.04124520647470064
1.0014595427790416,0.04245011553894062,0.032977648686378536,0.05148956578485458,0.052117745581611565,0.050454260022149845
1.001506624804172,0.04142424671447975,0.03441538830749519,0.057489670337512934,0.0450474482601041,0.05659103364133818
1.0015537068293023,0.03772147907862947,0.033781582188806045,0.05838903434484734,0.0361989473007251,0.05765600035730918
1.0016007888544327,0.032149333674356434,0.03340759085443705,0.05286952532393206,0.025164528030434504,0.05234709987520089
1.001647870879563,0.025799799790141527,0.03313218326857937,0.040386054375886556,0.012598452141336194,0.040115869504491405
1.0016949529046935,0.020580986012262138,0.030148199683728484,0.02276083148008517,0.0005779317927576003,0.022743648371019793
1.0017420349298238,0.01993155776046648,0.028809537982547918,0.008396000375120035,-0.00793738441918637,0.008561402116036633
1.0017891169549542,0.027489951613850306,0.02929721168413664,0.00883020356959996,-0.008597862161316142,0.009009465891389774
1.0018361989800846,0.042074300128446054,0.028524927277387216,0.022145335055818467,-0.0036252520668866852,0.022216802623528986
1.001883281005215,0.05845891480384451,0.030827591064587656,0.04104344236602053,0.004957959730604619,0.040930817067878836
1.0019303630303453,0.07582159493280267,0.03558008129071841,0.05832937685591873,0.014187260591961475,0.05802533089222587
1.0019774450554757,0.09824195100672209,0.04069666977422484,0.07041397317164165,0.024900325944620848,0.06989996888509052
1.002024527080606,0.1303669711588208,0.03974507072970712,0.07896421651578898,0.03437709312522128,0.07827619780574628
1.0020716091057364,0.17464242099810953,0.03463175254287472,0.08832693698111686,0.04121697759757539,0.0875241327837331
1.0021186911308668,0.22917237164395338,0.03419624105031281,0.11355266104308831,0.04468034880786627,0.11271684621457141
1.0021657731559972,0.2864808872447173,0.03657017584505589,0.14880372324738836,0.0468481896907046,0.14797704863331743
1.0022128551811276,0.335488571803669,0.03931281535998842,0.17945522269565434,0.04826552960082517,0.17865118636540447
1.002259937206258,0.3667004160945303,0.04087296303739142,0.20044309409803335,0.048704632584612356,0.19966406416467142
1.0023070192313883,0.37630521047742305,0.04105487746285982,0.20989430295355302,0.047808057413826446,0.20913808144779175
1.0023541012565187,0.3658732131217113,0.03956651890811431,0.20800353236518512,0.04578611303929736,0.20726569323207092
1.002401183281649,0.3393357840705059,0.03733188231734756,0.19716291122807472,0.042041197308590926,0.19645421488740755
1.0024482653067794,0.30043566038503033,0.0344186633720903,0.1783931936762516,0.03528880728621414,0.1777546797314044
1.0024953473319098,0.25183659939415354,0.029637369560887993,0.15384153094853617,0.02504491520450331,0.15334681257295468
1.0025424293570402,0.1956066522565673,0.023365332226887237,0.12081929242955049,0.013778479133380213,0.12052060751721283
1.0025895113821706,0.13475970805500284,0.01554217501242195,0.07564140824241966,0.0029766828245832307,0.07556299567374636
1.002636593407301,0.07582916802294695,0.008679430692747982,0.025728531183742454,-0.004182773726250287,0.025810985907849023
1.0026836754324313,0.03145358980808763,0.011580310935344664,-0.0040036080406334615,-0.004061209619409953,-0.003917305079758777
1.0027307574575617,0.01779891286180085,0.021506018689454818,-0.006351274616742859,0.005887670534901253,-0.006473854286487511
1.002777839482692,0.04358985242398123,0.020494616281651164,0.006591376950054447,0.020861744990706234,0.006152336302645829
1.0028249215078224,0.1037077589167159,0.018977611606858787,0.04281328660270074,0.030651331127664275,0.04218042728478452
1.0028720035329528,0.18101238562213362,0.022938537622664734,0.0979436666785688,0.036165321400113644,0.09723508924643944
1.0029190855580832,0.25636899888384335,0.03380434544909514,0.15380629462607742,0.037029682495384665,0.15312381266267447
1.0029661675832136,0.31832235074100634,0.04547808762411401,0.19704252226634572,0.03270019355087057,0.19645310005246266
1.003013249608344,0.36361141655314383,0.05047086994558104,0.228525784613192,0.030487520950669336,0.22798627074791003
1.0030603316334743,0.39341420767750745,0.0533304802220536,0.24979870354304085,0.028527898017343546,0.24929692169924292
1.0031074136586047,0.4102870696014962,0.05385491302371555,0.26258314989231946,0.02598427739679329,0.2621201577496146
1.003154495683735,0.41662904201390033,0.05378174920491185,0.266777273312063,0.02356554510105523,0.26634717370174854
1.0032015777088654,0.41405085665469693,0.05282144815213989,0.26326150551395927,0.02073217520525472,0.2628681093347429
1.0032486597339958,0.4030953535584088,0.05100057707232255,0.251751202986526,0.017304008690836804,0.25140417566134526
1.0032957417591262,0.38301151602067063,0.04831431891256358,0.2324239377319079,0.013374206856940352,0.23213595957213495
1.0033428237842565,0.3514583105172215,0.044459497566156005,0.2047530276495091,0.008690495729389116,0.2045455086568057
1.003389905809387,0.3042863356687068,0.03915678536494945,0.16911475512504195,0.0035525315136510894,0.1690078556210531
1.0034369878345173,0.2364892670841809,0.03304981397872022,0.12615890065588273,-0.0018251444999037533,0.12616911199430958
1.0034840698596477,0.14805992805189566,0.026425560285911722,0.07745804013496241,-0.00668251191604078,0.07758205702193456
1.003531151884778,0.05937981673678241,0.021864942082868793,0.035632586371168055,-0.009786160986777495,0.03583193583122508
1.0035782339099084,0.016571701488668728,0.021435159095885833,0.012038086514572617,-0.010053529005038257,0.012247527953169184
1.0036253159350388,0.04141534161646615,0.026650394092676055,0.014399178728297872,-0.005746168588705551,0.014517097190295234
1.0036723979601692,0.0978579156313711,0.032957297461765546,0.03595348541122598,0.0013445049845709127,0.03591733403562022
1.0037194799852995,0.14599333246590304,0.03988104541121326,0.06503465797160808,0.00949338568536674,0.06482474370003338
1.00376656201043,0.17300879075255565,0.042882899641481995,0.0922030709843016,0.018143195679634926,0.0918209079091826
1.0038136440355603,0.18229222765708752,0.04637714465632904,0.11374971918924169,0.02366284632172735,0.1132678736938785
1.0038607260606907,0.18262972424027749,0.048868403441797915,0.12736778710133306,0.029794819177574282,0.12678363873128942
1.003907808085821,0.18292620727983336,0.04832389815462811,0.13485525602086357,0.037676220852849,0.13414813557747463
1.0039548901109514,0.18798821740501145,0.04828423648284234,0.13913083302593265,0.042679512029022836,0.13835204836561021
1.0040019721360818,0.19658928748535154,0.047457391565714525,0.1397247738744464,0.04477862152877561,0.13891619134921163
1.0040490541612122,0.20361099360789395,0.04733486200657601,0.1356935801867525,0.04405687889774893,0.1348910039524833
1.0040961361863425,0.20356945018764083,0.045061076528564066,0.1287855413388881,0.04318621445687336,0.1279886359421912
1.004143218211473,0.19261735903368254,0.03960806444005693,0.11776025800915435,0.04130056051289087,0.1169818786403256
1.0041903002366033,0.1692114287165738,0.03340306081511833,0.09836742477706704,0.03741095279205105,0.09763770529707048
1.0042373822617336,0.13469585530973552,0.0268059407228202,0.07519967777083232,0.031981085200506014,0.07455378887694694
1.004284464286864,0.094068350002802,0.021066353687523295,0.051842634052145065,0.02395504870659814,0.051343860432482444
1.0043315463119944,0.0558705414627791,0.016608835534890964,0.03082107495389939,0.01395673285876957,0.030523982309044892
1.0043786283371248,0.029785725493520713,0.014567314396057419,0.019809015244991575,0.003612979664883994,0.019728785019519374
1.0044257103622551,0.022326134922130727,0.014225263526419148,0.01684685304795892,-0.005288585858412754,0.016954589802308302
1.0044727923873855,0.03362727707623793,0.01579105292332855,0.01768087969631584,-0.010312035054384277,0.017894788053827035
1.004519874412516,0.057935866130881315,0.01874482091855565,0.0238553638180855,-0.01119968103447637,0.024087042362309692
1.0045669564376463,0.08691312585069338,0.02324821097247828,0.038233159934289905,-0.007273052480609142,0.03837841575448944
1.0046140384627766,0.11302745450084833,0.028189451234751743,0.05542672474865837,0.001326049866265307,0.05538676777858729
1.004661120487907,0.13143773576861661,0.03199057836921116,0.07126698378066398,0.011103253091766175,0.07102379279921035
1.0047082025130374,0.140315951549541,0.03382613245290078,0.0817840112464661,0.02088670690692891,0.08134855993998612
1.0047552845381678,0.14016084842095028,0.032786760580359155,0.0846685751900148,0.029470500216110286,0.08407274749179638
1.0048023665632981,0.13271042804166153,0.029869906302735522,0.08028160564993014,0.03541355446169111,0.07957554058023805
1.0048494485884285,0.1199532079956697,0.02674852870040068,0.06958311394397716,0.041626832089057465,0.06875751100379571
1.0048965306135589,0.10352759540252561,0.02289657236380255,0.05738407400153901,0.04604618950187468,0.056466967759121724
1.0049436126386893,0.08458770500586026,0.016981123301006405,0.04469505929439128,0.04756119652500459,0.04373679107312511
1.0049906946638196,0.06411017510052013,0.012532142666158916,0.03435472552873721,0.046212552914082806,0.03341211018773515
1.00503777668895,0.043500849939608656,0.008572714561097539,0.022887706523455283,0.04234827204829533,0.02201201223245763
1.0050848587140804,0.02497562650004661,0.005562280845144598,0.013888116903115118,0.036299677055012906,0.013130130750865466
1.0051319407392107,0.011013597455985432,0.004939595596392436,0.011624969459267675,0.02848988189968253,0.011027538333951899
1.0051790227643411,0.003334338693202587,0.004792376279666728,0.009001101837417943,0.019620828705419337,0.008587973044262755
1.0052261047894715,0.0027948227754708652,0.0025507425850806197,0.005716764128480125,0.012338123288283553,0.005456322468617887
1.0052731868146019,0.010164673003053454,-0.00020956710464010368,0.005314070387151807,0.005622046695998762,0.005194688801021018
1.0053202688397322,0.026566180290056158,-0.0019834075060506783,0.008193549268036414,-0.0016236454736939681,0.008225905624976814
1.0053673508648626,0.05291846997433676,-0.0020905119263777807,0.011498759854167706,-0.004992473976207936,0.011601383607766453
1.005414432889993,0.08828034555015178,0.0015666015693154385,0.017065936640710815,-0.004952325671657584,0.017166525060767268
1.0054615149151234,0.12763762777320273,0.004864944669772252,0.025647230237824777,-0.0026883806551534564,0.02569815864480179
1.0055085969402537,0.16155770115500132,0.007728337312111754,0.038076850744054896,0.0034068395507778834,0.037997126601701514
1.0055556789653841,0.18078890709766565,0.010311752590517195,0.05135766337998839,0.01276608025760595,0.051082923514718014
1.0056027609905145,0.18307418566708303,0.011527095485643457,0.06056084021799014,0.02319244084977299,0.060078256743783906
1.0056498430156449,0.1741533504439713,0.012124528404594832,0.06655908741414072,0.030711959221312174,0.0659334280778653
1.0056969250407752,0.16242605985016223,0.011684848264862185,0.07063087442771013,0.036477261600114094,0.06989977096967913
1.0057440070659056,0.15418810481596457,0.010802637741305248,0.07107575192890922,0.03847955008778999,0.07030832717178188
1.005791089091036,0.1523552110015489,0.00941343227499425,0.0660360559428213,0.037621453953973816,0.06528104308914455
1.0058381711161664,0.15691036178882456,0.008992999615762838,0.06130313889977103,0.03612096457134608,0.06057321525294482
1.0058852531412967,0.16538784679386007,0.010797994282110087,0.06307528196508604,0.034399794065795096,0.06237861514783526
1.005932335166427,0.17322460684996496,0.009880725039101961,0.06323184659303546,0.030798256635640054,0.06260330808166963
1.0059794171915575,0.17475929729964576,0.008017230776589416,0.05880087400333982,0.02578625145637327,0.05826743297003536
1.0060264992166879,0.16548577922015562,0.006794105401876283,0.05204155960234529,0.020565876075405807,0.051609975863139625
1.0060735812418182,0.1445721481217929,0.005800102516287715,0.04234591607178599,0.014615077028387255,0.0420343478643235
1.0061206632669486,0.11538472372115638,0.004917564918138968,0.03266210113426135,0.00761924890263844,0.032495760580058625
1.006167745292079,0.08342022676517998,0.002829058438844786,0.0259645785337829,0.0012217149170266944,0.025933173806843297
1.0062148273172093,0.053714935068683495,0.002446084810864644,0.01794830890199036,-0.0034239275583605963,0.018016449459639223
1.0062619093423397,0.029620632829972474,0.002473004363058025,0.006428025048282717,-0.00623434767321459,0.006557896663596872
1.00630899136747,0.012907514843990737,0.003938680819041152,-0.004503164505502606,-0.005341620383954145,-0.0043898417782942895
1.0063560733926005,0.004292560353454192,0.005629681808013127,-0.010519166817943732,-0.0021984077896655893,-0.010470615080991794
1.0064031554177308,0.0038095921685766332,0.009101514395981686,-0.007972360122875525,0.0013276430359874024,-0.007998534307616103
1.0064502374428612,0.010924293923755681,0.015377687796733019,0.0013341291502741227,0.008839726157799897,0.0011478844607895101
1.0064973194679916,0.02453035587728399,0.020084895365410638,0.011333716656649779,0.01729254630434407,0.010969067292135802
1.006544401493122,0.042966387475684646,0.023158801970412826,0.020787738978896356,0.02509884617691322,0.020261753836586918
1.0065914835182523,0.06411092062196938,0.023256546084969274,0.03329944681240632,0.029091248354670505,0.03269480270077754
1.0066385655433827,0.08556714248621351,0.023451406371446354,0.049462130528264495,0.029780406341312158,0.0488484872486486
1.006685647568513,0.10493697207975199,0.02386956025427988,0.06485229624100503,0.027721394589305833,0.06428296432085258
1.0067327295936435,0.12014720761669652,0.02362916969615915,0.07640706666955516,0.02445033512054855,0.07590282390383167
1.0067798116187738,0.12974860817624662,0.02218549011489917,0.08294186479002422,0.02099392697947415,0.08250448540239111
1.0068268936439042,0.1331160769266914,0.02313836659395087,0.08436945777741765,0.01673587882269427,0.08401419673919192
1.0068739756690346,0.13051634907150206,0.021668378575214996,0.08386978816652868,0.012840460148474826,0.08359085698616554
1.006921057694165,0.12301693370584733,0.017859779732196903,0.08185258015702256,0.009808456334407191,0.08163416870813457
1.0069681397192953,0.11219272060745543,0.012892285610831868,0.07585112215539112,0.006378872518877161,0.07570289579766831
1.0070152217444257,0.09964098937742749,0.008754539374757848,0.06985230351433948,0.0033551243650515863,0.0697672266266009
1.007062303769556,0.08648287672211809,0.00543838298659612,0.06302251331950957,0.000532616232126898,0.0629974856065382
1.0071093857946865,0.07315337862299943,0.0043257302870292995,0.053521194673379444,-0.001816564727911218,0.05354752585858579
1.0071564678198168,0.05967551136841471,0.0037963236039482645,0.042771215350936226,-0.003908620310103552,0.042844105052170865
1.0072035498449472,0.046352747241279996,0.0020432831174262136,0.029687677967592516,-0.005339336086464604,0.029793730511207966
1.0072506318700776,0.03458526276589038,0.0011183157714751268,0.01916866027493343,-0.0053354773366279615,0.019276892860098673
1.007297713895208,0.02727830692374265,0.0006647261160953807,0.01473006896934623,-0.005348990131244198,0.014839530922414563
1.0073447959203383,0.0280866607277734,0.0014832240164564716,0.01711698325886342,-0.004871866637557859,0.01721586174980431
1.0073918779454687,0.03925806445151868,0.005033801150776505,0.028584290137595406,-0.00242951774211937,0.02862910789250816
1.007438959970599,0.059562255279517966,0.009654348938357338,0.043832242766228824,0.0006542154950294324,0.043808841540424207
1.0074860419957294,0.08449757331606145,0.013313664631871894,0.058037587268334905,0.0036098073903379152,0.05794958803229701
1.0075331240208598,0.10858230355013457,0.015469546405717112,0.06858033205585247,0.006987520001390319,0.06842089414009883
1.0075802060459902,0.12742598805780986,0.017449084501284698,0.07621925524513734,0.00915732000651303,0.07601464311648369
1.0076272880711206,0.13840784538629322,0.017681833125365372,0.07904744927672683,0.010424099016626725,0.07881702962041945
1.007674370096251,0.14057521646913557,0.016543976008276264,0.0769603579802706,0.011777532385220463,0.07670309198023295
1.0077214521213813,0.1345761316442056,0.01579727998257373,0.07084930100861353,0.012056558345812474,0.07058702073334128
