freq,gls,usurper,pdc_unbiased,shape_periodogram,shift_periodogram
1.0,0.02176245538732735,0.015446354255057339,-0.007335655112181927,0.006043510044672299,-0.007439619268655405
1.0000470820251304,0.05134779247241603,0.01880155227989745,0.016081221596065367,0.0049987421418064264,0.01599222986652005
1.0000941640502607,0.09689124580742478,0.023351309707615862,0.05094334186944231,0.008113442611748716,0.05079700854242897
1.0001412460753911,0.14848755125694818,0.02749180988078803,0.08456655871201842,0.01534159347534715,0.08430019301477225
1.0001883281005215,0.19664060203551523,0.032380540959970706,0.10917973127593883,0.026342268855560957,0.10875145524891235
1.0002354101256519,0.23592916525893703,0.037431764281731277,0.12678225514793529,0.03536902283800079,0.12624168314275988
1.0002824921507822,0.26363730657080775,0.040071011883715715,0.13936052532630389,0.04034264020184223,0.1387703926894476
1.0003295741759126,0.2780607972143743,0.042033285579729504,0.14663287491158739,0.0429614330409233,0.14602098748869421
1.000376656201043,0.27778293516045677,0.0428816141598035,0.14742341655727248,0.04484826471997263,0.14679253901731074
1.0004237382261734,0.2619162710265795,0.04117844932302812,0.139633635428265,0.045634938989796245,0.13898549606258143
1.0004708202513037,0.23107843684954268,0.03744715356551583,0.12167319492364326,0.04437509383898423,0.12101897274220078
1.0005179022764341,0.1884924826566669,0.03248697124596671,0.09811663264576473,0.041987481269471605,0.09746844913835756
1.0005649843015645,0.1401213853463462,0.029021608875126035,0.07552593926328457,0.0390269486797066,0.0748994100370106
1.0006120663266949,0.09311329616242185,0.02714506770524922,0.056936636782797936,0.034770214064142574,0.056361184077674084
1.0006591483518252,0.05338098213176131,0.027594435622803,0.04656239048066332,0.028270688868441793,0.046084436383871635
1.0007062303769556,0.024158292773911582,0.027618496795870133,0.0379052596807291,0.020238783169672623,0.0375565468612884
1.000753312402086,0.006389706849983347,0.028498395246134848,0.024925530867037873,0.01114942613008445,0.02472988535508629
1.0008003944272164,4.4957735270936574e-05,0.030197140285831894,0.013623927240606612,0.003978335257926159,0.0135529178093223
1.0008474764523467,0.004476680458159687,0.029507890844337362,0.005279248516488982,0.0021895199937443863,0.0052404466555534416
1.000894558477477,0.016631009383087918,0.03305691875838807,0.00604487589630294,0.004939729864465681,0.005958265623223589
1.0009416405026075,0.030279800796216314,0.039966887331313136,0.01614856324889533,0.01125550165642604,0.01595176800894747
1.0009887225277379,0.04019506929021177,0.04823415456807937,0.031662352407458065,0.022462621409364118,0.031275992629222656
1.0010358045528682,0.045271217739530065,0.053557401858672665,0.049643587368788454,0.036701163220844824,0.04903410084163078
1.0010828865779986,0.04665854735345898,0.057225857246614754,0.06394396252727896,0.050847297178517284,0.06313810236411851
1.001129968603129,0.04557434040645729,0.06015558894748308,0.06951556918541625,0.06234225375968464,0.06856304947493463
1.0011770506282593,0.04281463251624272,0.06023861589304574,0.06676401531502141,0.06879090068575998,0.0657223245723497
1.0012241326533897,0.03911406922799136,0.0561059773757659,0.05756222886158259,0.0704087763836028,0.05647662093117679
1.00127121467852,0.035734840091298535,0.04958763383437323,0.04469056838221148,0.06933558060796689,0.043588071022763346
1.0013182967036505,0.034632288517627896,0.04368543086429965,0.03354469161607427,0.06776934455133525,0.032439270622652304
1.0013653787287808,0.03686446430802818,0.040350871558456,0.03235087082016887,0.06601494061561854,0.03126955764437943
1.0014124607539112,0.040499198873267514,0.04071053922012026,0.04235422606047071,0.06548308032772851,0.041302240341772566
1.0014595427790416,0.04245011553894062,0.042799611173281765,0.05148956578485458,0.06585086025273805,0.05045202478461635
1.001506624804172,0.04142424671447975,0.04327596962466038,0.057489670337512934,0.06181119355445445,0.056520655225147945
1.0015537068293023,0.03772147907862947,0.04356613248026593,0.05838903434484734,0.053603536700612735,0.057536586005820435
1.0016007888544327,0.032149333674356434,0.041875447449519224,0.05286952532393206,0.04238210499914644,0.052175423308479865
1.001647870879563,0.025799799790141527,0.038273557013179395,0.040386054375886556,0.02801519713081925,0.03991031871235085
1.0016949529046935,0.020580986012262138,0.03160269152726779,0.02276083148008517,0.0139009825882334,0.022518377314987764
1.0017420349298238,0.01993155776046648,0.028737112021383134,0.008396000375120035,0.003823843102785493,0.008328403066572496
1.0017891169549542,0.027489951613850306,0.028511076043294774,0.00883020356959996,0.002109852992305241,0.008792259471251607
1.0018361989800846,0.042074300128446054,0.028540063033723792,0.022145335055818467,0.006292648463840227,0.02203324465405939
1.001883281005215,0.05845891480384451,0.033083855944853684,0.04104344236602053,0.015070043166573378,0.040780859773163564
1.0019303630303453,0.07582159493280267,0.03806982896738181,0.05832937685591873,0.02562897456786974,0.05789678183312947
1.0019774450554757,0.09824195100672209,0.04062190833187276,0.07041397317164165,0.03847083384561919,0.06979170805880429
1.002024527080606,0.1303669711588208,0.03738516189684375,0.07896421651578898,0.04825720882833525,0.07821272688740878
1.0020716091057364,0.17464242099810953,0.03258358998327212,0.08832693698111686,0.055375526370070274,0.08749648850203984
1.0021186911308668,0.22917237164395338,0.03312628629270724,0.11355266104308831,0.06042100373168634,0.11270993001520274
1.0021657731559972,0.2864808872447173,0.036676374258863886,0.14880372324738836,0.0644888049412943,0.14800001843215882
1.0022128551811276,0.335488571803669,0.040278783010790326,0.17945522269565434,0.06788024164447075,0.1787055074754145
1.002259937206258,0.3667004160945303,0.04233261056524173,0.20044309409803335,0.06986098828577121,0.1997415426580596
1.0023070192313883,0.37630521047742305,0.04263954784026877,0.20989430295355302,0.06992289700794678,0.20921851774558137
1.0023541012565187,0.3658732131217113,0.041447790524611366,0.20800353236518512,0.06823876201854151,0.20732680269652798
1.002401183281649,0.3393357840705059,0.0406510520894073,0.19716291122807472,0.06503448746786994,0.19646980003099973
1.0024482653067794,0.30043566038503033,0.03969387649476256,0.1783931936762516,0.05744181466883492,0.17770083822967556
1.0024953473319098,0.25183659939415354,0.03639355248384706,0.15384153094853617,0.04453178484557719,0.1532211961991679
1.0025424293570402,0.1956066522565673,0.029828805005308264,0.12081929242955049,0.028526745763873273,0.12036502346579328
1.0025895113821706,0.13475970805500284,0.023567672286680455,0.07564140824241966,0.010615559300861898,0.07545153689129801
1.002636593407301,0.07582916802294695,0.020069706609949778,0.025728531183742454,-0.002582539097921921,0.025769540462235587
1.0026836754324313,0.03145358980808763,0.0192121865971914,-0.0040036080406334615,-0.002380056944533811,-0.003961687978009614
1.0027307574575617,0.01779891286180085,0.02216926302562536,-0.006351274616742859,0.011956516436143535,-0.006558392445414591
1.002777839482692,0.04358985242398123,0.021520651869569894,0.006591376950054447,0.032118597546699816,0.006035805323354698
1.0028249215078224,0.1037077589167159,0.028936802375760354,0.04281328660270074,0.04800277204914839,0.042023901993688634
1.0028720035329528,0.18101238562213362,0.04100909935431227,0.0979436666785688,0.05608357212251329,0.09712043540478385
1.0029190855580832,0.25636899888384335,0.05309665094309912,0.15380629462607742,0.05756613194163582,0.15306697209702064
1.0029661675832136,0.31832235074100634,0.06106306916366379,0.19704252226634572,0.05587244606132549,0.1963944230685206
1.003013249608344,0.36361141655314383,0.06551284614041011,0.228525784613192,0.05468639667505042,0.227940042827918
1.0030603316334743,0.39341420767750745,0.06692508927045661,0.24979870354304085,0.0519748388698973,0.2492597305942554
1.0031074136586047,0.4102870696014962,0.06603093816324268,0.26258314989231946,0.04901867257007292,0.26207477580249616
1.003154495683735,0.41662904201390033,0.06430622546558673,0.266777273312063,0.04558710873952369,0.26628829831157735
1.0032015777088654,0.41405085665469693,0.06153322836149073,0.26326150551395927,0.04137134707396439,0.2627888165693707
1.0032486597339958,0.4030953535584088,0.057681425017773,0.251751202986526,0.03615169382325222,0.25130037637996255
1.0032957417591262,0.38301151602067063,0.05265948773310585,0.2324239377319079,0.03003131581628102,0.23200990679903902
1.0033428237842565,0.3514583105172215,0.04625072618965746,0.2047530276495091,0.02291549646556578,0.20440167308590118
1.003389905809387,0.3042863356687068,0.03827550957330854,0.16911475512504195,0.015257061574981051,0.1688554113432686
1.0034369878345173,0.2364892670841809,0.029154188848420862,0.12615890065588273,0.007304038300237105,0.12601967055719224
1.0034840698596477,0.14805992805189566,0.020007183524523048,0.07745804013496241,-0.00034891245476177874,0.07745244039634283
1.003531151884778,0.05937981673678241,0.014312467487664952,0.035632586371168055,-0.0056283668424282245,0.035725333381055616
1.0035782339099084,0.016571701488668728,0.014775405644768447,0.012038086514572617,-0.006449411297306339,0.012148490953024282
1.0036253159350388,0.04141534161646615,0.022939192109508566,0.014399178728297872,-0.00034540760037372913,0.014403004981393266
1.0036723979601692,0.0978579156313711,0.03579331246729623,0.03595348541122598,0.011859731161693036,0.035745040049827335
1.0037194799852995,0.14599333246590304,0.051435990352472476,0.06503465797160808,0.024159857758929423,0.06462679489060871
1.00376656201043,0.17300879075255565,0.06184348258164419,0.0922030709843016,0.03564026079197982,0.09163596018238072
1.0038136440355603,0.18229222765708752,0.06932829436871152,0.11374971918924169,0.04250893316695988,0.11310976207596703
1.0038607260606907,0.18262972424027749,0.07268484656268846,0.12736778710133306,0.047308589978226304,0.12668675594183662
1.003907808085821,0.18292620727983336,0.07369386349468461,0.13485525602086357,0.05306415093702763,0.13412428066585252
1.0039548901109514,0.18798821740501145,0.07487191380981385,0.13913083302593265,0.05780369738753996,0.13836224680144613
1.0040019721360818,0.19658928748535154,0.07404439845315385,0.1397247738744464,0.060324839695275315,0.1389350578121058
1.0040490541612122,0.20361099360789395,0.06993201211659009,0.1356935801867525,0.06088112882853754,0.1348908389014695
1.0040961361863425,0.20356945018764083,0.06286202738658783,0.1287855413388881,0.05934501840309672,0.1279831523277353
1.004143218211473,0.19261735903368254,0.054899173987738775,0.11776025800915435,0.05776830013509833,0.11695288753525855
1.0041903002366033,0.1692114287165738,0.04551224849188106,0.09836742477706704,0.05266171233631408,0.09758552734234957
1.0042373822617336,0.13469585530973552,0.03536178823168374,0.07519967777083232,0.04398202709475616,0.07450277271767221
1.004284464286864,0.094068350002802,0.025014333678296984,0.051842634052145065,0.03378445166400721,0.051279719246143045
1.0043315463119944,0.0558705414627791,0.015972791346320573,0.03082107495389939,0.021678222732106768,0.03044767777219583
1.0043786283371248,0.029785725493520713,0.010604725295124176,0.019809015244991575,0.009436725138429053,0.01964313509579566
1.0044257103622551,0.022326134922130727,0.00877460937686816,0.01684685304795892,-0.000563977404085522,0.016854105406563274
1.0044727923873855,0.03362727707623793,0.009795574242222504,0.01768087969631584,-0.006112852828448141,0.017784643785237374
1.004519874412516,0.057935866130881315,0.013283299725801964,0.0238553638180855,-0.007022700438262722,0.023974201407478787
1.0045669564376463,0.08691312585069338,0.018643419687604267,0.038233159934289905,-0.0022695393473174904,0.03826682525169711
1.0046140384627766,0.11302745450084833,0.024672793945299115,0.05542672474865837,0.00810116742107141,0.05528017466265719
1.004661120487907,0.13143773576861661,0.030693102903275284,0.07126698378066398,0.020674312800282577,0.07091509085782562
1.0047082025130374,0.140315951549541,0.03527121977490902,0.0817840112464661,0.03335317470432424,0.0812432617512233
1.0047552845381678,0.14016084842095028,0.03548112542626506,0.0846685751900148,0.04423492563841062,0.08397757175808611
1.0048023665632981,0.13271042804166153,0.03297860684025621,0.08028160564993014,0.0521144280963546,0.07948059400256244
1.0048494485884285,0.1199532079956697,0.028781593019383295,0.06958311394397716,0.058534212172566685,0.06868072299042491
1.0048965306135589,0.10352759540252561,0.025880163188834637,0.05738407400153901,0.06271467527748974,0.05640238626412098
1.0049436126386893,0.08458770500586026,0.021378995267753147,0.04469505929439128,0.06270045237823606,0.04368854808498888
1.0049906946638196,0.06411017510052013,0.018403481067748827,0.03435472552873721,0.05896856542242198,0.033385378530756654
1.00503777668895,0.043500849939608656,0.014246272107329544,0.022887706523455283,0.053753559496220585,0.02198332186651909
1.0050848587140804,0.02497562650004661,0.010649209894690611,0.013888116903115118,0.04652178047866132,0.01309258682952481
1.0051319407392107,0.011013597455985432,0.007855296628980567,0.011624969459267675,0.03708650743420552,0.010986907057321867
1.0051790227643411,0.003334338693202587,0.007274866379783654,0.009001101837417943,0.025777906308625798,0.008555017310426105
1.0052261047894715,0.0027948227754708652,0.003986988332079172,0.005716764128480125,0.014355009659227183,0.005467208853975329
1.0052731868146019,0.010164673003053454,0.002025830753019762,0.005314070387151807,0.005517350575967154,0.005217546235565656
1.0053202688397322,0.026566180290056158,0.0027118875702586936,0.008193549268036414,-0.001739450114545391,0.008222528131240223
1.0053673508648626,0.05291846997433676,0.004805162273924545,0.011498759854167706,-0.005735470178033151,0.011596791045593236
1.005414432889993,0.08828034555015178,0.007387086266641509,0.017065936640710815,-0.005591661678558523,0.017160686546451597
1.0054615149151234,0.12763762777320273,0.010356773983763072,0.025647230237824777,-0.0019145650902433,0.025676625583902307
1.0055085969402537,0.16155770115500132,0.01271794862329199,0.038076850744054896,0.006162049949704767,0.03796506840841523
1.0055556789653841,0.18078890709766565,0.01589290863992416,0.05135766337998839,0.016360171999182018,0.05107378764704939
1.0056027609905145,0.18307418566708303,0.016891319462513616,0.06056084021799014,0.027179192302112548,0.06010448503705186
1.0056498430156449,0.1741533504439713,0.01835565669542842,0.06655908741414072,0.036716618512223326,0.06596000168222137
1.0056969250407752,0.16242605985016223,0.01819309649131823,0.07063087442771013,0.04477312954337697,0.06991833153225305
1.0057440070659056,0.15418810481596457,0.01602328295341866,0.07107575192890922,0.049144346554941064,0.07030262824290875
1.005791089091036,0.1523552110015489,0.012266855079220321,0.0660360559428213,0.04995820155255416,0.0652453588653442
1.0058381711161664,0.15691036178882456,0.010468527340115042,0.06130313889977103,0.04916341311606337,0.060517883870344416
1.0058852531412967,0.16538784679386007,0.010361496800443109,0.06307528196508604,0.046751763707018265,0.062326650369822684
1.005932335166427,0.17322460684996496,0.00930464303059966,0.06323184659303546,0.04232308978202993,0.06254760568572951
1.0059794171915575,0.17475929729964576,0.006902905030958785,0.05880087400333982,0.03563420020417035,0.05821328495064207
1.0060264992166879,0.16548577922015562,0.0044361652320554675,0.05204155960234529,0.02924931159198568,0.05154987151135131
1.0060735812418182,0.1445721481217929,0.002463853665427208,0.04234591607178599,0.022130049534380147,0.041966547348003286
1.0061206632669486,0.11538472372115638,0.00034066252746560536,0.03266210113426135,0.014690571519913558,0.03240598463983353
1.006167745292079,0.08342022676517998,-0.0005364177139648789,0.0259645785337829,0.008157547340736017,0.02582001511568723
1.0062148273172093,0.053714935068683495,0.0008427605643784938,0.01794830890199036,0.004129881073987689,0.01787407694603121
1.0062619093423397,0.029620632829972474,0.003064998783034897,0.006428025048282717,0.00234205603096595,0.00638640715774452
1.00630899136747,0.012907514843990737,0.006011119435428033,-0.004503164505502606,0.003169384853521096,-0.004557541708641234
1.0063560733926005,0.004292560353454192,0.010004270866014511,-0.010519166817943732,0.005567302354940846,-0.01061440298465047
1.0064031554177308,0.0038095921685766332,0.015451715313862031,-0.007972360122875525,0.007770823084730471,-0.008106326715118815
1.0064502374428612,0.010924293923755681,0.023257760723228608,0.0013341291502741227,0.01328390158708275,0.0011033568194948583
1.0064973194679916,0.02453035587728399,0.02961485046786824,0.011333716656649779,0.020389325098979103,0.010980304904535302
1.006544401493122,0.042966387475684646,0.034590206543665465,0.020787738978896356,0.02713684545082074,0.020321165875554912
1.0065914835182523,0.06411092062196938,0.03729601294193718,0.03329944681240632,0.03181506012180991,0.03275944643351505
1.0066385655433827,0.08556714248621351,0.04101339493727216,0.049462130528264495,0.03479535461587909,0.04888220320534645
1.006685647568513,0.10493697207975199,0.04264599082761078,0.06485229624100503,0.036134802091696484,0.064260803764016
1.0067327295936435,0.12014720761669652,0.04271627967148908,0.07640706666955516,0.03580207539094585,0.0758276512410535
1.0067798116187738,0.12974860817624662,0.03939023906905339,0.08294186479002422,0.03380899363558112,0.08239515547737787
1.0068268936439042,0.1331160769266914,0.03696915783344398,0.08436945777741765,0.030096533230680064,0.08387747867447783
1.0068739756690346,0.13051634907150206,0.03270816273466577,0.08386978816652868,0.026533222887513707,0.08343048788444085
1.006921057694165,0.12301693370584733,0.026997251307578875,0.08185258015702256,0.021260333126904476,0.08149312888089925
1.0069681397192953,0.11219272060745543,0.019755910782052452,0.07585112215539112,0.014922202559044907,0.07559122724121616
1.0070152217444257,0.09964098937742749,0.012623699729953126,0.06985230351433948,0.009036739732418074,0.06968887984665582
1.007062303769556,0.08648287672211809,0.007017101352967825,0.06302251331950957,0.004564777335125204,0.06293490763024591
1.0071093857946865,0.07315337862299943,0.0036046877939686374,0.053521194673379444,0.0014621541994590342,0.05348792439749826
1.0071564678198168,0.05967551136841471,0.0003199858994043365,0.042771215350936226,-0.0015727214060109772,0.04279206580768793
1.0072035498449472,0.046352747241279996,-0.0025903349666320905,0.029687677967592516,-0.002787894585061596,0.029731667664083104
1.0072506318700776,0.03458526276589038,-0.004135397823424365,0.01916866027493343,-0.0022083943432522684,0.019204144605729695
1.007297713895208,0.02727830692374265,-0.0040151115433802245,0.01473006896934623,-0.001678858947604274,0.014757012449418294
1.0073447959203383,0.0280866607277734,-0.0024885245134847393,0.01711698325886342,-0.00026840396770059003,0.01711906248117316
1.0073918779454687,0.03925806445151868,0.0022054383108469286,0.028584290137595406,0.0036154838895147267,0.02851746555547966
1.007438959970599,0.059562255279517966,0.008672478757022638,0.043832242766228824,0.008649199641466435,0.043677518794446084
1.0074860419957294,0.08449757331606145,0.014232088300869966,0.058037587268334905,0.01494672353251627,0.05777705958007145
1.0075331240208598,0.10858230355013457,0.018304361826223213,0.06858033205585247,0.020301787514431985,0.06823397744078917
1.0075802060459902,0.12742598805780986,0.02118974518565959,0.07621925524513734,0.024067810567159457,0.07581535432021176
1.0076272880711206,0.13840784538629322,0.022432175962639862,0.07904744927672683,0.026451404376656634,0.07860789584383124
1.007674370096251,0.14057521646913557,0.021728934783389088,0.0769603579802706,0.02732264691935408,0.07650695485511469
1.0077214521213813,0.1345761316442056,0.019364802432219535,0.07084930100861353,0.026320173239630824,0.07040931958969784
