freq,gls,usurper,pdc_unbiased,shape_periodogram,shift_periodogram
1.0,0.02176245538732735,0.01370269754853086,-0.007335655112181927,0.009024822333158938,-0.0075364709220525315
1.0000470820251304,0.05134779247241603,0.019790325416538537,0.016081221596065367,0.01086916717582012,0.015834480155827717
1.0000941640502607,0.09689124580742478,0.02845265821985885,0.05094334186944231,0.016944230508438414,0.050559319442808184
1.0001412460753911,0.14848755125694818,0.036450323765696103,0.08456655871201842,0.027440138255167716,0.0839680708186152
1.0001883281005215,0.19664060203551523,0.04461159575854662,0.10917973127593883,0.04210666219430401,0.10832004044746088
1.0002354101256519,0.23592916525893703,0.052158261253703424,0.12678225514793529,0.05452978633591289,0.12574133548039165
1.0002824921507822,0.26363730657080775,0.05757715232490848,0.13936052532630389,0.062419085318534955,0.1382310714797503
1.0003295741759126,0.2780607972143743,0.06115467379043015,0.14663287491158739,0.06675281090491285,0.14546508343073392
1.000376656201043,0.27778293516045677,0.06211880334319037,0.14742341655727248,0.0697675402960688,0.14622159894595702
1.0004237382261734,0.2619162710265795,0.060201088817376514,0.139633635428265,0.07036669998491622,0.13840325350839158
1.0004708202513037,0.23107843684954268,0.05571264565453423,0.12167319492364326,0.06806666566189871,0.12042534346790743
1.0005179022764341,0.1884924826566669,0.049660185323285734,0.09811663264576473,0.0643019799071988,0.09686936896444247
1.0005649843015645,0.1401213853463462,0.045098351722272986,0.07552593926328457,0.06033901807979849,0.07430001618087816
1.0006120663266949,0.09311329616242185,0.04195187505806748,0.056936636782797936,0.05525793618023315,0.05577411847557796
1.0006591483518252,0.05338098213176131,0.04089353346127274,0.04656239048066332,0.048214512936398196,0.04552582779100818
1.0007062303769556,0.024158292773911582,0.03908202881571935,0.0379052596807291,0.0388538277238699,0.03705426952062343
1.000753312402086,0.006389706849983347,0.037628354539815015,0.024925530867037873,0.02795060702097608,0.024302569251795376
1.0008003944272164,4.4957735270936574e-05,0.036796882118807946,0.013623927240606612,0.01897569832658831,0.013197487083196426
1.0008474764523467,0.004476680458159687,0.03499655946577979,0.005279248516488982,0.015876556076785057,0.004922543991022021
1.000894558477477,0.016631009383087918,0.038845317767546045,0.00604487589630294,0.018380925746815522,0.005632159834665848
1.0009416405026075,0.030279800796216314,0.04648443654072437,0.01614856324889533,0.025563864132604364,0.015576572496832334
1.0009887225277379,0.04019506929021177,0.05557489484622516,0.031662352407458065,0.037420986877966196,0.0308380879690056
1.0010358045528682,0.045271217739530065,0.06200742633961411,0.049643587368788454,0.052127176358850946,0.04853229291337222
1.0010828865779986,0.04665854735345898,0.0679032914265362,0.06394396252727896,0.0657367754683062,0.06259757861915115
1.001129968603129,0.04557434040645729,0.07157906399514952,0.06951556918541625,0.07617908337014281,0.06799870240876507
1.0011770506282593,0.04281463251624272,0.07166096673668658,0.06676401531502141,0.08094904375941972,0.06515684264689857
1.0012241326533897,0.03911406922799136,0.06798965217417353,0.05756222886158259,0.08051562408395024,0.05593205476141139
1.00127121467852,0.035734840091298535,0.061708980241817216,0.04469056838221148,0.07712394165410918,0.04308301184657914
1.0013182967036505,0.034632288517627896,0.05632675621146789,0.03354469161607427,0.07392064311946472,0.03196872399291001
1.0013653787287808,0.03686446430802818,0.053236942027648025,0.03235087082016887,0.07208967839572766,0.030808721266617437
1.0014124607539112,0.040499198873267514,0.05360843873837964,0.04235422606047071,0.07273192983831539,0.04082483720695373
1.0014595427790416,0.04245011553894062,0.0562885989704871,0.05148956578485458,0.07523069677666609,0.04993734914066576
1.001506624804172,0.04142424671447975,0.057875219843243134,0.057489670337512934,0.07401903762900992,0.05597653849201395
1.0015537068293023,0.03772147907862947,0.05874721456007054,0.05838903434484734,0.0678610122033637,0.05699122997304633
1.0016007888544327,0.032149333674356434,0.05599898935914501,0.05286952532393206,0.05767871332763573,0.05165394770772464
1.001647870879563,0.025799799790141527,0.04938659087267054,0.040386054375886556,0.04335967325198562,0.039442988352516
1.0016949529046935,0.020580986012262138,0.03978718977695569,0.02276083148008517,0.028147606266711443,0.022133179414001152
1.0017420349298238,0.01993155776046648,0.03503364134667175,0.008396000375120035,0.017495249893299668,0.008002845157792138
1.0017891169549542,0.027489951613850306,0.0345391882712124,0.00883020356959996,0.01667027016753367,0.00845539071319881
1.0018361989800846,0.042074300128446054,0.03575268315522933,0.022145335055818467,0.021928228811521306,0.02165361477706627
1.001883281005215,0.05845891480384451,0.04242556821869459,0.04104344236602053,0.03230706084453336,0.04033151122739633
1.0019303630303453,0.07582159493280267,0.04846532458884293,0.05832937685591873,0.044859471906873276,0.05737144889390546
1.0019774450554757,0.09824195100672209,0.051228149687684514,0.07041397317164165,0.059209937298588436,0.06919914923106786
1.002024527080606,0.1303669711588208,0.04853352445936144,0.07896421651578898,0.0685578771788785,0.07760272953585934
1.0020716091057364,0.17464242099810953,0.04473649795724122,0.08832693698111686,0.07468778031035841,0.08689017302217106
1.0021186911308668,0.22917237164395338,0.04562067164393861,0.11355266104308831,0.07940140270621902,0.11212737414019967
1.0021657731559972,0.2864808872447173,0.049679875382894555,0.14880372324738836,0.08393392072869235,0.14745547414331683
1.0022128551811276,0.335488571803669,0.053515567956458905,0.17945522269565434,0.08787324771893956,0.1782020779200959
1.002259937206258,0.3667004160945303,0.055298317889417616,0.20044309409803335,0.08991904910027701,0.19927287589907106
1.0023070192313883,0.37630521047742305,0.05482758396947543,0.20989430295355302,0.08944370491009085,0.20876855274480005
1.0023541012565187,0.3658732131217113,0.05256471731333179,0.20800353236518512,0.08667536467600541,0.20687895907943077
1.002401183281649,0.3393357840705059,0.05006601042588019,0.19716291122807472,0.08227328104930476,0.19601505409672956
1.0024482653067794,0.30043566038503033,0.047048734444546034,0.1783931936762516,0.07328622022012643,0.17724522823638514
1.0024953473319098,0.25183659939415354,0.04217141516403733,0.15384153094853617,0.05845140007674519,0.152794076109279
1.0025424293570402,0.1956066522565673,0.03377618548975446,0.12081929242955049,0.03970625830505071,0.12001154988702016
1.0025895113821706,0.13475970805500284,0.02585923376348926,0.07564140824241966,0.017478787510631442,0.07524532800356942
1.002636593407301,0.07582916802294695,0.02125984100146712,0.025728531183742454,0.00021752093502706694,0.02571719401809934
1.0026836754324313,0.03145358980808763,0.01881434379220117,-0.0040036080406334615,6.99231431888094e-05,-0.004004169285736656
1.0027307574575617,0.01779891286180085,0.021852324445653704,-0.006351274616742859,0.017782629848306048,-0.006749471951716386
1.002777839482692,0.04358985242398123,0.027100919077342422,0.006591376950054447,0.04138518011794497,0.0056666169262776
1.0028249215078224,0.1037077589167159,0.04117395550586927,0.04281328660270074,0.061334145543769765,0.04150887454729649
1.0028720035329528,0.18101238562213362,0.05806886345838178,0.0979436666785688,0.0720064603684664,0.09657578135636016
1.0029190855580832,0.25636899888384335,0.07154218622023398,0.15380629462607742,0.07636112451277986,0.1525510557197675
1.0029661675832136,0.31832235074100634,0.07841218432365249,0.19704252226634572,0.07807637138731174,0.1959194320982359
1.003013249608344,0.36361141655314383,0.08302552229583052,0.228525784613192,0.07823922031159639,0.2275129955049012
1.0030603316334743,0.39341420767750745,0.08440143662380528,0.24979870354304085,0.07583832896639998,0.2488673701122104
1.0031074136586047,0.4102870696014962,0.08330970530159879,0.26258314989231946,0.07320107338275116,0.2617002300411265
1.003154495683735,0.41662904201390033,0.08104575503380287,0.266777273312063,0.06960357076135609,0.2659163699138751
1.0032015777088654,0.41405085665469693,0.07747111637343802,0.26326150551395927,0.06483216849449014,0.26240796939203764
1.0032486597339958,0.4030953535584088,0.07258449294598633,0.251751202986526,0.058766179756781244,0.2509031806970122
1.0032957417591262,0.38301151602067063,0.0662697760369646,0.2324239377319079,0.051427247613485334,0.23159723098620796
1.0033428237842565,0.3514583105172215,0.05831006952904678,0.2047530276495091,0.04276303649576237,0.20398301390715484
1.003389905809387,0.3042863356687068,0.04834079265081428,0.16911475512504195,0.03306471931167816,0.16845294244533476
1.0034369878345173,0.2364892670841809,0.03705261794009616,0.12615890065588273,0.022694130180366236,0.12566269704671612
1.0034840698596477,0.14805992805189566,0.025857492132258787,0.07745804013496241,0.012421702963409545,0.07716855099130222
1.003531151884778,0.05937981673678241,0.01882146144285211,0.035632586371168055,0.004933374279906919,0.03551365505510716
1.0035782339099084,0.016571701488668728,0.018889817529674877,0.012038086514572617,0.0025601309456008674,0.011977704057598567
1.0036253159350388,0.04141534161646615,0.027691219911101326,0.014399178728297872,0.008957792858245335,0.014195322859015369
1.0036723979601692,0.0978579156313711,0.04270906095512265,0.03595348541122598,0.023510201299252204,0.03542805727844343
1.0037194799852995,0.14599333246590304,0.06163525856241958,0.06503465797160808,0.038098742729498154,0.06421583029074489
1.00376656201043,0.17300879075255565,0.07553673199640362,0.0922030709843016,0.05071274529103121,0.0911735453174137
1.0038136440355603,0.18229222765708752,0.08465399184549653,0.11374971918924169,0.05828577371970401,0.11262854520101731
1.0038607260606907,0.18262972424027749,0.08818410468642178,0.12736778710133306,0.06286317582741804,0.1262060854527052
1.003907808085821,0.18292620727983336,0.09036478922965265,0.13485525602086357,0.06667065151866683,0.13365919329055087
1.0039548901109514,0.18798821740501145,0.09206048929055456,0.13913083302593265,0.0701466158169597,0.13790176978536292
1.0040019721360818,0.19658928748535154,0.09043643424549837,0.1397247738744464,0.07179581807243923,0.13847730380913642
1.0040490541612122,0.20361099360789395,0.08531474776044459,0.1356935801867525,0.07309255403671784,0.13441867125493015
1.0040961361863425,0.20356945018764083,0.07745610396030879,0.1287855413388881,0.07153020376822518,0.12751029856538487
1.004143218211473,0.19261735903368254,0.06948675848200336,0.11776025800915435,0.06977800372080377,0.11647844850357414
1.0041903002366033,0.1692114287165738,0.059303344688709646,0.09836742477706704,0.06443407382769441,0.09711860574174314
1.0042373822617336,0.13469585530973552,0.047789355566241795,0.07519967777083232,0.054866187398700035,0.07407178269694652
1.004284464286864,0.094068350002802,0.035524926957478366,0.051842634052145065,0.043454585970620775,0.05090703305096479
1.0043315463119944,0.0558705414627791,0.02420963539059465,0.03082107495389939,0.03019724474621341,0.030150878678073586
1.0043786283371248,0.029785725493520713,0.01711210073201369,0.019809015244991575,0.017530803862679054,0.019414139570446336
1.0044257103622551,0.022326134922130727,0.014126727949408604,0.01684685304795892,0.007899696514753474,0.016666072107441893
1.0044727923873855,0.03362727707623793,0.014512805351949359,0.01768087969631584,0.0030819493201475127,0.017607442435970243
1.004519874412516,0.057935866130881315,0.01796333258891055,0.0238553638180855,0.00322287303313171,0.02377728503811026
1.0045669564376463,0.08691312585069338,0.023959653868247034,0.038233159934289905,0.009476725627786882,0.03801322456027741
1.0046140384627766,0.11302745450084833,0.031196269649625918,0.05542672474865837,0.021937709043774508,0.0549363310140506
1.004661120487907,0.13143773576861661,0.03871515151387591,0.07126698378066398,0.036809654439558394,0.07047747712930029
1.0047082025130374,0.140315951549541,0.04545841703173018,0.0817840112464661,0.05141944409098938,0.08072804921487847
1.0047552845381678,0.14016084842095028,0.047267895008405544,0.0846685751900148,0.0635016549724998,0.08340568687535595
1.0048023665632981,0.13271042804166153,0.04601083378552006,0.08028160564993014,0.07227297539241992,0.07886119824134061
1.0048494485884285,0.1199532079956697,0.04208223134639761,0.06958311394397716,0.07838622628161636,0.06802877465609554
1.0048965306135589,0.10352759540252561,0.039762613983391676,0.05738407400153901,0.08146025839601383,0.05573644134225488
1.0049436126386893,0.08458770500586026,0.03633089684747069,0.04469505929439128,0.07975109542102354,0.043037499788248224
1.0049906946638196,0.06411017510052013,0.03326252348203373,0.03435472552873721,0.07415426250607975,0.032776228182732466
1.00503777668895,0.043500849939608656,0.02837514413217623,0.022887706523455283,0.06672951543044965,0.021434483924707863
1.0050848587140804,0.02497562650004661,0.022864504844777193,0.013888116903115118,0.05777026124985161,0.012610599638007277
1.0051319407392107,0.011013597455985432,0.017250311349477344,0.011624969459267675,0.04744067507700191,0.010570347093865869
1.0051790227643411,0.003334338693202587,0.013762020652192097,0.009001101837417943,0.03450534357786225,0.008230087296213587
1.0052261047894715,0.0027948227754708652,0.008593916456887831,0.005716764128480125,0.020063969579890945,0.005266498374611148
1.0052731868146019,0.010164673003053454,0.0058431974773068655,0.005314070387151807,0.008221437027768121,0.0051285598952251436
1.0053202688397322,0.026566180290056158,0.0057559057790965385,0.008193549268036414,0.0002341258186806027,0.008186239974414507
1.0053673508648626,0.05291846997433676,0.007041143826607105,0.011498759854167706,-0.003969954957186366,0.011584963607597113
1.005414432889993,0.08828034555015178,0.008037263538714381,0.017065936640710815,-0.004300981342778154,0.01715820708447466
1.0054615149151234,0.12763762777320273,0.01024216817498709,0.025647230237824777,-0.0007757479441652268,0.025658171362474027
1.0055085969402537,0.16155770115500132,0.013485576995784117,0.038076850744054896,0.007907470700448414,0.03789154200262589
1.0055556789653841,0.18078890709766565,0.017857020063410303,0.05135766337998839,0.019384423595362302,0.05092135940533665
1.0056027609905145,0.18307418566708303,0.02024142061337026,0.06056084021799014,0.03167383244124481,0.05986921108584825
1.0056498430156449,0.1741533504439713,0.023528984086260772,0.06655908741414072,0.043070051417668266,0.06564360214341157
1.0056969250407752,0.16242605985016223,0.02507580168014925,0.07063087442771013,0.052725439367731386,0.06953584325677152
1.0057440070659056,0.15418810481596457,0.024001381336322316,0.07107575192890922,0.05858473232042856,0.06987346659227325
1.005791089091036,0.1523552110015489,0.020567700348785866,0.0660360559428213,0.060383114364579764,0.0647919063289133
1.0058381711161664,0.15691036178882456,0.018806188792682376,0.06130313889977103,0.059760818464875416,0.06006206438889814
1.0058852531412967,0.16538784679386007,0.01855252253988067,0.06307528196508604,0.05676064824972297,0.061893536075436455
1.005932335166427,0.17322460684996496,0.017747874579670177,0.06323184659303546,0.05163664907966732,0.062147522717174664
1.0059794171915575,0.17475929729964576,0.01477821264391086,0.05880087400333982,0.04424397555717493,0.057855543511408855
1.0060264992166879,0.16548577922015562,0.011295091733694263,0.05204155960234529,0.0371358854693961,0.05123435773470278
1.0060735812418182,0.1445721481217929,0.008194834549175693,0.04234591607178599,0.029415219561415518,0.04169544516006105
1.0061206632669486,0.11538472372115638,0.00526737396931887,0.03266210113426135,0.02222700664573067,0.03216420789020701
1.006167745292079,0.08342022676517998,0.004602934671667589,0.0259645785337829,0.016401173342101772,0.02559408578112981
1.0062148273172093,0.053714935068683495,0.006335979942944202,0.01794830890199036,0.012693640384725249,0.017660716463658698
1.0062619093423397,0.029620632829972474,0.008991141353974752,0.006428025048282717,0.011430307055674214,0.006170517170518111
1.00630899136747,0.012907514843990737,0.011784082511319153,-0.004503164505502606,0.011251155613453488,-0.0047546178379077545
1.0063560733926005,0.004292560353454192,0.0158899203266158,-0.010519166817943732,0.012570024149313725,-0.010799193918206315
1.0064031554177308,0.0038095921685766332,0.020590372638920513,-0.007972360122875525,0.014033771736618123,-0.008285829756862017
1.0064502374428612,0.010924293923755681,0.027617852873032325,0.0013341291502741227,0.018213880512227262,0.0009255250554506721
1.0064973194679916,0.02453035587728399,0.03451755070482742,0.011333716656649779,0.024237310987632116,0.010790645845937225
1.006544401493122,0.042966387475684646,0.04011195749986634,0.020787738978896356,0.02988031861094176,0.02012188772568035
1.0065914835182523,0.06411092062196938,0.04431240067231725,0.03329944681240632,0.03467320702914546,0.03253438531105374
1.0066385655433827,0.08556714248621351,0.04928771744121956,0.049462130528264495,0.03867359235336796,0.04862193023907069
1.006685647568513,0.10493697207975199,0.051384887086859295,0.06485229624100503,0.041484638713028175,0.06396643566511226
1.0067327295936435,0.12014720761669652,0.05124842434199698,0.07640706666955516,0.04252626832821831,0.0755105230806231
1.0067798116187738,0.12974860817624662,0.04765941335820699,0.08294186479002422,0.04119738165067586,0.08207597314605196
1.0068268936439042,0.1331160769266914,0.04401556587677087,0.08436945777741765,0.03768650199722405,0.08357119058012975
1.0068739756690346,0.13051634907150206,0.039551866570219495,0.08386978816652868,0.033665606926726266,0.08314862353219252
1.006921057694165,0.12301693370584733,0.03389878969503691,0.08185258015702256,0.027238190006999168,0.08125738479768398
1.0069681397192953,0.11219272060745543,0.026816866254192075,0.07585112215539112,0.020192883026261443,0.0753985233175131
1.0070152217444257,0.09964098937742749,0.01930114852897626,0.06985230351433948,0.013819604690362145,0.06953380061570881
1.007062303769556,0.08648287672211809,0.01356205684896211,0.06302251331950957,0.009349825776200856,0.06280104912737304
1.0071093857946865,0.07315337862299943,0.009297603937476622,0.053521194673379444,0.006353572341914073,0.05336698883897216
1.0071564678198168,0.05967551136841471,0.004986360470230531,0.042771215350936226,0.0037903508202269125,0.04267602526347072
1.0072035498449472,0.046352747241279996,0.0021268671609749857,0.029687677967592516,0.0033497880883633637,0.02960537000718296
1.0072506318700776,0.03458526276589038,0.0006019203873410805,0.01916866027493343,0.004492492374255153,0.01906335132620663
1.007297713895208,0.02727830692374265,0.0010736689637287518,0.01473006896934623,0.005598833546616451,0.014601088613521787
1.0073447959203383,0.0280866607277734,0.003271796936925328,0.01711698325886342,0.008228608366766223,0.01692881770439988
1.0073918779454687,0.03925806445151868,0.008924532937092467,0.028584290137595406,0.013825652233049516,0.028270161591028936
1.007438959970599,0.059562255279517966,0.016778984379428624,0.043832242766228824,0.020426326002480222,0.04337354581746033
1.0074860419957294,0.08449757331606145,0.023918528218610177,0.058037587268334905,0.028672740849927107,0.05740682723026744
1.0075331240208598,0.10858230355013457,0.029566291028338892,0.06858033205585247,0.03549091341655991,0.06781539908329527
1.0075802060459902,0.12742598805780986,0.03306290381417937,0.07621925524513734,0.04030793133174161,0.0753650181711443
1.0076272880711206,0.13840784538629322,0.03483754220343179,0.07904744927672683,0.04334284854704426,0.07813775179084162
1.007674370096251,0.14057521646913557,0.0338298688615764,0.0769603579802706,0.04444412393317812,0.07602793436440472
1.0077214521213813,0.1345761316442056,0.03021560500105036,0.07084930100861353,0.043105673479286635,0.06993684101525813
1.0077685341465117,0.12269802495893224,0.025414425853777477,0.062425783036096825,0.03779640638911538,0.06161134891827142
