freq,gls,usurper,pdc_unbiased,shape_periodogram,shift_periodogram
1.0,0.02176245538732735,0.005648716402489812,-0.007335655112181927,-0.0004692904553854945,-0.007321145481794428
1.0000470820251304,0.05134779247241603,0.01691520195164937,0.016081221596065367,0.004773966924236776,0.01595323016491006
1.0000941640502607,0.09689124580742478,0.030972074332913966,0.05094334186944231,0.014656036578869307,0.05055609621918735
1.0001412460753911,0.14848755125694818,0.04635844975190234,0.08456655871201842,0.024689296056618272,0.08393533271148168
1.0001883281005215,0.19664060203551523,0.05895930837455974,0.10917973127593883,0.03410889140825624,0.1083437645204196
1.0002354101256519,0.23592916525893703,0.06653640183173368,0.12678225514793529,0.04011433984400455,0.1258325487526124
1.0002824921507822,0.26363730657080775,0.06862745030124931,0.13936052532630389,0.04248446411729427,0.13837558431609734
1.0003295741759126,0.2780607972143743,0.06955891720194261,0.14663287491158739,0.04410703823330174,0.1456247585433321
1.000376656201043,0.27778293516045677,0.06995899266032601,0.14742341655727248,0.044850979334903805,0.14640235977282456
1.0004237382261734,0.2619162710265795,0.0672048024984059,0.139633635428265,0.045339261293749655,0.13859459178219302
1.0004708202513037,0.23107843684954268,0.06121018214129766,0.12167319492364326,0.04434153913268801,0.12063395387610171
1.0005179022764341,0.1884924826566669,0.05305547749382149,0.09811663264576473,0.04254148697838413,0.09709197935441269
1.0005649843015645,0.1401213853463462,0.04663402682437081,0.07552593926328457,0.04001035706296411,0.07453912723860313
1.0006120663266949,0.09311329616242185,0.04213679963745349,0.056936636782797936,0.03567545218443504,0.05603941207204368
1.0006591483518252,0.05338098213176131,0.04147124651227866,0.04656239048066332,0.028151899635028087,0.04584274899541266
1.0007062303769556,0.024158292773911582,0.04082891203775031,0.0379052596807291,0.018610458193942418,0.03742113144052341
1.000753312402086,0.006389706849983347,0.0388554766498024,0.024925530867037873,0.007772199079750252,0.024718132931436862
1.0008003944272164,4.4957735270936574e-05,0.038917097086490514,0.013623927240606612,-0.0024069563086800082,0.013681396099537065
1.0008474764523467,0.004476680458159687,0.03737694065801757,0.005279248516488982,-0.005407329980220621,0.005416769231640749
1.000894558477477,0.016631009383087918,0.03719301183778964,0.00604487589630294,-0.0029921763105017507,0.006119921293994425
1.0009416405026075,0.030279800796216314,0.04124880217061389,0.01614856324889533,0.0029343488264984056,0.016067774979537763
1.0009887225277379,0.04019506929021177,0.04824425128157221,0.031662352407458065,0.011810749983304305,0.031350471910141085
1.0010358045528682,0.045271217739530065,0.054946563143968084,0.049643587368788454,0.02298608189979806,0.049050550335876866
1.0010828865779986,0.04665854735345898,0.055911958819272856,0.06394396252727896,0.033403886070257835,0.06310323791533237
1.001129968603129,0.04557434040645729,0.05380391282280821,0.06951556918541625,0.042137279713919645,0.06847619566474604
1.0011770506282593,0.04281463251624272,0.047466277557648366,0.06676401531502141,0.04758833479497377,0.0655989880167971
1.0012241326533897,0.03911406922799136,0.03948512527399175,0.05756222886158259,0.05082698716857477,0.05631371902277313
1.00127121467852,0.035734840091298535,0.03111460627271327,0.04469056838221148,0.05259818080184956,0.04338566577508
1.0013182967036505,0.034632288517627896,0.024049041354277625,0.03354469161607427,0.05403923907407434,0.032191734924015385
1.0013653787287808,0.03686446430802818,0.026098829509557813,0.03235087082016887,0.05409286536842071,0.030995116119524282
1.0014124607539112,0.040499198873267514,0.034860638381805156,0.04235422606047071,0.05417295543938384,0.041009426086922415
1.0014595427790416,0.04245011553894062,0.043537485307467594,0.05148956578485458,0.052371286938173514,0.0501983230963882
1.001506624804172,0.04142424671447975,0.04883569525299447,0.057489670337512934,0.04653816222144538,0.05633934204062759
1.0015537068293023,0.03772147907862947,0.04895221907741126,0.05838903434484734,0.03811267318878099,0.05743516296255291
1.0016007888544327,0.032149333674356434,0.046881987694869745,0.05286952532393206,0.027246020285477394,0.05217289388364582
1.001647870879563,0.025799799790141527,0.043112738652133574,0.040386054375886556,0.01456283282653457,0.040002955476613984
1.0016949529046935,0.020580986012262138,0.03632912817946419,0.02276083148008517,0.001769721252320542,0.02270780695182432
1.0017420349298238,0.01993155776046648,0.031021710323302868,0.008396000375120035,-0.007550199019979662,0.008587801214827015
1.0017891169549542,0.027489951613850306,0.030938426627434082,0.00883020356959996,-0.007651598469847278,0.009024487680203863
1.0018361989800846,0.042074300128446054,0.032939131619483114,0.022145335055818467,-0.0028720254674534725,0.022211969455128388
1.001883281005215,0.05845891480384451,0.03867758263989402,0.04104344236602053,0.006960999648028583,0.04085211055402826
1.0019303630303453,0.07582159493280267,0.044422307658857185,0.05832937685591873,0.017652703308110883,0.05786697686086395
1.0019774450554757,0.09824195100672209,0.04901056254004117,0.07041397317164165,0.03014338499554988,0.06965199027316969
1.002024527080606,0.1303669711588208,0.04773410975229642,0.07896421651578898,0.039959776267516116,0.07798093914104655
1.0020716091057364,0.17464242099810953,0.043427640266816545,0.08832693698111686,0.04718760504895857,0.08719355806265496
1.0021186911308668,0.22917237164395338,0.04710893157615359,0.11355266104308831,0.05163834061210952,0.11235956223310352
1.0021657731559972,0.2864808872447173,0.05528229443225133,0.14880372324738836,0.05490722844569414,0.14760612518184768
1.0022128551811276,0.335488571803669,0.06285395317566965,0.17945522269565434,0.05721039862489448,0.1782776530157708
1.002259937206258,0.3667004160945303,0.06790044143265117,0.20044309409803335,0.057653588817327,0.19930144944276715
1.0023070192313883,0.37630521047742305,0.06990476924278802,0.20989430295355302,0.05611978406694364,0.20879164359084157
1.0023541012565187,0.3658732131217113,0.0685050654380858,0.20800353236518512,0.05269917696590285,0.2069427601174354
1.002401183281649,0.3393357840705059,0.06415524148407432,0.19716291122807472,0.046885894884415774,0.19616985938555084
1.0024482653067794,0.30043566038503033,0.05766634222866955,0.1783931936762516,0.03825722739731943,0.17752336187099052
1.0024953473319098,0.25183659939415354,0.04884060415354391,0.15384153094853617,0.027397797362161407,0.1531673879434695
1.0025424293570402,0.1956066522565673,0.03751660476361093,0.12081929242955049,0.015473420912095706,0.12040437985412576
1.0025895113821706,0.13475970805500284,0.021865999874043092,0.07564140824241966,0.003160858095343741,0.07553618868735176
1.002636593407301,0.07582916802294695,0.006437435107981067,0.025728531183742454,-0.005548531516022226,0.025863097849795888
1.0026836754324313,0.03145358980808763,0.004900140039907443,-0.0040036080406334615,-0.00757199318122289,-0.003807474672682781
1.0027307574575617,0.01779891286180085,0.017126394151129522,-0.006351274616742859,0.0012796240346942458,-0.006382113615516374
1.002777839482692,0.04358985242398123,0.0223872605760551,0.006591376950054447,0.017724597028975542,0.006133912737017182
1.0028249215078224,0.1037077589167159,0.028195861838096737,0.04281328660270074,0.030425684176207883,0.042037438477278796
1.0028720035329528,0.18101238562213362,0.04087730878342371,0.0979436666785688,0.0371309310114963,0.09703555245132472
1.0029190855580832,0.25636899888384335,0.05995995696517587,0.15380629462607742,0.041552484437990235,0.1528532662643113
1.0029661675832136,0.31832235074100634,0.07501957245646028,0.19704252226634572,0.04333452009075614,0.19610532540248377
1.003013249608344,0.36361141655314383,0.08294651657411116,0.228525784613192,0.044232618602113964,0.2276141783664133
1.0030603316334743,0.39341420767750745,0.08793032145064611,0.24979870354304085,0.043800865691876176,0.24892105532290434
1.0031074136586047,0.4102870696014962,0.08989577432232326,0.26258314989231946,0.042628476852778346,0.2617374553101942
1.003154495683735,0.41662904201390033,0.09010376960000238,0.266777273312063,0.04081322788621843,0.2659601665773587
1.0032015777088654,0.41405085665469693,0.08818028399727167,0.26326150551395927,0.03808661775273547,0.2624769571081348
1.0032486597339958,0.4030953535584088,0.08425949292221134,0.251751202986526,0.03425172257990528,0.2510115288054058
1.0032957417591262,0.38301151602067063,0.0783121123735153,0.2324239377319079,0.029397909248501063,0.23174936437145166
1.0033428237842565,0.3514583105172215,0.06978158062146125,0.2047530276495091,0.023087841671005933,0.20418270161943372
1.003389905809387,0.3042863356687068,0.058464815841837194,0.16911475512504195,0.015625694925050275,0.16869516608340837
1.0034369878345173,0.2364892670841809,0.04494538982634288,0.12615890065588273,0.007073129777698256,0.1259431011532053
1.0034840698596477,0.14805992805189566,0.029833770653950438,0.07745804013496241,-0.0010141510299459748,0.07745843709386104
1.003531151884778,0.05937981673678241,0.01860046083957722,0.035632586371168055,-0.0069647174019869355,0.035800605135249415
1.0035782339099084,0.016571701488668728,0.014636153385776184,0.012038086514572617,-0.009602235520194584,0.012281792451301843
1.0036253159350388,0.04141534161646615,0.02017971391191273,0.014399178728297872,-0.007542489527979629,0.014588922515126767
1.0036723979601692,0.0978579156313711,0.030078093807343418,0.03595348541122598,-0.0010944106672446938,0.03596972579443867
1.0037194799852995,0.14599333246590304,0.04158572557054473,0.06503465797160808,0.007483134550571632,0.0648235884073984
1.00376656201043,0.17300879075255565,0.04981436350469594,0.0922030709843016,0.017085601791329577,0.09175180067155862
1.0038136440355603,0.18229222765708752,0.05730993103487806,0.11374971918924169,0.0229175217033725,0.11316325114348455
1.0038607260606907,0.18262972424027749,0.06310844647193627,0.12736778710133306,0.029023481925702713,0.12664962356079137
1.003907808085821,0.18292620727983336,0.06579068832071648,0.13485525602086357,0.03685694626416013,0.13397756811215153
1.0039548901109514,0.18798821740501145,0.06692118647151697,0.13913083302593265,0.042881196123942776,0.1381380324258745
1.0040019721360818,0.19658928748535154,0.06465069325643506,0.1397247738744464,0.04614803172517823,0.13867063352272702
1.0040490541612122,0.20361099360789395,0.06341439384020786,0.1356935801867525,0.046942295677881246,0.13461967274643064
1.0040961361863425,0.20356945018764083,0.05946901783655923,0.1287855413388881,0.04692926677880791,0.12770355511638612
1.004143218211473,0.19261735903368254,0.05103666060339586,0.11776025800915435,0.04512716996412642,0.11670120528371161
1.0041903002366033,0.1692114287165738,0.04088028369870428,0.09836742477706704,0.04140548083147366,0.09736723948331519
1.0042373822617336,0.13469585530973552,0.030028270962304607,0.07519967777083232,0.0354960377928632,0.07431536596370254
1.004284464286864,0.094068350002802,0.020591393567495463,0.051842634052145065,0.026982914548124442,0.05115223437929545
1.0043315463119944,0.0558705414627791,0.012847385229558885,0.03082107495389939,0.016596028386316155,0.030388432745512946
1.0043786283371248,0.029785725493520713,0.008604165644333205,0.019809015244991575,0.006460497548715877,0.019636652167777265
1.0044257103622551,0.022326134922130727,0.00820867632093969,0.01684685304795892,-0.0020079955365207244,0.016892974146361775
1.0044727923873855,0.03362727707623793,0.010365554672184462,0.01768087969631584,-0.006249895391101981,0.017836180945713417
1.004519874412516,0.057935866130881315,0.014500180371481448,0.0238553638180855,-0.00605063225046276,0.024003525354504424
1.0045669564376463,0.08691312585069338,0.021002874051842788,0.038233159934289905,-0.0020352748909912375,0.03827286529414287
1.0046140384627766,0.11302745450084833,0.0294967723343459,0.05542672474865837,0.006789221576645415,0.0552357143470153
1.004661120487907,0.13143773576861661,0.036750670633332344,0.07126698378066398,0.016330035685622486,0.07083569049587635
1.0047082025130374,0.140315951549541,0.04158622176922946,0.0817840112464661,0.025352407264992414,0.0811368507265188
1.0047552845381678,0.14016084842095028,0.04291465183732666,0.0846685751900148,0.03208433981376036,0.08386644292467106
1.0048023665632981,0.13271042804166153,0.04204376442402986,0.08028160564993014,0.03611841488394914,0.07938574064981191
1.0048494485884285,0.1199532079956697,0.04004262270669711,0.06958311394397716,0.04018330032145073,0.06858828271735525
1.0048965306135589,0.10352759540252561,0.03628653264323821,0.05738407400153901,0.04279190315548984,0.05632031524100742
1.0049436126386893,0.08458770500586026,0.028819389428884748,0.04469505929439128,0.043208472076177125,0.043611893470928816
1.0049906946638196,0.06411017510052013,0.022544680155699316,0.03435472552873721,0.04064360351690253,0.03332639744756166
1.00503777668895,0.043500849939608656,0.015909364517523394,0.022887706523455283,0.0360881315597552,0.021966137361756025
1.0050848587140804,0.02497562650004661,0.009844496777567812,0.013888116903115118,0.03062664798307622,0.013101476325860895
1.0051319407392107,0.011013597455985432,0.008183901508455852,0.011624969459267675,0.023181497214023745,0.011027451166017072
1.0051790227643411,0.003334338693202587,0.0065784591477659315,0.009001101837417943,0.014752172602992988,0.008619346975572933
1.0052261047894715,0.0027948227754708652,0.003025028103666011,0.005716764128480125,0.008435178609987978,0.005497934956705444
1.0052731868146019,0.010164673003053454,-0.0008427610869306468,0.005314070387151807,0.0027384658716905165,0.005241837707568025
1.0053202688397322,0.026566180290056158,-0.003409729234727515,0.008193549268036414,-0.0018999002475305197,0.008239751869170732
1.0053673508648626,0.05291846997433676,-0.004506730875418404,0.011498759854167706,-0.0032184104972996373,0.011577842410015866
1.005414432889993,0.08828034555015178,-0.002475563910994043,0.017065936640710815,-0.0023055155880341866,0.017119651537255413
1.0054615149151234,0.12763762777320273,7.126483115904513e-05,0.025647230237824777,0.00022156935142775093,0.02563303922017747
1.0055085969402537,0.16155770115500132,0.0038753667777823636,0.038076850744054896,0.006284808535167224,0.03790356315069634
1.0055556789653841,0.18078890709766565,0.008146882269475084,0.05135766337998839,0.015625043882465002,0.050946245166109384
1.0056027609905145,0.18307418566708303,0.010908935719771517,0.06056084021799014,0.025923186823743966,0.059897205606632246
1.0056498430156449,0.1741533504439713,0.01296379610598706,0.06655908741414072,0.03277865703594443,0.06573402913926361
1.0056969250407752,0.16242605985016223,0.014472613140433103,0.07063087442771013,0.03745389512545569,0.06969920754624123
1.0057440070659056,0.15418810481596457,0.015295483490781622,0.07107575192890922,0.03811803106211037,0.07012910929974676
1.005791089091036,0.1523552110015489,0.015134739996141785,0.0660360559428213,0.035942156298334305,0.06513690154540203
1.0058381711161664,0.15691036178882456,0.015417070039076516,0.06130313889977103,0.03303100886811077,0.0604702034032473
1.0058852531412967,0.16538784679386007,0.01885076669439107,0.06307528196508604,0.030091679284851427,0.06231250298862917
1.005932335166427,0.17322460684996496,0.01898497815127034,0.06323184659303546,0.024769998707355297,0.06259625072300733
1.0059794171915575,0.17475929729964576,0.01714873275090537,0.05880087400333982,0.0182337918270445,0.058324151170110645
1.0060264992166879,0.16548577922015562,0.015297677826016863,0.05204155960234529,0.011664289989733505,0.05172881605574688
1.0060735812418182,0.1445721481217929,0.012310895965520659,0.04234591607178599,0.005430607538884703,0.04219310762987104
1.0061206632669486,0.11538472372115638,0.009929075012987287,0.03266210113426135,-0.0002888571959963999,0.03265871418825572
1.006167745292079,0.08342022676517998,0.0067920448736043275,0.0259645785337829,-0.0042394582191498525,0.026065236609961198
1.0062148273172093,0.053714935068683495,0.005255668804751875,0.01794830890199036,-0.0065488996692783935,0.018111252578966622
1.0062619093423397,0.029620632829972474,0.0033695307536293468,0.006428025048282717,-0.007842546917664724,0.006627970815113654
1.00630899136747,0.012907514843990737,0.0027824818523549226,-0.004503164505502606,-0.00558550644268473,-0.004357960869580055
1.0063560733926005,0.004292560353454192,0.002560894636718663,-0.010519166817943732,-0.0016191972815680637,-0.010474020097684165
1.0064031554177308,0.0038095921685766332,0.004210378166815355,-0.007972360122875525,0.002673350531884621,-0.008038558561968695
1.0064502374428612,0.010924293923755681,0.009200449698852507,0.0013341291502741227,0.010305762648688582,0.0010684506815422383
1.0064973194679916,0.02453035587728399,0.013637251237950095,0.011333716656649779,0.018621951273860262,0.010852560189565104
1.006544401493122,0.042966387475684646,0.016433082836125084,0.020787738978896356,0.026685295074622525,0.02010149919428971
1.0065914835182523,0.06411092062196938,0.0174097022597576,0.03329944681240632,0.03126532917993079,0.03250076124889249
1.0066385655433827,0.08556714248621351,0.01890123625732239,0.049462130528264495,0.0324184283406845,0.04863976858564377
1.006685647568513,0.10493697207975199,0.02096639527390811,0.06485229624100503,0.03016497990998869,0.06408825770859261
1.0067327295936435,0.12014720761669652,0.022122474538391643,0.07640706666955516,0.025610966097711674,0.07575302748858793
1.0067798116187738,0.12974860817624662,0.021725562727969324,0.08294186479002422,0.020831660971130594,0.08240155902622624
1.0068268936439042,0.1331160769266914,0.022505632762472458,0.08436945777741765,0.014797523103429097,0.08397394465545761
1.0068739756690346,0.13051634907150206,0.021429634190338515,0.08386978816652868,0.009841408166034894,0.08359552877350748
1.006921057694165,0.12301693370584733,0.017516233376567315,0.08185258015702256,0.005285299722481352,0.08169207663081329
1.0069681397192953,0.11219272060745543,0.01192795268278497,0.07585112215539112,0.0008000435989993862,0.07580573712726449
1.0070152217444257,0.09964098937742749,0.007055863663502072,0.06985230351433948,-0.0027063485637346917,0.06989868108851711
1.007062303769556,0.08648287672211809,0.003346975825113745,0.06302251331950957,-0.0055712069750508035,0.0631452479836758
1.0071093857946865,0.07315337862299943,0.0013134872093504362,0.053521194673379444,-0.0072398799219904825,0.05369048074465214
1.0071564678198168,0.05967551136841471,0.0005509050100118687,0.042771215350936226,-0.007495989798003522,0.04295070439036063
1.0072035498449472,0.046352747241279996,-0.0006647847254838078,0.029687677967592516,-0.006981456301533432,0.029858055210553503
1.0072506318700776,0.03458526276589038,-0.0009436301474290985,0.01916866027493343,-0.0058280274396107275,0.01931258158098885
1.007297713895208,0.02727830692374265,-0.0005049824641747258,0.01473006896934623,-0.004881113204861708,0.014850975245598306
1.0073447959203383,0.0280866607277734,0.0015530066253685718,0.01711698325886342,-0.0027976134040226166,0.01718336494364783
1.0073918779454687,0.03925806445151868,0.007527696563187002,0.028584290137595406,0.0006086326722770669,0.028559182287490024
1.007438959970599,0.059562255279517966,0.014565228206794961,0.043832242766228824,0.0036743635618363964,0.04372372506752064
1.0074860419957294,0.08449757331606145,0.020759313020028734,0.058037587268334905,0.005643555633687744,0.057874790877630394
1.0075331240208598,0.10858230355013457,0.025372775333105915,0.06858033205585247,0.008274936865048148,0.06834852124696766
1.0075802060459902,0.12742598805780986,0.02907645788856446,0.07621925524513734,0.010882571500596369,0.07592089885386852
1.0076272880711206,0.13840784538629322,0.03026451533966013,0.07904744927672683,0.012108266998887262,0.07871836185971955
1.007674370096251,0.14057521646913557,0.028635700106643163,0.0769603579802706,0.013684407480860722,0.07659297627958561
1.0077214521213813,0.1345761316442056,0.02645918988118365,0.07084930100861353,0.014233214903393156,0.07046938736659006
