freq,gls,usurper,pdc_unbiased,shape_periodogram,shift_periodogram
1.0,0.02176245538732735,0.010507179021217835,-0.007335655112181927,0.01169078925991453,-0.007458121010623617
1.0000470820251304,0.05134779247241603,0.011966811484545158,0.016081221596065367,0.011521637896388754,0.015960848850803837
1.0000941640502607,0.09689124580742478,0.014510062806008634,0.05094334186944231,0.013451750709073711,0.050804889281680074
1.0001412460753911,0.14848755125694818,0.016557365765993988,0.08456655871201842,0.01920129889585522,0.08437857047225607
1.0001883281005215,0.19664060203551523,0.018871514951949366,0.10917973127593883,0.029461916186605486,0.1089176440307417
1.0002354101256519,0.23592916525893703,0.022161245842631863,0.12678225514793529,0.03926801393015851,0.12647022526906956
1.0002824921507822,0.26363730657080775,0.02680720193087809,0.13936052532630389,0.04695790337579974,0.13902613186153462
1.0003295741759126,0.2780607972143743,0.029442086316292727,0.14663287491158739,0.05104666093251587,0.14629443868939587
1.000376656201043,0.27778293516045677,0.029716615681798876,0.14742341655727248,0.05390399619617641,0.1470787428166465
1.0004237382261734,0.2619162710265795,0.02936382843230423,0.139633635428265,0.05445005963319949,0.13927533991966914
1.0004708202513037,0.23107843684954268,0.027930162985576594,0.12167319492364326,0.05304095100742459,0.12129190420479977
1.0005179022764341,0.1884924826566669,0.025765887159477658,0.09811663264576473,0.05080608499113793,0.09771212763767588
1.0005649843015645,0.1401213853463462,0.024940387610756704,0.07552593926328457,0.048946456578394804,0.07510335955568254
1.0006120663266949,0.09311329616242185,0.02552564130916392,0.056936636782797936,0.046936314462482615,0.056506687672555414
1.0006591483518252,0.05338098213176131,0.027691940593630414,0.04656239048066332,0.04390795956157025,0.046146146920473585
1.0007062303769556,0.024158292773911582,0.02945234561523574,0.0379052596807291,0.03868004838705137,0.03752722704930189
1.000753312402086,0.006389706849983347,0.03141155828776091,0.024925530867037873,0.032239643273548245,0.024599802402121954
1.0008003944272164,4.4957735270936574e-05,0.03234820388146915,0.013623927240606612,0.027115440987103296,0.013344345371122812
1.0008474764523467,0.004476680458159687,0.03222736086590474,0.005279248516488982,0.025600990420627558,0.005012645925311669
1.000894558477477,0.016631009383087918,0.036098498142587546,0.00604487589630294,0.02721973327779173,0.005761784065416287
1.0009416405026075,0.030279800796216314,0.041239129317576055,0.01614856324889533,0.032032594157434785,0.015820637120427583
1.0009887225277379,0.04019506929021177,0.04644989502917094,0.031662352407458065,0.03922556607659175,0.031274698853094675
1.0010358045528682,0.045271217739530065,0.04990339746017176,0.049643587368788454,0.04868050816511049,0.04919137651218935
1.0010828865779986,0.04665854735345898,0.054694657875343396,0.06394396252727896,0.056947628188518,0.06345057422294435
1.001129968603129,0.04557434040645729,0.05645065556627363,0.06951556918541625,0.06375080018474849,0.06898894914097041
1.0011770506282593,0.04281463251624272,0.05573824519493876,0.06676401531502141,0.06701486710487196,0.06621175679216733
1.0012241326533897,0.03911406922799136,0.05450640331412138,0.05756222886158259,0.06604896025701652,0.0569951926425428
1.00127121467852,0.035734840091298535,0.051105707985484604,0.04469056838221148,0.061941030004425364,0.04412626449322153
1.0013182967036505,0.034632288517627896,0.04829816905395724,0.03354469161607427,0.058355245091444186,0.03298921707550602
1.0013653787287808,0.03686446430802818,0.045840913536950335,0.03235087082016887,0.05683492990739806,0.03180648319555996
1.0014124607539112,0.040499198873267514,0.04395065451830413,0.04235422606047071,0.05766476635121149,0.04181939603940905
1.0014595427790416,0.04245011553894062,0.04477065893509335,0.05148956578485458,0.061060073955029666,0.05094495448257405
1.001506624804172,0.04142424671447975,0.04675284150264339,0.057489670337512934,0.06290698588881188,0.05694372332961625
1.0015537068293023,0.03772147907862947,0.04881660639383406,0.05838903434484734,0.061233345435244536,0.05785635917905086
1.0016007888544327,0.032149333674356434,0.047763704217963644,0.05286952532393206,0.055845199077096855,0.052366021267123544
1.001647870879563,0.025799799790141527,0.04293719738772148,0.040386054375886556,0.04740597062927571,0.03993366905466894
1.0016949529046935,0.020580986012262138,0.03693267623383086,0.02276083148008517,0.037246283101989776,0.022385549338070923
1.0017420349298238,0.01993155776046648,0.03377931678594483,0.008396000375120035,0.030189889709527178,0.008083257699835008
1.0017891169549542,0.027489951613850306,0.03246956101563561,0.00883020356959996,0.030172247158080055,0.00851781874161593
1.0018361989800846,0.042074300128446054,0.032215105000725316,0.022145335055818467,0.03307064764475153,0.02181014500713994
1.001883281005215,0.05845891480384451,0.03611086256893116,0.04104344236602053,0.039183524154636024,0.040663263774008404
1.0019303630303453,0.07582159493280267,0.03752544827164339,0.05832937685591873,0.047003255762564984,0.05790047534824576
1.0019774450554757,0.09824195100672209,0.035577542847296285,0.07041397317164165,0.05595705936876959,0.06993778920480168
1.002024527080606,0.1303669711588208,0.030767714217873016,0.07896421651578898,0.05980952041853371,0.07847931809644886
1.0020716091057364,0.17464242099810953,0.027129901829012284,0.08832693698111686,0.06198761621534193,0.08784847056436255
1.0021186911308668,0.22917237164395338,0.02615320069668894,0.11355266104308831,0.06396976840564962,0.11311850822301366
1.0021657731559972,0.2864808872447173,0.027384246253542986,0.14880372324738836,0.06634994798783797,0.14844402120658098
1.0022128551811276,0.335488571803669,0.028680012100937832,0.17945522269565434,0.06866941496805026,0.1791706552668176
1.002259937206258,0.3667004160945303,0.02887244548564541,0.20044309409803335,0.0697579009848678,0.20021405075477458
1.0023070192313883,0.37630521047742305,0.02790202493812444,0.20989430295355302,0.0691168133206652,0.2096864613956073
1.0023541012565187,0.3658732131217113,0.02631177650115342,0.20800353236518512,0.06716610445665909,0.20778360516857958
1.002401183281649,0.3393357840705059,0.0239955585301697,0.19716291122807472,0.06516137551804282,0.1969120450964852
1.0024482653067794,0.30043566038503033,0.021667727783737812,0.1783931936762516,0.060685096157157815,0.17809636808872975
1.0024953473319098,0.25183659939415354,0.02077242065088605,0.15384153094853617,0.051320127342651185,0.15351255610254055
1.0025424293570402,0.1956066522565673,0.019190060930455048,0.12081929242955049,0.03894629562001224,0.12050408027710534
1.0025895113821706,0.13475970805500284,0.01874405524830625,0.07564140824241966,0.022239252281908255,0.0754250456962092
1.002636593407301,0.07582916802294695,0.018963241295757743,0.025728531183742454,0.007328672861829661,0.025651177399570468
1.0026836754324313,0.03145358980808763,0.01448999866753379,-0.0040036080406334615,0.005824214637275684,-0.004064418535483547
1.0027307574575617,0.01779891286180085,0.011178283623636685,-0.006351274616742859,0.019692404396662023,-0.006558306966595384
1.002777839482692,0.04358985242398123,0.015900980639425646,0.006591376950054447,0.035595393607608626,0.006222403012537095
1.0028249215078224,0.1037077589167159,0.027127079135844872,0.04281328660270074,0.049552607778084505,0.042345611697197964
1.0028720035329528,0.18101238562213362,0.038968920454888506,0.0979436666785688,0.05403318533680773,0.09752197013376744
1.0029190855580832,0.25636899888384335,0.04552200353952121,0.15380629462607742,0.05523365231105403,0.15346902365440407
1.0029661675832136,0.31832235074100634,0.04597240503269252,0.19704252226634572,0.05784643379878274,0.19677825794952605
1.003013249608344,0.36361141655314383,0.04812648485254332,0.228525784613192,0.0580370584304228,0.22831811728381962
1.0030603316334743,0.39341420767750745,0.04849155045501408,0.24979870354304085,0.055822291913366164,0.24962031578569352
1.0031074136586047,0.4102870696014962,0.04769905555794887,0.26258314989231946,0.05432764988781048,0.2624196951901207
1.003154495683735,0.41662904201390033,0.04620445250693094,0.266777273312063,0.052027506415804774,0.26661157211278713
1.0032015777088654,0.41405085665469693,0.04421486735015547,0.26326150551395927,0.048973847688217984,0.2630816024920648
1.0032486597339958,0.4030953535584088,0.04167319301209712,0.251751202986526,0.0451582332215295,0.2515501548843063
1.0032957417591262,0.38301151602067063,0.03853899588538644,0.2324239377319079,0.04062165828027953,0.2322019659902117
1.0033428237842565,0.3514583105172215,0.03476522525846927,0.2047530276495091,0.03531921643752751,0.20451782481266456
1.003389905809387,0.3042863356687068,0.03012255176878052,0.16911475512504195,0.029536847142483027,0.16888131953589616
1.0034369878345173,0.2364892670841809,0.024957123867025872,0.12615890065588273,0.023416852098115615,0.1259467992965593
1.0034840698596477,0.14805992805189566,0.019976876962486463,0.07745804013496241,0.017089913145516212,0.07728776486335645
1.003531151884778,0.05937981673678241,0.01730674535454374,0.035632586371168055,0.012143929739894877,0.03550638176488885
1.0035782339099084,0.016571701488668728,0.01918349251206043,0.012038086514572617,0.010663353637422476,0.011926515278821267
1.0036253159350388,0.04141534161646615,0.026374472905879607,0.014399178728297872,0.016450957827558132,0.014228174993808188
1.0036723979601692,0.0978579156313711,0.03700463540658298,0.03595348541122598,0.02974743944662534,0.035656508465212504
1.0037194799852995,0.14599333246590304,0.05147206018015256,0.06503465797160808,0.04262653742990785,0.06464625755211238
1.00376656201043,0.17300879075255565,0.06342307829842601,0.0922030709843016,0.052138297924456734,0.0917830188254467
1.0038136440355603,0.18229222765708752,0.06984946176429693,0.11374971918924169,0.05714701628669915,0.1133397679437698
1.0038607260606907,0.18262972424027749,0.07037127891552002,0.12736778710133306,0.059257655315668574,0.12697517163911823
1.003907808085821,0.18292620727983336,0.07238969476079801,0.13485525602086357,0.05816687366121304,0.1344792085449324
1.0039548901109514,0.18798821740501145,0.07386034918098798,0.13913083302593265,0.05798016555274776,0.13876288973204692
1.0040019721360818,0.19658928748535154,0.0710831071590078,0.1397247738744464,0.05714894763824877,0.13935979379621305
1.0040490541612122,0.20361099360789395,0.06611737031892602,0.1356935801867525,0.05892720727036212,0.13531721819707618
1.0040961361863425,0.20356945018764083,0.059508526116001915,0.1287855413388881,0.05778596783788514,0.1283996978527141
1.004143218211473,0.19261735903368254,0.054233454709041715,0.11776025800915435,0.056109033620791,0.11736105818152838
1.0041903002366033,0.1692114287165738,0.0472909617446694,0.09836742477706704,0.05220311894296067,0.09795582794512217
1.0042373822617336,0.13469585530973552,0.0395055177234752,0.07519967777083232,0.045346759639421946,0.07480144743505462
1.004284464286864,0.094068350002802,0.031256420905490766,0.051842634052145065,0.037376895700643516,0.05148602102179501
1.0043315463119944,0.0558705414627791,0.02330004245382454,0.03082107495389939,0.028481675846839017,0.03053406515358427
1.0043786283371248,0.029785725493520713,0.0184308297927342,0.019809015244991575,0.020244832522456367,0.01960016560113154
1.0044257103622551,0.022326134922130727,0.016149983591167524,0.01684685304795892,0.014175663771119671,0.016699293064442577
1.0044727923873855,0.03362727707623793,0.015979376641283728,0.01768087969631584,0.011450654469494044,0.017561263596504575
1.004519874412516,0.057935866130881315,0.017879232978191075,0.0238553638180855,0.011850255852884354,0.023731791211650463
1.0045669564376463,0.08691312585069338,0.021221265000142958,0.038233159934289905,0.016652162415910082,0.03806241969992703
1.0046140384627766,0.11302745450084833,0.024871302271878382,0.05542672474865837,0.02602641840922618,0.05517115803528964
1.004661120487907,0.13143773576861661,0.028261705039297657,0.07126698378066398,0.03753884460838759,0.0709228889071236
1.0047082025130374,0.140315951549541,0.03264225039093098,0.0817840112464661,0.04853339924292542,0.08137187382632523
1.0047552845381678,0.14016084842095028,0.03275506739549039,0.0846685751900148,0.05722253991479626,0.08420840617766563
1.0048023665632981,0.13271042804166153,0.03092975698864846,0.08028160564993014,0.06383676631072407,0.07977713366914904
1.0048494485884285,0.1199532079956697,0.026581975277955798,0.06958311394397716,0.06747377177738408,0.06903471968080953
1.0048965306135589,0.10352759540252561,0.02449422978849671,0.05738407400153901,0.06821363583913556,0.056802307113911515
1.0049436126386893,0.08458770500586026,0.022958015381075995,0.04469505929439128,0.06491175586404724,0.04410802798350513
1.0049906946638196,0.06411017510052013,0.020332465726473688,0.03435472552873721,0.05969220858144428,0.03378931342606538
1.00503777668895,0.043500849939608656,0.017108221392815124,0.022887706523455283,0.053738462552332174,0.02235668941844325
1.0050848587140804,0.02497562650004661,0.013215244906260986,0.013888116903115118,0.047539508960219364,0.013405050094803759
1.0051319407392107,0.011013597455985432,0.008444271229557588,0.011624969459267675,0.04221618354743948,0.011192516748657141
1.0051790227643411,0.003334338693202587,0.005799418883808066,0.009001101837417943,0.03478211174474333,0.008641813639908022
1.0052261047894715,0.0027948227754708652,0.0044670674779500605,0.005716764128480125,0.02309468691596591,0.005476189552296979
1.0052731868146019,0.010164673003053454,0.0062693125917519755,0.005314070387151807,0.012254128142859694,0.00518590934355025
1.0053202688397322,0.026566180290056158,0.008890735583093853,0.008193549268036414,0.005899102900784534,0.008131501868635075
1.0053673508648626,0.05291846997433676,0.010789132347311808,0.011498759854167706,0.0029292865162787816,0.011467524281321315
1.005414432889993,0.08828034555015178,0.010176836519204067,0.017065936640710815,0.0013331134175753221,0.01705106948957504
1.0054615149151234,0.12763762777320273,0.010457400263109729,0.025647230237824777,0.0015430282262394307,0.025629721631875615
1.0055085969402537,0.16155770115500132,0.012374716778370268,0.038076850744054896,0.005802053854424875,0.03801480821287158
1.0055556789653841,0.18078890709766565,0.014830069914663005,0.05135766337998839,0.013202754537695713,0.051221661078509166
1.0056027609905145,0.18307418566708303,0.015440122985280766,0.06056084021799014,0.021427465630036526,0.060348285631261434
1.0056498430156449,0.1741533504439713,0.01724993705687238,0.06655908741414072,0.02977041643765042,0.0662751540816972
1.0056969250407752,0.16242605985016223,0.018149344080681775,0.07063087442771013,0.03684115271721399,0.0702917554272978
1.0057440070659056,0.15418810481596457,0.01615997290579727,0.07107575192890922,0.0417576745202374,0.07069944403255289
1.005791089091036,0.1523552110015489,0.012432676629930972,0.0660360559428213,0.043808068837819764,0.06563963315132369
1.0058381711161664,0.15691036178882456,0.01076580491362095,0.06130313889977103,0.043502876878230685,0.060904436149776094
1.0058852531412967,0.16538784679386007,0.010445487916240531,0.06307528196508604,0.04039136521697386,0.06270253365997466
1.005932335166427,0.17322460684996496,0.010852685754345415,0.06323184659303546,0.0361392955958561,0.06289329920584882
1.0059794171915575,0.17475929729964576,0.00872258966520897,0.05880087400333982,0.03105883174327067,0.05850237213533049
1.0060264992166879,0.16548577922015562,0.00630062373109494,0.05204155960234529,0.02709168492239281,0.0517752442096258
1.0060735812418182,0.1445721481217929,0.004470883893829236,0.04234591607178599,0.02317844698091824,0.04211293275877212
1.0061206632669486,0.11538472372115638,0.0030187632214501076,0.03266210113426135,0.020716494552514564,0.03245077460429518
1.006167745292079,0.08342022676517998,0.0035465148618466086,0.0259645785337829,0.019256767946695962,0.025766572389562852
1.0062148273172093,0.053714935068683495,0.006021933251015451,0.01794830890199036,0.01853211948240478,0.01775649044954252
1.0062619093423397,0.029620632829972474,0.009764926748355251,0.006428025048282717,0.020977158092255227,0.006209483351085005
1.00630899136747,0.012907514843990737,0.012900270125020569,-0.004503164505502606,0.0215440114506823,-0.0047295106266329115
1.0063560733926005,0.004292560353454192,0.01703404953604461,-0.010519166817943732,0.021841334406776703,-0.010749730332450129
1.0064031554177308,0.0038095921685766332,0.020399631380377228,-0.007972360122875525,0.023402169095031452,-0.008219101896930318
1.0064502374428612,0.010924293923755681,0.024462994181601038,0.0013341291502741227,0.02487584017520963,0.0010740122370813511
1.0064973194679916,0.02453035587728399,0.030404803956276857,0.011333716656649779,0.027582636387653008,0.011048644348220895
1.006544401493122,0.042966387475684646,0.03524411247686686,0.020787738978896356,0.03003124964320803,0.02048169682915702
1.0065914835182523,0.06411092062196938,0.04014312063898096,0.03329944681240632,0.032554771384290734,0.03297489215458999
1.0066385655433827,0.08556714248621351,0.044814414743047544,0.049462130528264495,0.035040965222803706,0.04912408251022423
1.006685647568513,0.10493697207975199,0.04705361099836648,0.06485229624100503,0.03788477290090039,0.06450081196391362
1.0067327295936435,0.12014720761669652,0.046024830657233146,0.07640706666955516,0.03926880073461675,0.07605377408681123
1.0067798116187738,0.12974860817624662,0.042953230946353366,0.08294186479002422,0.037368965722936985,0.08260752455267519
1.0068268936439042,0.1331160769266914,0.03902027975110734,0.08436945777741765,0.033876037681361576,0.08406195704348741
1.0068739756690346,0.13051634907150206,0.03624162249071263,0.08386978816652868,0.029622716438989154,0.0835948462712264
1.006921057694165,0.12301693370584733,0.03272073613769862,0.08185258015702256,0.02289570844292779,0.08163212938981779
1.0069681397192953,0.11219272060745543,0.027499001094695653,0.07585112215539112,0.016573285643224626,0.07568534434562464
1.0070152217444257,0.09964098937742749,0.021133361756211652,0.06985230351433948,0.01114310858840717,0.06973701985832496
1.007062303769556,0.08648287672211809,0.01616862064112505,0.06302251331950957,0.007407061066521884,0.06294372518850705
1.0071093857946865,0.07315337862299943,0.011233407604544434,0.053521194673379444,0.005252683630584079,0.053464262256129
1.0071564678198168,0.05967551136841471,0.005693118933178289,0.042771215350936226,0.0038837709080826997,0.042728657991864157
1.0072035498449472,0.046352747241279996,0.0024204251822257505,0.029687677967592516,0.004623565670892759,0.02963803833753293
1.0072506318700776,0.03458526276589038,-0.00032069473331241687,0.01916866027493343,0.00600121434384821,0.019105173959075107
1.007297713895208,0.02727830692374265,-0.0009597877085121717,0.01473006896934623,0.007413364758771205,0.014652093790674602
1.0073447959203383,0.0280866607277734,-0.00013052684836057925,0.01711698325886342,0.010361046145686167,0.01700855627943041
1.0073918779454687,0.03925806445151868,0.0025332399943764888,0.028584290137595406,0.015136657524075739,0.028427736591831516
1.007438959970599,0.059562255279517966,0.007502446207523742,0.043832242766228824,0.02049848947357268,0.04362505126221637
1.0074860419957294,0.08449757331606145,0.01239320408553138,0.058037587268334905,0.027971744026806675,0.057765634849011
1.0075331240208598,0.10858230355013457,0.016331124554058014,0.06858033205585247,0.03415209136757871,0.06826126174683986
1.0075802060459902,0.12742598805780986,0.017686539368117798,0.07621925524513734,0.03848499107246092,0.07587165027348279
1.0076272880711206,0.13840784538629322,0.01907709027641619,0.07904744927672683,0.04168506706622796,0.07867885149789937
1.007674370096251,0.14057521646913557,0.018481067992288002,0.0769603579802706,0.043690499492581365,0.07657558158771356
1.0077214521213813,0.1345761316442056,0.01545425775550116,0.07084930100861353,0.043940479151502454,0.07045666118872007
