freq,gls,usurper,pdc_unbiased,shape_periodogram,shift_periodogram
1.0,0.02176245538732735,0.020040969371819168,-0.007335655112181927,-0.0006649676710766886,-0.007291312439737425
1.0000470820251304,0.05134779247241603,0.03416090851270099,0.016081221596065367,0.009050797415921994,0.015591110926570381
1.0000941640502607,0.09689124580742478,0.048817812578063856,0.05094334186944231,0.025906193513440343,0.04955337854615203
1.0001412460753911,0.14848755125694818,0.06430062164222798,0.08456655871201842,0.04209330307652847,0.08236623273098957
1.0001883281005215,0.19664060203551523,0.0767627552793692,0.10917973127593883,0.05667515976992291,0.10631575013576258
1.0002354101256519,0.23592916525893703,0.08412370881522573,0.12678225514793529,0.06666482374057586,0.12350895084490762
1.0002824921507822,0.26363730657080775,0.08659365733508863,0.13936052532630389,0.07137234729965976,0.13592044833961098
1.0003295741759126,0.2780607972143743,0.08783219397795686,0.14663287491158739,0.07400037336542106,0.14310687184726006
1.000376656201043,0.27778293516045677,0.08819058900549426,0.14742341655727248,0.07485247558183436,0.1438658125336927
1.0004237382261734,0.2619162710265795,0.08497662854042312,0.139633635428265,0.07404725691592784,0.1360851921073459
1.0004708202513037,0.23107843684954268,0.07768524858460836,0.12167319492364326,0.07060227330684996,0.11822043186750981
1.0005179022764341,0.1884924826566669,0.0681290465680348,0.09811663264576473,0.06537199520536857,0.09484438813017797
1.0005649843015645,0.1401213853463462,0.06083823880952831,0.07552593926328457,0.06020110535035372,0.07245965325533409
1.0006120663266949,0.09311329616242185,0.056341308603429355,0.056936636782797936,0.05447691712527784,0.054128744080596
1.0006591483518252,0.05338098213176131,0.05617069563618489,0.04656239048066332,0.04748498010552442,0.04409492938071092
1.0007062303769556,0.024158292773911582,0.05596892793716972,0.0379052596807291,0.03896535957500898,0.035865242098593444
1.000753312402086,0.006389706849983347,0.053670175801449865,0.024925530867037873,0.028829873063475574,0.02340817830152945
1.0008003944272164,4.4957735270936574e-05,0.053332504030400574,0.013623927240606612,0.019527061273347773,0.012595755920732494
1.0008474764523467,0.004476680458159687,0.05040787251613745,0.005279248516488982,0.01645586906591261,0.004419512109725523
1.000894558477477,0.016631009383087918,0.05210699496958203,0.00604487589630294,0.018657557535524616,0.005070247400698106
1.0009416405026075,0.030279800796216314,0.060459248321492354,0.01614856324889533,0.02565532003867093,0.014801924212841083
1.0009887225277379,0.04019506929021177,0.07298312808167796,0.031662352407458065,0.0379794234940501,0.029674671771561308
1.0010358045528682,0.045271217739530065,0.08530758133252182,0.049643587368788454,0.052625372576158395,0.046922649841556904
1.0010828865779986,0.04665854735345898,0.09010062923165371,0.06394396252727896,0.06714249079649509,0.06053309195416159
1.001129968603129,0.04557434040645729,0.09100731016437594,0.06951556918541625,0.0782605906169982,0.06559251843216103
1.0011770506282593,0.04281463251624272,0.08549972424294125,0.06676401531502141,0.08413952194564864,0.06256002159480317
1.0012241326533897,0.03911406922799136,0.07638725651117839,0.05756222886158259,0.08616618720969706,0.053235092337347
1.00127121467852,0.035734840091298535,0.06639697603371555,0.04469056838221148,0.08552010021500801,0.04035579504893864
1.0013182967036505,0.034632288517627896,0.05849564557316952,0.03354469161607427,0.08530258750347215,0.029189348271164105
1.0013653787287808,0.03686446430802818,0.060382162957525395,0.03235087082016887,0.0861315304915595,0.02795120066115738
1.0014124607539112,0.040499198873267514,0.06888886286769264,0.04235422606047071,0.08854014347635673,0.037865935480026244
1.0014595427790416,0.04245011553894062,0.07711768765556093,0.05148956578485458,0.0897395832107582,0.04697328227876482
1.001506624804172,0.04142424671447975,0.08159850803214719,0.057489670337512934,0.08632990201573897,0.05315457801509529
1.0015537068293023,0.03772147907862947,0.08104164895379219,0.05838903434484734,0.0791451334541059,0.054396570088710086
1.0016007888544327,0.032149333674356434,0.07751697202422418,0.05286952532393206,0.0670420752943696,0.04944693515987528
1.001647870879563,0.025799799790141527,0.07078838711661853,0.040386054375886556,0.05098888405675444,0.03774302062364987
1.0016949529046935,0.020580986012262138,0.059945212711244165,0.02276083148008517,0.03361755184043391,0.021000219436082122
1.0017420349298238,0.01993155776046648,0.051497645988807544,0.008396000375120035,0.020310126934094407,0.007333204081315197
1.0017891169549542,0.027489951613850306,0.0493361441521302,0.00883020356959996,0.017046285080008997,0.007935694648564588
1.0018361989800846,0.042074300128446054,0.050156091485141795,0.022145335055818467,0.022244712316505752,0.02096812424408514
1.001883281005215,0.05845891480384451,0.05593342425577197,0.04104344236602053,0.033009624307365315,0.0393022408008548
1.0019303630303453,0.07582159493280267,0.06462365497310363,0.05832937685591873,0.04430957797775445,0.056019734375367905
1.0019774450554757,0.09824195100672209,0.07250265974520795,0.07041397317164165,0.05423607298300007,0.06762659326899637
1.002024527080606,0.1303669711588208,0.07215288506819194,0.07896421651578898,0.06166698462673391,0.0758332227737261
1.0020716091057364,0.17464242099810953,0.06695999857386316,0.08832693698111686,0.0666799611243882,0.08497808196069054
1.0021186911308668,0.22917237164395338,0.07088905779527369,0.11355266104308831,0.07155550010844261,0.11003935883051828
1.0021657731559972,0.2864808872447173,0.08066280990936744,0.14880372324738836,0.07720828127234755,0.14515730151602527
1.0022128551811276,0.335488571803669,0.09031509885384413,0.17945522269565434,0.08223285306950981,0.17573379671461892
1.002259937206258,0.3667004160945303,0.0968416094326667,0.20044309409803335,0.08495291117768404,0.19671987108919284
1.0023070192313883,0.37630521047742305,0.09945778274703153,0.20989430295355302,0.08468744171190473,0.20622340946399384
1.0023541012565187,0.3658732131217113,0.0979082678603743,0.20800353236518512,0.08146633079536096,0.20442828579515007
1.002401183281649,0.3393357840705059,0.09264179692913964,0.19716291122807472,0.07503537573168743,0.19376305254816534
1.0024482653067794,0.30043566038503033,0.08480655939177931,0.1783931936762516,0.06511142523549751,0.17530192358459776
1.0024953473319098,0.25183659939415354,0.0747058194104645,0.15384153094853617,0.0513729011245959,0.15126308658270712
1.0025424293570402,0.1956066522565673,0.061031155568431215,0.12081929242955049,0.03613624979172443,0.11890212710652212
1.0025895113821706,0.13475970805500284,0.041667195986247595,0.07564140824241966,0.01952546454733769,0.0745504819208888
1.002636593407301,0.07582916802294695,0.02181989016499553,0.025728531183742454,0.005956538434593598,0.025385840048605963
1.0026836754324313,0.03145358980808763,0.017407181057160936,-0.0040036080406334615,0.0010344992178778854,-0.004051863799927263
1.0027307574575617,0.01779891286180085,0.028372243442570368,-0.006351274616742859,0.009943270885620796,-0.0068586112854269205
1.002777839482692,0.04358985242398123,0.03325735008172841,0.006591376950054447,0.027953991209358146,0.00513513250508885
1.0028249215078224,0.1037077589167159,0.04089412994916875,0.04281328660270074,0.04567870378132231,0.040435562829684725
1.0028720035329528,0.18101238562213362,0.05652551203586101,0.0979436666785688,0.0616945290891451,0.09483759183713616
1.0029190855580832,0.25636899888384335,0.07879916709266584,0.15380629462607742,0.0726059146674142,0.1503568028266423
1.0029661675832136,0.31832235074100634,0.09948707702663592,0.19704252226634572,0.07423458796395886,0.19367035103538188
1.003013249608344,0.36361141655314383,0.10973932013495538,0.228525784613192,0.07528091934897412,0.22523412289309708
1.0030603316334743,0.39341420767750745,0.11590567055106721,0.24979870354304085,0.07604810058333152,0.24656844011533324
1.0031074136586047,0.4102870696014962,0.11785040674101417,0.26258314989231946,0.07488583017907266,0.25943940853305214
1.003154495683735,0.41662904201390033,0.11737767187203074,0.266777273312063,0.07249285865539813,0.2637190353631248
1.0032015777088654,0.41405085665469693,0.11446738483892746,0.26326150551395927,0.06840907596167942,0.2603104862629707
1.0032486597339958,0.4030953535584088,0.1091294359101186,0.251751202986526,0.06249583228542691,0.2489489405260484
1.0032957417591262,0.38301151602067063,0.101286513582925,0.2324239377319079,0.054817991874845075,0.22983721544282623
1.0033428237842565,0.3514583105172215,0.09050045855313762,0.2047530276495091,0.045155692231514825,0.2024895891816926
1.003389905809387,0.3042863356687068,0.07653102853586365,0.16911475512504195,0.033797640603535385,0.1673079175117705
1.0034369878345173,0.2364892670841809,0.06003299372310469,0.12615890065588273,0.021231928247933084,0.124944591447443
1.0034840698596477,0.14805992805189566,0.04175077513393374,0.07745804013496241,0.008696847793250456,0.0769104313814976
1.003531151884778,0.05937981673678241,0.027711301089722633,0.035632586371168055,-0.0005079570425250468,0.03561100708422528
1.0035782339099084,0.016571701488668728,0.023440602683706232,0.012038086514572617,-0.002455960684259616,0.012149249502332695
1.0036253159350388,0.04141534161646615,0.03272863946366367,0.014399178728297872,0.006061396338576108,0.014065873434741923
1.0036723979601692,0.0978579156313711,0.04907994603716682,0.03595348541122598,0.020814132085719743,0.034835498572227855
1.0037194799852995,0.14599333246590304,0.0681236369120037,0.06503465797160808,0.039122899891765844,0.06297941078802435
1.00376656201043,0.17300879075255565,0.08309599107391134,0.0922030709843016,0.05715365531366404,0.08929781754187413
1.0038136440355603,0.18229222765708752,0.0949865676058415,0.11374971918924169,0.07023341925246321,0.11029410790899492
1.0038607260606907,0.18262972424027749,0.10291968012443535,0.12736778710133306,0.08158265187837621,0.12347335449917964
1.003907808085821,0.18292620727983336,0.10591682457917119,0.13485525602086357,0.09174467356584957,0.13058591268725245
1.0039548901109514,0.18798821740501145,0.10724271262414205,0.13913083302593265,0.09677701257506283,0.1346896997442481
1.0040019721360818,0.19658928748535154,0.1065808609580462,0.1397247738744464,0.09797992329294934,0.13524149476836306
1.0040490541612122,0.20361099360789395,0.10612889345896151,0.1356935801867525,0.09530188915364103,0.1312909557837921
1.0040961361863425,0.20356945018764083,0.10185355007772721,0.1287855413388881,0.09093914706861944,0.12452024193618948
1.004143218211473,0.19261735903368254,0.0911723947243317,0.11776025800915435,0.08339261197199226,0.11375736355835162
1.0041903002366033,0.1692114287165738,0.07703165858035146,0.09836742477706704,0.07316652649871855,0.0947469818423148
1.0042373822617336,0.13469585530973552,0.06088651857296486,0.07519967777083232,0.060712878189162475,0.0721088658762008
1.004284464286864,0.094068350002802,0.04608165845884231,0.051842634052145065,0.04588540772544542,0.04945494181437435
1.0043315463119944,0.0558705414627791,0.03375230388081914,0.03082107495389939,0.030228370750493495,0.02922772437343057
1.0043786283371248,0.029785725493520713,0.026458033072055877,0.019809015244991575,0.016496012997728383,0.018930089089148585
1.0044257103622551,0.022326134922130727,0.02418390610018373,0.01684685304795892,0.006475667448734339,0.01648890857779669
1.0044727923873855,0.03362727707623793,0.02615260261564982,0.01768087969631584,0.0023061982876132945,0.017537624835897544
1.004519874412516,0.057935866130881315,0.031674246416173106,0.0238553638180855,0.003661122505453636,0.023633775271489667
1.0045669564376463,0.08691312585069338,0.04102314813742178,0.038233159934289905,0.011089110553397605,0.03761036270783851
1.0046140384627766,0.11302745450084833,0.05262161316378684,0.05542672474865837,0.02395426992810468,0.05413139035866247
1.004661120487907,0.13143773576861661,0.06279068958414298,0.07126698378066398,0.03813271798835517,0.06925908479445683
1.0047082025130374,0.140315951549541,0.07015307462502042,0.0817840112464661,0.051505440332300395,0.07913429159647073
1.0047552845381678,0.14016084842095028,0.0727408149486413,0.0846685751900148,0.062330495341284334,0.0815143145678272
1.0048023665632981,0.13271042804166153,0.07120044133093631,0.08028160564993014,0.06875551616494634,0.0768227808563621
1.0048494485884285,0.1199532079956697,0.06728231517417596,0.06958311394397716,0.07388820065100907,0.06586422893784634
1.0048965306135589,0.10352759540252561,0.06063327706465443,0.05738407400153901,0.07538902954205563,0.053568064662069766
1.0049436126386893,0.08458770500586026,0.05137533748897635,0.04469505929439128,0.07338717597373759,0.04095047630721024
1.0049906946638196,0.06411017510052013,0.0429618496521862,0.03435472552873721,0.06910599260442804,0.030804570685708847
1.00503777668895,0.043500849939608656,0.03487658366047216,0.022887706523455283,0.06236815274056481,0.019663502690690837
1.0050848587140804,0.02497562650004661,0.027756987540701893,0.013888116903115118,0.05327874670223225,0.011123294347881443
1.0051319407392107,0.011013597455985432,0.02397395774011941,0.011624969459267675,0.043497472858586586,0.009363153347309134
1.0051790227643411,0.003334338693202587,0.020937491414200746,0.009001101837417943,0.03338980225508948,0.007261900122162655
1.0052261047894715,0.0027948227754708652,0.016016081584858177,0.005716764128480125,0.0244518563756085,0.004442583272842086
1.0052731868146019,0.010164673003053454,0.01119952601779451,0.005314070387151807,0.015390601301731395,0.004509457451339916
1.0053202688397322,0.026566180290056158,0.008517294825959029,0.008193549268036414,0.0064467665737089975,0.007848448041019692
1.0053673508648626,0.05291846997433676,0.008534228220377565,0.011498759854167706,0.0020106411938960013,0.01137908218624184
1.005414432889993,0.08828034555015178,0.012344613608581538,0.017065936640710815,0.0004776207586622883,0.017018233515937283
1.0054615149151234,0.12763762777320273,0.01669175522485564,0.025647230237824777,0.0014583934871304893,0.025537233479919912
1.0055085969402537,0.16155770115500132,0.02184923107063327,0.038076850744054896,0.007435923936315221,0.03764200589553459
1.0055556789653841,0.18078890709766565,0.02701901870593811,0.05135766337998839,0.017543386409037777,0.05039036509088331
1.0056027609905145,0.18307418566708303,0.030477028422071954,0.06056084021799014,0.02930349864004186,0.05899360691806233
1.0056498430156449,0.1741533504439713,0.032383052324262585,0.06655908741414072,0.037574386648743026,0.06457959528757128
1.0056969250407752,0.16242605985016223,0.03293971836569937,0.07063087442771013,0.043996443471986786,0.06833737592422856
1.0057440070659056,0.15418810481596457,0.032663161488267395,0.07107575192890922,0.04702284137718924,0.06863576268313674
1.005791089091036,0.1523552110015489,0.0310176992192926,0.0660360559428213,0.04687700740711898,0.06360186607794056
1.0058381711161664,0.15691036178882456,0.02979993400860981,0.06130313889977103,0.045922023844736336,0.05891465371174779
1.0058852531412967,0.16538784679386007,0.03150084383385578,0.06307528196508604,0.044976754998928475,0.06073324866708091
1.005932335166427,0.17322460684996496,0.030523526749846645,0.06323184659303546,0.04253026251907897,0.06100958645479181
1.0059794171915575,0.17475929729964576,0.028005359352330794,0.05880087400333982,0.03827784313639629,0.05678868051755715
1.0060264992166879,0.16548577922015562,0.025131047730782313,0.05204155960234529,0.03283599964370739,0.05030287096791685
1.0060735812418182,0.1445721481217929,0.02155338070444423,0.04234591607178599,0.02555408839829024,0.04098083655422517
1.0061206632669486,0.11538472372115638,0.01852771676868843,0.03266210113426135,0.016681691346034994,0.031758996722772735
1.006167745292079,0.08342022676517998,0.014896306398895554,0.0259645785337829,0.008652396130311966,0.025482431572944723
1.0062148273172093,0.053714935068683495,0.013067660589517213,0.01794830890199036,0.002883995197194248,0.017774778123909894
1.0062619093423397,0.029620632829972474,0.01103323546511011,0.006428025048282717,-0.0007483601496935421,0.006458181507727652
1.00630899136747,0.012907514843990737,0.01012294400849186,-0.004503164505502606,-0.0005813274747537469,-0.004466965860917426
1.0063560733926005,0.004292560353454192,0.010442108824940047,-0.010519166817943732,0.0025165124796850302,-0.010635515054800669
1.0064031554177308,0.0038095921685766332,0.01368182035098302,-0.007972360122875525,0.007571167609784538,-0.008354413944774647
1.0064502374428612,0.010924293923755681,0.021910354626492864,0.0013341291502741227,0.018543587742072487,0.0003708843040658025
1.0064973194679916,0.02453035587728399,0.02970654683738385,0.011333716656649779,0.03059653171423027,0.009736814995945945
1.006544401493122,0.042966387475684646,0.03621750798526939,0.020787738978896356,0.042323009605531044,0.018583189757363745
1.0065914835182523,0.06411092062196938,0.040592582508916855,0.03329944681240632,0.04967227095542032,0.030720950783853538
1.0066385655433827,0.08556714248621351,0.04512017859301569,0.049462130528264495,0.052620232995043655,0.046741367421901575
1.006685647568513,0.10493697207975199,0.049335247429063464,0.06485229624100503,0.05249921959681286,0.06214502866147064
1.0067327295936435,0.12014720761669652,0.05178711400360419,0.07640706666955516,0.050379800312044684,0.07380784297808123
1.0067798116187738,0.12974860817624662,0.05200756630838986,0.08294186479002422,0.0463504535023896,0.0805376995787324
1.0068268936439042,0.1331160769266914,0.05245926577950874,0.08436945777741765,0.04050266424538935,0.08224545251249944
1.0068739756690346,0.13051634907150206,0.04921892361190774,0.08386978816652868,0.03373405193884533,0.08207298882219326
1.006921057694165,0.12301693370584733,0.04241126963358496,0.08185258015702256,0.02778450699388205,0.08034752158503794
1.0069681397192953,0.11219272060745543,0.034029618809358717,0.07585112215539112,0.02150741680771234,0.07466109803690191
1.0070152217444257,0.09964098937742749,0.02666093904835759,0.06985230351433948,0.01537230184624206,0.06897557395511157
1.007062303769556,0.08648287672211809,0.020610825532475466,0.06302251331950957,0.01019024308553153,0.062416029314238244
1.0071093857946865,0.07315337862299943,0.016889452668646523,0.053521194673379444,0.005824205020022106,0.053149594153756405
1.0071564678198168,0.05967551136841471,0.014372010529998386,0.042771215350936226,0.002206269374947711,0.04259980149131962
1.0072035498449472,0.046352747241279996,0.010323749021021615,0.029687677967592516,-0.0008198759915592198,0.029690242976614593
1.0072506318700776,0.03458526276589038,0.008060906504670708,0.01916866027493343,-0.0017267053255291113,0.019232395738777167
1.007297713895208,0.02727830692374265,0.007433750553948939,0.01473006896934623,-0.0017128268158777605,0.014799063921704226
1.0073447959203383,0.0280866607277734,0.01009314831327161,0.01711698325886342,4.155984001290321e-05,0.017091810237112405
1.0073918779454687,0.03925806445151868,0.01779693773444524,0.028584290137595406,0.005136898072230647,0.02828020870837804
1.007438959970599,0.059562255279517966,0.027362684798007,0.043832242766228824,0.011581707304086263,0.043177454606587555
1.0074860419957294,0.08449757331606145,0.0359714502655705,0.058037587268334905,0.01813464347090856,0.05703347359313102
1.0075331240208598,0.10858230355013457,0.04221237499024028,0.06858033205585247,0.02520907911822628,0.06721165592821858
1.0075802060459902,0.12742598805780986,0.04680049839281849,0.07621925524513734,0.02996774265103135,0.07460998099979013
1.0076272880711206,0.13840784538629322,0.04795865041743003,0.07904744927672683,0.03271328287836918,0.07730216483864427
1.007674370096251,0.14057521646913557,0.04608982256231463,0.0769603579802706,0.03484911865808725,0.07511144427537408
1.0077214521213813,0.1345761316442056,0.04305769128291389,0.07084930100861353,0.03463178567975634,0.06901309053040189
1.0077685341465117,0.12269802495893224,0.03794089180883698,0.062425783036096825,0.031917115595629805,0.060727392427595964
