freq,gls,usurper,pdc_unbiased,shape_periodogram,shift_periodogram
1.0,0.02176245538732735,0.013465173626496742,-0.007335655112181927,-0.004473715559046674,-0.007254656903775077
1.0000470820251304,0.05134779247241603,0.021244612072910802,0.016081221596065367,-0.0017756517775808498,0.01611038561573501
1.0000941640502607,0.09689124580742478,0.028405208059244083,0.05094334186944231,0.00837880309620866,0.05078793709817252
1.0001412460753911,0.14848755125694818,0.036382745267872184,0.08456655871201842,0.017978823676764823,0.08424898214216493
1.0001883281005215,0.19664060203551523,0.04366882365061107,0.10917973127593883,0.027966713355993243,0.10871387883536289
1.0002354101256519,0.23592916525893703,0.04831450819401349,0.12678225514793529,0.03517631965629893,0.12622594045586566
1.0002824921507822,0.26363730657080775,0.04903738562225488,0.13936052532630389,0.03820557645648736,0.13877537257063477
1.0003295741759126,0.2780607972143743,0.050092329743735946,0.14663287491158739,0.03992817989361798,0.1460335474932692
1.000376656201043,0.27778293516045677,0.05096870192992069,0.14742341655727248,0.04070527972721884,0.14681587042079228
1.0004237382261734,0.2619162710265795,0.04905314514153792,0.139633635428265,0.04089595507014182,0.1390165334312172
1.0004708202513037,0.23107843684954268,0.04472039039369181,0.12167319492364326,0.03965167997945678,0.12105522016747453
1.0005179022764341,0.1884924826566669,0.03914299737035007,0.09811663264576473,0.03717358120793648,0.09751341435938408
1.0005649843015645,0.1401213853463462,0.0346470438762042,0.07552593926328457,0.03467009679120208,0.07494475116234353
1.0006120663266949,0.09311329616242185,0.030817549091047846,0.056936636782797936,0.031098042134931357,0.056401992013466996
1.0006591483518252,0.05338098213176131,0.029569009811153638,0.04656239048066332,0.02629708424869509,0.04610269544011098
1.0007062303769556,0.024158292773911582,0.027922831485071825,0.0379052596807291,0.020403921044104257,0.03754336025054356
1.000753312402086,0.006389706849983347,0.025000630386717397,0.024925530867037873,0.0131550456630554,0.024688940838859585
1.0008003944272164,4.4957735270936574e-05,0.023486960177059413,0.013623927240606612,0.0057786549999528205,0.01351879333217034
1.0008474764523467,0.004476680458159687,0.01987865829450084,0.005279248516488982,0.0027260512563512824,0.0052297365991226755
1.000894558477477,0.016631009383087918,0.020344407860429205,0.00604487589630294,0.002506406432758618,0.005999164854300563
1.0009416405026075,0.030279800796216314,0.026862762987280884,0.01614856324889533,0.0046250938920710475,0.016063580840069237
1.0009887225277379,0.04019506929021177,0.036036648858008405,0.031662352407458065,0.012465321925384062,0.03143743023534858
1.0010358045528682,0.045271217739530065,0.044243595493926764,0.049643587368788454,0.02178790121846355,0.0492596152506542
1.0010828865779986,0.04665854735345898,0.046558152101732656,0.06394396252727896,0.03163612961566156,0.0634037764353453
1.001129968603129,0.04557434040645729,0.04824779228738764,0.06951556918541625,0.03934084589434764,0.06885993933063388
1.0011770506282593,0.04281463251624272,0.0458867914335229,0.06676401531502141,0.043648506191139684,0.06604159885320382
1.0012241326533897,0.03911406922799136,0.04027477493355729,0.05756222886158259,0.04550241664852936,0.05680296155098028
1.00127121467852,0.035734840091298535,0.034615565055622924,0.04469056838221148,0.045811286239197224,0.043913618270158994
1.0013182967036505,0.034632288517627896,0.030472158784630672,0.03354469161607427,0.046568026052180786,0.032744428689465255
1.0013653787287808,0.03686446430802818,0.032062396883029774,0.03235087082016887,0.047717564690751696,0.03153059517347708
1.0014124607539112,0.040499198873267514,0.036617500055544865,0.04235422606047071,0.049477123825247916,0.04151683585284428
1.0014595427790416,0.04245011553894062,0.040228258184933946,0.05148956578485458,0.050119100505356826,0.05065316497189244
1.001506624804172,0.04142424671447975,0.041164671376724804,0.057489670337512934,0.047061733664742075,0.05670667167601406
1.0015537068293023,0.03772147907862947,0.040013933085793055,0.05838903434484734,0.042123334897166693,0.05768218962651955
1.0016007888544327,0.032149333674356434,0.037987976068968775,0.05286952532393206,0.034134515761861356,0.052284333231757095
1.001647870879563,0.025799799790141527,0.035002814480161064,0.040386054375886556,0.023418101251545934,0.03997329806647192
1.0016949529046935,0.020580986012262138,0.028351995710318902,0.02276083148008517,0.012493442174609414,0.02253598109361157
1.0017420349298238,0.01993155776046648,0.023839768518334397,0.008396000375120035,0.004101695619722228,0.008321476554619015
1.0017891169549542,0.027489951613850306,0.02238069095450866,0.00883020356959996,0.0016464935868836321,0.008799401620605487
1.0018361989800846,0.042074300128446054,0.021217430196461547,0.022145335055818467,0.005512055590434238,0.02204375752111097
1.001883281005215,0.05845891480384451,0.023199135029082055,0.04104344236602053,0.012751978877545991,0.04081302201249432
1.0019303630303453,0.07582159493280267,0.03038690168205224,0.05832937685591873,0.020353302817128115,0.05797037394142262
1.0019774450554757,0.09824195100672209,0.03899651374242542,0.07041397317164165,0.02768106960508435,0.06993868707016462
1.002024527080606,0.1303669711588208,0.041153093695961394,0.07896421651578898,0.03508890241382308,0.07837873458219732
1.0020716091057364,0.17464242099810953,0.03829788723515597,0.08832693698111686,0.04039681299922064,0.08767078291462169
1.0021186911308668,0.22917237164395338,0.04057348295835033,0.11355266104308831,0.04434855810628707,0.11286744884010758
1.0021657731559972,0.2864808872447173,0.045692761182330295,0.14880372324738836,0.047468113279621284,0.14812381812524408
1.0022128551811276,0.335488571803669,0.05050190356225448,0.17945522269565434,0.04943787762730203,0.1787982433371289
1.002259937206258,0.3667004160945303,0.053695872920128944,0.20044309409803335,0.04995487518265871,0.19981265818125848
1.0023070192313883,0.37630521047742305,0.0548418648721654,0.20989430295355302,0.04902262877295992,0.2092842898086944
1.0023541012565187,0.3658732131217113,0.053853712129002355,0.20800353236518512,0.04677884539000588,0.20740696897303115
1.002401183281649,0.3393357840705059,0.05147069675668129,0.19716291122807472,0.04298946623690467,0.19658371064547045
1.0024482653067794,0.30043566038503033,0.04776963073178624,0.1783931936762516,0.036771369532666784,0.1778563173052404
1.0024953473319098,0.25183659939415354,0.0421665007654778,0.15384153094853617,0.02679116335849198,0.15340964330732695
1.0025424293570402,0.1956066522565673,0.033656221145295755,0.12081929242955049,0.015813149854344736,0.12053885255304476
1.0025895113821706,0.13475970805500284,0.023636831756092297,0.07564140824241966,0.005090258347823246,0.07554024207895492
1.002636593407301,0.07582916802294695,0.01394098900142003,0.025728531183742454,-0.0021712886474572774,0.025763233955892688
1.0026836754324313,0.03145358980808763,0.016034601460464166,-0.0040036080406334615,-0.00299823260089516,-0.003949435633713974
1.0027307574575617,0.01779891286180085,0.026916483743818706,-0.006351274616742859,0.007284530579885198,-0.0064805375569443584
1.002777839482692,0.04358985242398123,0.027924032523289184,0.006591376950054447,0.02383261008033404,0.00616641816809488
1.0028249215078224,0.1037077589167159,0.03033814837143406,0.04281328660270074,0.03756366239094159,0.042167049860343454
1.0028720035329528,0.18101238562213362,0.03562758034794946,0.0979436666785688,0.05025408847004068,0.09716496107660585
1.0029190855580832,0.25636899888384335,0.046466931884818034,0.15380629462607742,0.05392257550242764,0.15307045539385267
1.0029661675832136,0.31832235074100634,0.060480423348293434,0.19704252226634572,0.04727123383447006,0.1964275888331464
1.003013249608344,0.36361141655314383,0.06523514770676736,0.228525784613192,0.04352032390315629,0.22797857247476133
1.0030603316334743,0.39341420767750745,0.0673791208325358,0.24979870354304085,0.04116445191365288,0.24929180718222196
1.0031074136586047,0.4102870696014962,0.06695556995736318,0.26258314989231946,0.03758176774792015,0.2621133838922857
1.003154495683735,0.41662904201390033,0.06525212234715352,0.266777273312063,0.033879566299073835,0.26633795981026226
1.0032015777088654,0.41405085665469693,0.06237055748780313,0.26326150551395927,0.029418578582305677,0.2628564321559355
1.0032486597339958,0.4030953535584088,0.058317993280189155,0.251751202986526,0.024100030015352082,0.25139172323134873
1.0032957417591262,0.38301151602067063,0.05313621304921267,0.2324239377319079,0.018211857590489912,0.2321259549228692
1.0033428237842565,0.3514583105172215,0.046648161618449854,0.2047530276495091,0.011584876827473077,0.20454082133166548
1.003389905809387,0.3042863356687068,0.03842936190324231,0.16911475512504195,0.004266502941191402,0.16901707977536778
1.0034369878345173,0.2364892670841809,0.02909616646108948,0.12615890065588273,-0.0028247408283748414,0.12618884453320145
1.0034840698596477,0.14805992805189566,0.019277954812776544,0.07745804013496241,-0.009036977279472534,0.07760886793861443
1.003531151884778,0.05937981673678241,0.012411777415726985,0.035632586371168055,-0.012524857095152784,0.03585300135528896
1.0035782339099084,0.016571701488668728,0.01107373845461441,0.012038086514572617,-0.01150735502871539,0.012242469347851028
1.0036253159350388,0.04141534161646615,0.01651997754855543,0.014399178728297872,-0.004104424049500429,0.014470292003016626
1.0036723979601692,0.0978579156313711,0.025770623630280435,0.03595348541122598,0.005944094446714201,0.035842424657695895
1.0037194799852995,0.14599333246590304,0.03568744683140188,0.06503465797160808,0.017192902601736053,0.06472870086196439
1.00376656201043,0.17300879075255565,0.041934678960464364,0.0922030709843016,0.027690954188290564,0.09173502688230901
1.0038136440355603,0.18229222765708752,0.047702893821660666,0.11374971918924169,0.034609720816499566,0.11319246512897127
1.0038607260606907,0.18262972424027749,0.051151480000555076,0.12736778710133306,0.041318334023328795,0.12673406292782322
1.003907808085821,0.18292620727983336,0.05043312128028491,0.13485525602086357,0.04816037339858247,0.13414999666735306
1.0039548901109514,0.18798821740501145,0.0503977509820833,0.13913083302593265,0.04981945412835021,0.13841335508027716
1.0040019721360818,0.19658928748535154,0.05147186729769387,0.1397247738744464,0.04871166622545154,0.13901990190244745
1.0040490541612122,0.20361099360789395,0.0521883370759779,0.1356935801867525,0.045280056053818435,0.1350216304707831
1.0040961361863425,0.20356945018764083,0.05041251361758817,0.1287855413388881,0.04182495799644243,0.12814697713279352
1.004143218211473,0.19261735903368254,0.04475157235846423,0.11776025800915435,0.03701560317058816,0.11717340515418921
1.0041903002366033,0.1692114287165738,0.037298748252398595,0.09836742477706704,0.03143390290685466,0.09784640059652415
1.0042373822617336,0.13469585530973552,0.02876400041692588,0.07519967777083232,0.02520014182096664,0.07476503799062664
1.004284464286864,0.094068350002802,0.020676195732535024,0.051842634052145065,0.01705142344524748,0.05153851549553108
1.0043315463119944,0.0558705414627791,0.013891881873560084,0.03082107495389939,0.007863199618768238,0.030676861329774527
1.0043786283371248,0.029785725493520713,0.009876979514497298,0.019809015244991575,-0.000654371513396695,0.01981754176522441
1.0044257103622551,0.022326134922130727,0.009107914892372096,0.01684685304795892,-0.006720277947246764,0.016964531624419892
1.0044727923873855,0.03362727707623793,0.010909173089534586,0.01768087969631584,-0.008788908217294921,0.01783565694294656
1.004519874412516,0.057935866130881315,0.0146973004904064,0.0238553638180855,-0.00737501408173116,0.023983827615211662
1.0045669564376463,0.08691312585069338,0.020547646033667374,0.038233159934289905,-0.0021857911212261995,0.0382661165999053
1.0046140384627766,0.11302745450084833,0.027138481628448573,0.05542672474865837,0.007070499813327825,0.05529357839935251
1.004661120487907,0.13143773576861661,0.032194640880496235,0.07126698378066398,0.0175891138732355,0.07095480625623271
1.0047082025130374,0.140315951549541,0.035314996262487935,0.0817840112464661,0.028170841462593126,0.0813049423922986
1.0047552845381678,0.14016084842095028,0.03579772421667533,0.0846685751900148,0.037560653264551304,0.0840503119471289
1.0048023665632981,0.13271042804166153,0.03391949188813732,0.08028160564993014,0.043795925807277473,0.07956996310113659
1.0048494485884285,0.1199532079956697,0.03135747857970451,0.06958311394397716,0.04954937044348162,0.06877746350745526
1.0048965306135589,0.10352759540252561,0.02733391699637671,0.05738407400153901,0.0526104279523324,0.05651783428470711
1.0049436126386893,0.08458770500586026,0.022311964999296417,0.04469505929439128,0.05339500504625428,0.04379938846613015
1.0049906946638196,0.06411017510052013,0.018552807343795975,0.03435472552873721,0.05224395379111984,0.03346335397453921
1.00503777668895,0.043500849939608656,0.01538594755602233,0.022887706523455283,0.04798772841577491,0.022052969956288977
1.0050848587140804,0.02497562650004661,0.012940239084446272,0.013888116903115118,0.04086736710621588,0.013167150187025755
1.0051319407392107,0.011013597455985432,0.010701455151526389,0.011624969459267675,0.032167389860735175,0.011054390078663667
1.0051790227643411,0.003334338693202587,0.008863080805829999,0.009001101837417943,0.022645833370836903,0.008597430454569793
1.0052261047894715,0.0027948227754708652,0.0047988343238984914,0.005716764128480125,0.014442705994393613,0.005458466043160475
1.0052731868146019,0.010164673003053454,0.0012241830334648604,0.005314070387151807,0.006930738035587593,0.005189559468882517
1.0053202688397322,0.026566180290056158,3.4068750827620183e-06,0.008193549268036414,-0.0013827561126918556,0.008216945628998613
1.0053673508648626,0.05291846997433676,0.00203238488763866,0.011498759854167706,-0.00563872614453982,0.011597805695796349
1.005414432889993,0.08828034555015178,0.007060371328732698,0.017065936640710815,-0.007465551561226865,0.017196980841040835
1.0054615149151234,0.12763762777320273,0.011394655352739393,0.025647230237824777,-0.007231669618328572,0.02577285495643037
1.0055085969402537,0.16155770115500132,0.015254910099453041,0.038076850744054896,-0.003121133703363308,0.03812659725833464
1.0055556789653841,0.18078890709766565,0.01828846783701271,0.05135766337998839,0.004884408164439854,0.051263203575593046
1.0056027609905145,0.18307418566708303,0.019430903697992365,0.06056084021799014,0.014722363788188933,0.06029620166669006
1.0056498430156449,0.1741533504439713,0.0194462030640529,0.06655908741414072,0.022719596665030994,0.06616239155362269
1.0056969250407752,0.16242605985016223,0.018682176043449926,0.07063087442771013,0.029719661678945325,0.07012358690701465
1.0057440070659056,0.15418810481596457,0.017359743697490677,0.07107575192890922,0.03376968375875856,0.07050583444391652
1.005791089091036,0.1523552110015489,0.015430340959259999,0.0660360559428213,0.03516609465891549,0.06544181817022851
1.0058381711161664,0.15691036178882456,0.014096643696712815,0.06130313889977103,0.03592548408128173,0.06069432616808216
1.0058852531412967,0.16538784679386007,0.014150856214854617,0.06307528196508604,0.03570070207662811,0.06247102450517493
1.005932335166427,0.17322460684996496,0.011333244594519159,0.06323184659303546,0.03430130885075888,0.06264948562261669
1.0059794171915575,0.17475929729964576,0.008328368813404806,0.05880087400333982,0.03143950805364198,0.05826155611836862
1.0060264992166879,0.16548577922015562,0.005905106719331,0.05204155960234529,0.02757798673641625,0.05156223711468086
1.0060735812418182,0.1445721481217929,0.0040338964381462705,0.04234591607178599,0.021153563771205173,0.04197172133459813
1.0061206632669486,0.11538472372115638,0.002725154640796527,0.03266210113426135,0.012695559696575643,0.03243310643650186
1.006167745292079,0.08342022676517998,0.0017349407048138214,0.0259645785337829,0.004882600535292415,0.025873625026806377
1.0062148273172093,0.053714935068683495,0.0024391560375916378,0.01794830890199036,-0.0010558502430113219,0.017964306458688413
1.0062619093423397,0.029620632829972474,0.0036436527771391003,0.006428025048282717,-0.003935381829350954,0.006497337131240793
1.00630899136747,0.012907514843990737,0.0057211734857050165,-0.004503164505502606,-0.0035360916955537057,-0.0044393160983619
1.0063560733926005,0.004292560353454192,0.008085808438444968,-0.010519166817943732,-0.0006311553558347264,-0.010506219517207493
1.0064031554177308,0.0038095921685766332,0.01237137463602742,-0.007972360122875525,0.00315102937582544,-0.008027404755023051
1.0064502374428612,0.010924293923755681,0.019289241539642964,0.0013341291502741227,0.010879067888341226,0.0011396683982913306
1.0064973194679916,0.02453035587728399,0.02410506453036179,0.011333716656649779,0.019483003536525434,0.010986064377084076
1.006544401493122,0.042966387475684646,0.027608857350325273,0.020787738978896356,0.02772693251272615,0.02029729494521994
1.0065914835182523,0.06411092062196938,0.028100645582544034,0.03329944681240632,0.032276451592724645,0.0327356161247611
1.0066385655433827,0.08556714248621351,0.02922216761717671,0.049462130528264495,0.03309139423488257,0.048892053391756576
1.006685647568513,0.10493697207975199,0.030072017247756197,0.06485229624100503,0.03118285631803028,0.06431965196839831
1.0067327295936435,0.12014720761669652,0.030220672326156873,0.07640706666955516,0.02833527213717328,0.07592354471671624
1.0067798116187738,0.12974860817624662,0.028988846535554644,0.08294186479002422,0.02436779665997145,0.08252227651339725
1.0068268936439042,0.1331160769266914,0.02929534792903492,0.08436945777741765,0.019896495848306085,0.0840209999902649
1.0068739756690346,0.13051634907150206,0.025864424750006856,0.08386978816652868,0.01480479995943972,0.08360394198733972
1.006921057694165,0.12301693370584733,0.019849893566807095,0.08185258015702256,0.011234467434952843,0.08164607202367294
1.0069681397192953,0.11219272060745543,0.013500080682840308,0.07585112215539112,0.007474398440414257,0.0757088386747406
1.0070152217444257,0.09964098937742749,0.008975501127092285,0.06985230351433948,0.004167877118013231,0.06976791665043336
1.007062303769556,0.08648287672211809,0.005905305277818044,0.06302251331950957,0.001922914374485311,0.06297847357277192
1.0071093857946865,0.07315337862299943,0.005806705485009732,0.053521194673379444,0.0004997543367529664,0.053503799622468956
1.0071564678198168,0.05967551136841471,0.006495266613601268,0.042771215350936226,-0.0013112357966855314,0.042787797635782374
1.0072035498449472,0.046352747241279996,0.005235851627146517,0.029687677967592516,-0.002523689204782522,0.02972805777398178
1.0072506318700776,0.03458526276589038,0.005060923543519317,0.01916866027493343,-0.00210896516764916,0.019203294505341507
1.007297713895208,0.02727830692374265,0.005601926522348082,0.01473006896934623,-0.0018550649795518093,0.014760868336319063
1.0073447959203383,0.0280866607277734,0.007976496184946977,0.01711698325886342,-0.0011517096550714661,0.017134826921553534
1.0073918779454687,0.03925806445151868,0.013127735362733735,0.028584290137595406,0.0019223070107539076,0.028545493398110494
1.007438959970599,0.059562255279517966,0.01897749415170798,0.043832242766228824,0.005873826554007188,0.0437214029118477
1.0074860419957294,0.08449757331606145,0.023907118955902282,0.058037587268334905,0.011356401423161648,0.057830255033200564
1.0075331240208598,0.10858230355013457,0.027041986270022394,0.06858033205585247,0.017148852863405263,0.06827528121896355
1.0075802060459902,0.12742598805780986,0.029478632153878293,0.07621925524513734,0.020570697905631635,0.07585888464924008
1.0076272880711206,0.13840784538629322,0.02923462206829148,0.07904744927672683,0.022628218800714715,0.0786545222041859
1.007674370096251,0.14057521646913557,0.027491165112889654,0.0769603579802706,0.023717700534203575,0.07654966516541768
1.0077214521213813,0.1345761316442056,0.02524745350815802,0.07084930100861353,0.02257591735952265,0.0704556990288301
