freq,gls,usurper,pdc_unbiased,shape_periodogram,shift_periodogram
1.0,0.02176245538732735,0.01450256265981018,-0.007335655112181927,0.00948068821745578,-0.007530652118784416
1.0000470820251304,0.05134779247241603,0.018953799985022304,0.016081221596065367,0.010407738949478456,0.015863282240789596
1.0000941640502607,0.09689124580742478,0.02549017442892808,0.05094334186944231,0.014540324456085782,0.0506379791793103
1.0001412460753911,0.14848755125694818,0.030675703125936173,0.08456655871201842,0.02300048773158901,0.0840996266634035
1.0001883281005215,0.19664060203551523,0.03595023766985052,0.10917973127593883,0.03554055755656541,0.10850170608690882
1.0002354101256519,0.23592916525893703,0.041395793626848844,0.12678225514793529,0.04644370607403372,0.125950827094504
1.0002824921507822,0.26363730657080775,0.04572086705438588,0.13936052532630389,0.05338872106198219,0.1384515816081904
1.0003295741759126,0.2780607972143743,0.048506677668128974,0.14663287491158739,0.05682032114928936,0.14569379223626225
1.000376656201043,0.27778293516045677,0.04883149322492958,0.14742341655727248,0.05932841710469979,0.1464563848389004
1.0004237382261734,0.2619162710265795,0.046819439871710555,0.139633635428265,0.05968927929959968,0.13864686015390523
1.0004708202513037,0.23107843684954268,0.042687620483025344,0.12167319492364326,0.05751873834444022,0.12067986767584825
1.0005179022764341,0.1884924826566669,0.037213425138870056,0.09811663264576473,0.05414076946511692,0.09713219810801481
1.0005649843015645,0.1401213853463462,0.03322807597369149,0.07552593926328457,0.050497910089577186,0.07456797633003716
1.0006120663266949,0.09311329616242185,0.030722899955635645,0.056936636782797936,0.04593192240556688,0.056037203589251294
1.0006591483518252,0.05338098213176131,0.030488445062617525,0.04656239048066332,0.03988353382035026,0.04576583550988043
1.0007062303769556,0.024158292773911582,0.029857585323103022,0.0379052596807291,0.03178111567630714,0.037259481001920065
1.000753312402086,0.006389706849983347,0.029947207075380105,0.024925530867037873,0.02248583108717134,0.024461352388610344
1.0008003944272164,4.4957735270936574e-05,0.030454418141493623,0.013623927240606612,0.015089567035735317,0.013310260766278966
1.0008474764523467,0.004476680458159687,0.029767970859120148,0.005279248516488982,0.013037467433793859,0.0050086834019313535
1.000894558477477,0.016631009383087918,0.0344949215609799,0.00604487589630294,0.016124702633922107,0.005710565524201447
1.0009416405026075,0.030279800796216314,0.04235468053941583,0.01614856324889533,0.023542202241049325,0.01566231458122138
1.0009887225277379,0.04019506929021177,0.051054192456028234,0.031662352407458065,0.035115546805121536,0.03094883394069959
1.0010358045528682,0.045271217739530065,0.056819024461139324,0.049643587368788454,0.04924074559936353,0.04867630828579424
1.0010828865779986,0.04665854735345898,0.06260567564820746,0.06394396252727896,0.06225853677283839,0.06277061967127467
1.001129968603129,0.04557434040645729,0.06647419836050937,0.06951556918541625,0.07243618261988057,0.06819026958796126
1.0011770506282593,0.04281463251624272,0.06743312599493743,0.06676401531502141,0.07726137195461688,0.06535544417516395
1.0012241326533897,0.03911406922799136,0.06465110257493942,0.05756222886158259,0.07680245313290636,0.05613311139404802
1.00127121467852,0.035734840091298535,0.05895787400236017,0.04469056838221148,0.07328923394931616,0.04328452945264399
1.0013182967036505,0.034632288517627896,0.053908004378302024,0.03354469161607427,0.06976206761394475,0.032174103963616064
1.0013653787287808,0.03686446430802818,0.050214071373101354,0.03235087082016887,0.06753200742379921,0.03101890542240515
1.0014124607539112,0.040499198873267514,0.04944186951276459,0.04235422606047071,0.06759349401981216,0.041043358877244994
1.0014595427790416,0.04245011553894062,0.05093915346261378,0.05148956578485458,0.06964031712659792,0.05016408885186554
1.001506624804172,0.04142424671447975,0.051585216169219,0.057489670337512934,0.0683064043010792,0.056201159627230476
1.0015537068293023,0.03772147907862947,0.052062819236835214,0.05838903434484734,0.062278046757665996,0.05720455723282788
1.0016007888544327,0.032149333674356434,0.04921679328816423,0.05286952532393206,0.052561004400097124,0.05184617501993173
1.001647870879563,0.025799799790141527,0.04293020226042209,0.040386054375886556,0.03922016880847146,0.03959793765882817
1.0016949529046935,0.020580986012262138,0.034188444013359624,0.02276083148008517,0.025167435537168555,0.022242438558210693
1.0017420349298238,0.01993155776046648,0.030254268740135346,0.008396000375120035,0.01545214795630647,0.008075344836018105
1.0017891169549542,0.027489951613850306,0.030035979402544096,0.00883020356959996,0.014885849573694111,0.008521159430863158
1.0018361989800846,0.042074300128446054,0.031079073979403373,0.022145335055818467,0.019800066163147976,0.021735293782352644
1.001883281005215,0.05845891480384451,0.03708498904778931,0.04104344236602053,0.029355851547474957,0.040445923047841933
1.0019303630303453,0.07582159493280267,0.041952600398931714,0.05832937685591873,0.040886330561440344,0.05752278399874216
1.0019774450554757,0.09824195100672209,0.043311523675244816,0.07041397317164165,0.05394562291049357,0.06939102583170681
1.002024527080606,0.1303669711588208,0.03961185150937817,0.07896421651578898,0.06211720406414058,0.07782279051823081
1.0020716091057364,0.17464242099810953,0.035345610653939624,0.08832693698111686,0.06728378750796078,0.08712736756755651
1.0021186911308668,0.22917237164395338,0.03550297466249666,0.11355266104308831,0.07133263630953154,0.1123628163267022
1.0021657731559972,0.2864808872447173,0.038965994860004946,0.14880372324738836,0.07566700717521284,0.14767161909145024
1.0022128551811276,0.335488571803669,0.04228692774069626,0.17945522269565434,0.07967587186298532,0.178396246281491
1.002259937206258,0.3667004160945303,0.04382404021514915,0.20044309409803335,0.08203100216405138,0.19944990279849575
1.0023070192313883,0.37630521047742305,0.04340689530860735,0.20989430295355302,0.08212717004002275,0.208936687284934
1.0023541012565187,0.3658732131217113,0.0415734839245956,0.20800353236518512,0.08018726089889935,0.20704504175820884
1.002401183281649,0.3393357840705059,0.040026813922260165,0.19716291122807472,0.07694769525086766,0.19618011792682233
1.0024482653067794,0.30043566038503033,0.03830500040549181,0.1783931936762516,0.06925487606496149,0.1774025666987859
1.0024953473319098,0.25183659939415354,0.03480266128378011,0.15384153094853617,0.05571164108680077,0.15292849884587606
1.0025424293570402,0.1956066522565673,0.028354221650151144,0.12081929242955049,0.03848514338791596,0.12010210955055148
1.0025895113821706,0.13475970805500284,0.023111789890723686,0.07564140824241966,0.017757053183802347,0.07527266460651773
1.002636593407301,0.07582916802294695,0.02107796521899063,0.025728531183742454,0.0014604217421861285,0.02569284943629641
1.0026836754324313,0.03145358980808763,0.01924435721587745,-0.0040036080406334615,0.0015026872423660924,-0.004033859073779105
1.0027307574575617,0.01779891286180085,0.020755031296460245,-0.006351274616742859,0.018335749962998842,-0.006730563704657054
1.002777839482692,0.04358985242398123,0.024107473856746085,0.006591376950054447,0.040081848203952726,0.005764966469190883
1.0028249215078224,0.1037077589167159,0.036071164775427746,0.04281328660270074,0.05763129969594204,0.041683532680016386
1.0028720035329528,0.18101238562213362,0.05128748665249475,0.0979436666785688,0.06567193748633769,0.0967897317997307
1.0029190855580832,0.25636899888384335,0.0631558304759932,0.15380629462607742,0.06851053513430921,0.1527561105505116
1.0029661675832136,0.31832235074100634,0.06836476860751184,0.19704252226634572,0.0697842373325365,0.1960998887627385
1.003013249608344,0.36361141655314383,0.07216913216052272,0.228525784613192,0.06956215468638526,0.22767311888393116
1.0030603316334743,0.39341420767750745,0.07292251858215962,0.24979870354304085,0.06679766197828634,0.24901431846806563
1.0031074136586047,0.4102870696014962,0.07141489132664365,0.26258314989231946,0.06406256170577522,0.26183988154284843
1.003154495683735,0.41662904201390033,0.06893044043840407,0.266777273312063,0.06052676634792146,0.2660554027708998
1.0032015777088654,0.41405085665469693,0.0653335650567481,0.26326150551395927,0.055993807964619516,0.2625514149178421
1.0032486597339958,0.4030953535584088,0.06059423123963703,0.251751202986526,0.05033441124670053,0.251054054806769
1.0032957417591262,0.38301151602067063,0.05462919314322448,0.2324239377319079,0.04358216859102535,0.23175490835496762
1.0033428237842565,0.3514583105172215,0.047258044331133064,0.2047530276495091,0.03573258672973196,0.20414213510710963
1.003389905809387,0.3042863356687068,0.038190798278492505,0.16911475512504195,0.02712659534382716,0.1686021588826146
1.0034369878345173,0.2364892670841809,0.02812096883794038,0.12615890065588273,0.01804033227883662,0.12578786956524526
1.0034840698596477,0.14805992805189566,0.018357580205941502,0.07745804013496241,0.009082931373201177,0.07725838312723286
1.003531151884778,0.05937981673678241,0.012586470931068421,0.035632586371168055,0.002661388210970581,0.03557010224273888
1.0035782339099084,0.016571701488668728,0.01332103189939609,0.012038086514572617,0.0007578725558953802,0.012019826804639
1.0036253159350388,0.04141534161646615,0.02224172384358835,0.014399178728297872,0.007005984302061608,0.014251467423644078
1.0036723979601692,0.0978579156313711,0.03703712931367891,0.03595348541122598,0.021348957319374966,0.03551280647971775
1.0037194799852995,0.14599333246590304,0.05587458610406315,0.06503465797160808,0.0355510327857234,0.06432999716326296
1.00376656201043,0.17300879075255565,0.0699477683386837,0.0922030709843016,0.04760666417332462,0.09131311984162199
1.0038136440355603,0.18229222765708752,0.07923921465777956,0.11374971918924169,0.054865302957203856,0.11277943655704946
1.0038607260606907,0.18262972424027749,0.08306810565074023,0.12736778710133306,0.05881754914937391,0.1263679501930563
1.003907808085821,0.18292620727983336,0.08606653546442425,0.13485525602086357,0.061754529046046745,0.13383384941275717
1.0039548901109514,0.18798821740501145,0.08827200273741741,0.13913083302593265,0.06486749880333315,0.13808257952824493
1.0040019721360818,0.19658928748535154,0.0867648555633491,0.1397247738744464,0.06656179003849104,0.13865898117807957
1.0040490541612122,0.20361099360789395,0.0812270855200001,0.1356935801867525,0.06813742049037308,0.13460016375737963
1.0040961361863425,0.20356945018764083,0.07295012767050577,0.1287855413388881,0.06652291594879119,0.127693412214922
1.004143218211473,0.19261735903368254,0.06487265008705317,0.11776025800915435,0.06489461622688729,0.11666218130079246
1.0041903002366033,0.1692114287165738,0.05462165742438454,0.09836742477706704,0.05981353975044266,0.09729869608457484
1.0042373822617336,0.13469585530973552,0.04315402263275888,0.07519967777083232,0.05045324290411628,0.07424204857818766
1.004284464286864,0.094068350002802,0.031078148766760016,0.051842634052145065,0.03952837766126001,0.051056377177293784
1.0043315463119944,0.0558705414627791,0.02000554044396106,0.03082107495389939,0.026917484956858074,0.030269033075487645
1.0043786283371248,0.029785725493520713,0.013116892214117997,0.019809015244991575,0.01483984830085357,0.019499918026129024
1.0044257103622551,0.022326134922130727,0.009985737499800222,0.01684685304795892,0.005614983365349203,0.016727329272878035
1.0044727923873855,0.03362727707623793,0.009992162876726808,0.01768087969631584,0.0008556626142401241,0.017659395457876835
1.004519874412516,0.057935866130881315,0.012883198140708487,0.0238553638180855,0.0008423627969955911,0.023832842220972296
1.0045669564376463,0.08691312585069338,0.018244660795344772,0.038233159934289905,0.0067391310385504465,0.038086650876823905
1.0046140384627766,0.11302745450084833,0.02455555559263527,0.05542672474865837,0.018525873145892654,0.055042577899733026
1.004661120487907,0.13143773576861661,0.031230657627874664,0.07126698378066398,0.032636818767998725,0.07061874514522602
1.0047082025130374,0.140315951549541,0.03730846820874776,0.0817840112464661,0.04662245709778895,0.08089848452748412
1.0047552845381678,0.14016084842095028,0.038664581223275256,0.0846685751900148,0.058242953837695635,0.08359863682913293
1.0048023665632981,0.13271042804166153,0.037342269217126876,0.08028160564993014,0.06680400283358622,0.07907034759513637
1.0048494485884285,0.1199532079956697,0.03337096318851528,0.06958311394397716,0.0727028430435049,0.06825382230305733
1.0048965306135589,0.10352759540252561,0.0313715930653317,0.05738407400153901,0.07565079407901072,0.055973293500259855
1.0049436126386893,0.08458770500586026,0.028464740030475017,0.04469505929439128,0.07394665202455394,0.04327752763710908
1.0049906946638196,0.06411017510052013,0.025938317273481643,0.03435472552873721,0.06843432374631941,0.03301051933627581
1.00503777668895,0.043500849939608656,0.02182239955182193,0.022887706523455283,0.06129551291961074,0.02165565549197499
1.0050848587140804,0.02497562650004661,0.017227235456448865,0.013888116903115118,0.0530044572928301,0.012806262554238602
1.0051319407392107,0.011013597455985432,0.012651527347244975,0.011624969459267675,0.043551709108847425,0.010731325758064682
1.0051790227643411,0.003334338693202587,0.010557757563904084,0.009001101837417943,0.03149106007019702,0.008351536333708158
1.0052261047894715,0.0027948227754708652,0.00704397407553768,0.005716764128480125,0.018001168315219494,0.005343805192438306
1.0052731868146019,0.010164673003053454,0.005938137513244491,0.005314070387151807,0.00717726645099616,0.005164504390301308
1.0053202688397322,0.026566180290056158,0.006962619302449458,0.008193549268036414,0.0003671581863727857,0.008184195124914879
1.0053673508648626,0.05291846997433676,0.008610137414829563,0.011498759854167706,-0.003407439971066897,0.011566882188051542
1.005414432889993,0.08828034555015178,0.009284413900111166,0.017065936640710815,-0.0037547926660688887,0.017140090579512827
1.0054615149151234,0.12763762777320273,0.01117661596638994,0.025647230237824777,-0.0002039598501884131,0.02564595693942198
1.0055085969402537,0.16155770115500132,0.013823541068368245,0.038076850744054896,0.008092128403276494,0.03790280200296617
1.0055556789653841,0.18078890709766565,0.017461109583569702,0.05135766337998839,0.018754929461279372,0.05096893327566159
1.0056027609905145,0.18307418566708303,0.019033185690951762,0.06056084021799014,0.030062144307957273,0.059956022449979815
1.0056498430156449,0.1741533504439713,0.021555265725470778,0.06655908741414072,0.040667509324211,0.0657627720908051
1.0056969250407752,0.16242605985016223,0.022424878593855255,0.07063087442771013,0.04975182501664089,0.06967942832866049
1.0057440070659056,0.15418810481596457,0.02084876421697127,0.07107575192890922,0.05514906438994455,0.0700335956422259
1.005791089091036,0.1523552110015489,0.017073821237240137,0.0660360559428213,0.056733349832397854,0.0649593315249462
1.0058381711161664,0.15691036178882456,0.015136428832203947,0.06130313889977103,0.056024833495711183,0.06023102595586241
1.0058852531412967,0.16538784679386007,0.014495409147313778,0.06307528196508604,0.05286343347795594,0.062060420684209514
1.005932335166427,0.17322460684996496,0.013666860167399701,0.06323184659303546,0.04768416510822458,0.062307732089728285
1.0059794171915575,0.17475929729964576,0.01076227533969634,0.05880087400333982,0.0405192875926141,0.05800134186820246
1.0060264992166879,0.16548577922015562,0.007425163606737983,0.05204155960234529,0.033888420985320536,0.05136119401739447
1.0060735812418182,0.1445721481217929,0.004601006878306727,0.04234591607178599,0.026934308549100287,0.04179594537775173
1.0061206632669486,0.11538472372115638,0.0017947292336361748,0.03266210113426135,0.020640271996729388,0.03223539937313835
1.006167745292079,0.08342022676517998,0.0013027218900485324,0.0259645785337829,0.01555964915131339,0.025640363981228362
1.0062148273172093,0.053714935068683495,0.002985644374129392,0.01794830890199036,0.012349219486357865,0.0176903108422313
1.0062619093423397,0.029620632829972474,0.005742997410390218,0.006428025048282717,0.011162761673787013,0.006195982930097946
1.00630899136747,0.012907514843990737,0.008633860491823277,-0.004503164505502606,0.01058621643273499,-0.0047215877427914
1.0063560733926005,0.004292560353454192,0.013131252709382434,-0.010519166817943732,0.01159019539810332,-0.010757507451550907
1.0064031554177308,0.0038095921685766332,0.01827641402795415,-0.007972360122875525,0.012808774528477142,-0.008236438153609853
1.0064502374428612,0.010924293923755681,0.025589852697028206,0.0013341291502741227,0.016456320064122894,0.0009933392043630944
1.0064973194679916,0.02453035587728399,0.03296517801466419,0.011333716656649779,0.02189027898639369,0.010880859304021688
1.006544401493122,0.042966387475684646,0.038947690676926085,0.020787738978896356,0.02679347617243546,0.02023628444315583
1.0065914835182523,0.06411092062196938,0.043543282553893066,0.03329944681240632,0.03132519068423428,0.03266096930358788
1.0066385655433827,0.08556714248621351,0.04892760979065308,0.049462130528264495,0.03539701275221381,0.048751980067821055
1.006685647568513,0.10493697207975199,0.05116463438661433,0.06485229624100503,0.03831298152450185,0.06409719908787688
1.0067327295936435,0.12014720761669652,0.051058189389807884,0.07640706666955516,0.039497543483362985,0.07563896468014723
1.0067798116187738,0.12974860817624662,0.04751458701556262,0.08294186479002422,0.038438411775058044,0.08219700738820893
1.0068268936439042,0.1331160769266914,0.04364383675894515,0.08436945777741765,0.0352999151738108,0.0836803211556427
1.0068739756690346,0.13051634907150206,0.03909084042551598,0.08386978816652868,0.03159511432829468,0.08324604364515148
1.006921057694165,0.12301693370584733,0.033422340527120564,0.08185258015702256,0.02526699816104229,0.08134315313658566
1.0069681397192953,0.11219272060745543,0.026247527043872784,0.07585112215539112,0.018370432882390753,0.07547062562972506
1.0070152217444257,0.09964098937742749,0.018412892320943012,0.06985230351433948,0.012135404147787038,0.06959314067526556
1.007062303769556,0.08648287672211809,0.012112992370634701,0.06302251331950957,0.0076631106025126005,0.0628532199436281
1.0071093857946865,0.07315337862299943,0.0069411855965778105,0.053521194673379444,0.0044942593255560825,0.053417667203805766
1.0071564678198168,0.05967551136841471,0.0015727968971929768,0.042771215350936226,0.001615272102890523,0.04272877970444195
1.0072035498449472,0.046352747241279996,-0.0020961522228331838,0.029687677967592516,0.0008093033494853679,0.0296646022652712
1.0072506318700776,0.03458526276589038,-0.004321192364214864,0.01916866027493343,0.0017299577782067194,0.01912879357350837
1.007297713895208,0.02727830692374265,-0.004358811161527985,0.01473006896934623,0.0027023835255741316,0.014671047011712783
1.0073447959203383,0.0280866607277734,-0.0027793293487068764,0.01711698325886342,0.00513831119709558,0.017007226728698418
1.0073918779454687,0.03925806445151868,0.0020961497977774212,0.028584290137595406,0.010356928588793642,0.02836556712525285
1.007438959970599,0.059562255279517966,0.009329898868416004,0.043832242766228824,0.016512380400838852,0.04348796397342631
1.0074860419957294,0.08449757331606145,0.01592901508834506,0.058037587268334905,0.024140341559942206,0.05754471272171154
1.0075331240208598,0.10858230355013457,0.021258759368366464,0.06858033205585247,0.030296926121525323,0.06797400998009687
1.0075802060459902,0.12742598805780986,0.024643762091392192,0.07621925524513734,0.034629028912705744,0.07553743529588472
1.0076272880711206,0.13840784538629322,0.02686013230238834,0.07904744927672683,0.037517371334305875,0.07831601620488235
1.007674370096251,0.14057521646913557,0.026673217700149132,0.0769603579802706,0.03890414886267246,0.07620308800206396
1.0077214521213813,0.1345761316442056,0.024031213963831958,0.07084930100861353,0.03806871230871388,0.07010261421655076
1.0077685341465117,0.12269802495893224,0.020560570169833516,0.062425783036096825,0.03339186913578308,0.0617595616728161
