freq,gls,usurper,pdc_unbiased,shape_periodogram,shift_periodogram
1.0,0.02176245538732735,0.008716415133600336,-0.007335655112181927,0.010326622890351292,-0.007408695080619849
1.0000470820251304,0.05134779247241603,0.010344203158193578,0.016081221596065367,0.010751751948969736,0.016005944172443276
1.0000941640502607,0.09689124580742478,0.012693918523133488,0.05094334186944231,0.012552467099492285,0.05085788622625148
1.0001412460753911,0.14848755125694818,0.01461792632135378,0.08456655871201842,0.017639507076952728,0.08445443611694017
1.0001883281005215,0.19664060203551523,0.016773578289894234,0.10917973127593883,0.02688162074964928,0.10902975949016062
1.0002354101256519,0.23592916525893703,0.01998728256756646,0.12678225514793529,0.035959780050091976,0.12661218401607965
1.0002824921507822,0.26363730657080775,0.02446874857874032,0.13936052532630389,0.04290240530518236,0.1391889666916346
1.0003295741759126,0.2780607972143743,0.026874643277217652,0.14663287491158739,0.04658554226892821,0.14646686889085864
1.000376656201043,0.27778293516045677,0.026950546274552133,0.14742341655727248,0.049327172386173596,0.14725856163872358
1.0004237382261734,0.2619162710265795,0.026429140212279326,0.139633635428265,0.04972937355789721,0.13945887151912315
1.0004708202513037,0.23107843684954268,0.02483342890103993,0.12167319492364326,0.048101085876048964,0.12147698450416342
1.0005179022764341,0.1884924826566669,0.022512847258475514,0.09811663264576473,0.04565589542323926,0.09789793828162939
1.0005649843015645,0.1401213853463462,0.02130150851337822,0.07552593926328457,0.04351713869698289,0.07529067878870102
1.0006120663266949,0.09311329616242185,0.021514024792112216,0.056936636782797936,0.041138469296898766,0.05669431971716866
1.0006591483518252,0.05338098213176131,0.023581383000804014,0.04656239048066332,0.037849921963225605,0.04632826934435787
1.0007062303769556,0.024158292773911582,0.025301948880383195,0.0379052596807291,0.032664751954235224,0.03769451469545462
1.000753312402086,0.006389706849983347,0.02757293381133309,0.024925530867037873,0.02649365726338217,0.024746906499798528
1.0008003944272164,4.4957735270936574e-05,0.02895808101889768,0.013623927240606612,0.021669753854288133,0.01347395778406374
1.0008474764523467,0.004476680458159687,0.029234199293593076,0.005279248516488982,0.02042880091458909,0.005136111231284672
1.000894558477477,0.016631009383087918,0.03304548397083663,0.00604487589630294,0.022690239379755225,0.005886215966160395
1.0009416405026075,0.030279800796216314,0.03841655355699046,0.01614856324889533,0.028140315526723577,0.01595608292171719
1.0009887225277379,0.04019506929021177,0.0440772571851329,0.031662352407458065,0.03652195084221653,0.03142530632244184
1.0010358045528682,0.045271217739530065,0.047591191819833775,0.049643587368788454,0.04706788180931188,0.04936618541832416
1.0010828865779986,0.04665854735345898,0.05230718012975476,0.06394396252727896,0.055715139384844674,0.06365028241116481
1.001129968603129,0.04557434040645729,0.05418853551471744,0.06951556918541625,0.06263547243535238,0.06921050840781802
1.0011770506282593,0.04281463251624272,0.05364169668648722,0.06676401531502141,0.065864615637381,0.0664445470068522
1.0012241326533897,0.03911406922799136,0.052603697814847514,0.05756222886158259,0.0648246027373195,0.057225820224660634
1.00127121467852,0.035734840091298535,0.04948457479119119,0.04469056838221148,0.06055216173997306,0.04434486495813057
1.0013182967036505,0.034632288517627896,0.04646206247861705,0.03354469161607427,0.05678294701602362,0.03319754146018737
1.0013653787287808,0.03686446430802818,0.04358878248617274,0.03235087082016887,0.054824470476886246,0.03201208814813654
1.0014124607539112,0.040499198873267514,0.041475637051677,0.04235422606047071,0.05513026740494604,0.04202918530979897
1.0014595427790416,0.04245011553894062,0.042170949968967544,0.05148956578485458,0.057921742660822506,0.0511670576664842
1.001506624804172,0.04142424671447975,0.04395531436534552,0.057489670337512934,0.0588660493944033,0.057173929183590884
1.0015537068293023,0.03772147907862947,0.04595914628483975,0.05838903434484734,0.05638491436130919,0.05808401874921937
1.0016007888544327,0.032149333674356434,0.04490339324147027,0.05286952532393206,0.050556234387165916,0.052580179591050664
1.001647870879563,0.025799799790141527,0.0401657572984209,0.040386054375886556,0.04183468844677776,0.04012578090303297
1.0016949529046935,0.020580986012262138,0.03416392122763341,0.02276083148008517,0.031630189447214886,0.02254862728498954
1.0017420349298238,0.01993155776046648,0.031324104730160625,0.008396000375120035,0.024644294436978735,0.00822449190271691
1.0017891169549542,0.027489951613850306,0.02995293723332719,0.00883020356959996,0.024623452848523512,0.008658960689334347
1.0018361989800846,0.042074300128446054,0.029415565470353677,0.022145335055818467,0.027829468337685234,0.021957147500307302
1.001883281005215,0.05845891480384451,0.03336134524429526,0.04104344236602053,0.03411777059892206,0.04082612451290537
1.0019303630303453,0.07582159493280267,0.0348654353850273,0.05832937685591873,0.042436001964337874,0.05808229458642872
1.0019774450554757,0.09824195100672209,0.03320778605557621,0.07041397317164165,0.05237287072054175,0.07014136515389768
1.002024527080606,0.1303669711588208,0.028265170864981596,0.07896421651578898,0.05640738689238406,0.07869263936000931
1.0020716091057364,0.17464242099810953,0.024234536138138165,0.08832693698111686,0.058515927670279376,0.08806658106391668
1.0021186911308668,0.22917237164395338,0.023154616425514894,0.11355266104308831,0.06074980885699956,0.11333628400372227
1.0021657731559972,0.2864808872447173,0.024538129054973115,0.14880372324738836,0.06344457937388547,0.14866026495422488
1.0022128551811276,0.335488571803669,0.025958109335056087,0.17945522269565434,0.06585315847388626,0.17938553908517382
1.002259937206258,0.3667004160945303,0.026351856029283558,0.20044309409803335,0.06704943068785621,0.2004265290321174
1.0023070192313883,0.37630521047742305,0.02562211026612586,0.20989430295355302,0.06649886519922797,0.20989508253344097
1.0023541012565187,0.3658732131217113,0.024273463017514225,0.20800353236518512,0.06457507239748826,0.20798769033631492
1.002401183281649,0.3393357840705059,0.022284465282183044,0.19716291122807472,0.06252272485284019,0.19711333707539935
1.0024482653067794,0.30043566038503033,0.02066847308695377,0.1783931936762516,0.057726295166299554,0.1782888721460548
1.0024953473319098,0.25183659939415354,0.02072165019698976,0.15384153094853617,0.04800503436355094,0.15368414537589006
1.0025424293570402,0.1956066522565673,0.019649921247523357,0.12081929242955049,0.03534406418365429,0.1206467612617406
1.0025895113821706,0.13475970805500284,0.019422975960689527,0.07564140824241966,0.01849675608993521,0.07552304345023303
1.002636593407301,0.07582916802294695,0.01981193150975345,0.025728531183742454,0.003922528519624481,0.025700451230483347
1.0026836754324313,0.03145358980808763,0.015079712335576255,-0.0040036080406334615,0.0030644788671232866,-0.004025140509449845
1.0027307574575617,0.01779891286180085,0.011840761628787841,-0.006351274616742859,0.017099058588163595,-0.006472654577246862
1.002777839482692,0.04358985242398123,0.016060175418257397,0.006591376950054447,0.033212777117525474,0.006360488025345935
1.0028249215078224,0.1037077589167159,0.026943420907115743,0.04281328660270074,0.04695505382877025,0.042528778708405025
1.0028720035329528,0.18101238562213362,0.03858637103687341,0.0979436666785688,0.05362916623465814,0.09770768758777097
1.0029190855580832,0.25636899888384335,0.045411280690979425,0.15380629462607742,0.05621275740781678,0.15365728027964262
1.0029661675832136,0.31832235074100634,0.046007375979590176,0.19704252226634572,0.05959093059872842,0.19697821369795215
1.003013249608344,0.36361141655314383,0.04818275054695189,0.228525784613192,0.06047654401920056,0.22852327160044222
1.0030603316334743,0.39341420767750745,0.04834740561626565,0.24979870354304085,0.05795859307718725,0.24981549662320632
1.0031074136586047,0.4102870696014962,0.04722637260193296,0.26258314989231946,0.05611354624570905,0.26260675850502874
1.003154495683735,0.41662904201390033,0.04546104635695502,0.266777273312063,0.053480071907406994,0.2667880835684225
1.0032015777088654,0.41405085665469693,0.04321965922203801,0.26326150551395927,0.05004517545880761,0.2632454910009876
1.0032486597339958,0.4030953535584088,0.04046428137609098,0.251751202986526,0.04580345255248803,0.2516999271315846
1.0032957417591262,0.38301151602067063,0.037105207882823815,0.2324239377319079,0.04078461972149239,0.23233667109947237
1.0033428237842565,0.3514583105172215,0.03315470791066928,0.2047530276495091,0.03491621482732849,0.20463674864343093
1.003389905809387,0.3042863356687068,0.028396377547049784,0.16911475512504195,0.028425079048966916,0.16898505050033263
1.0034369878345173,0.2364892670841809,0.022941235484408087,0.12615890065588273,0.021460312503712782,0.12603661377559128
1.0034840698596477,0.14805992805189566,0.017601863488623564,0.07745804013496241,0.014282123926977636,0.0773641412538526
1.003531151884778,0.05937981673678241,0.014681281763001215,0.035632586371168055,0.008813217295842854,0.03557103975589057
1.0035782339099084,0.016571701488668728,0.016327287246657565,0.012038086514572617,0.007432866717918545,0.011985705766531457
1.0036253159350388,0.04141534161646615,0.023447648216375433,0.014399178728297872,0.013678459292516605,0.014303714635334032
1.0036723979601692,0.0978579156313711,0.03471841508773406,0.03595348541122598,0.02716580519037846,0.035774548190908174
1.0037194799852995,0.14599333246590304,0.049605888512924044,0.06503465797160808,0.04008142133020901,0.06480399501461545
1.00376656201043,0.17300879075255565,0.061692303379141875,0.0922030709843016,0.05001342439045489,0.09196664607635063
1.0038136440355603,0.18229222765708752,0.06845272815054082,0.11374971918924169,0.055223254633774664,0.11353597208573861
1.0038607260606907,0.18262972424027749,0.0694791549421397,0.12736778710133306,0.05787548942004723,0.12717606998685407
1.003907808085821,0.18292620727983336,0.07163918436610324,0.13485525602086357,0.05768994753548244,0.13467633218723293
1.0039548901109514,0.18798821740501145,0.07316525652775384,0.13913083302593265,0.058296813876696885,0.138959897925065
1.0040019721360818,0.19658928748535154,0.07042652103649533,0.1397247738744464,0.05787743818230823,0.1395544110785575
1.0040490541612122,0.20361099360789395,0.06547517149394455,0.1356935801867525,0.05963873361147151,0.13551796578945152
1.0040961361863425,0.20356945018764083,0.05868523574333019,0.1287855413388881,0.05821855518747603,0.128596438095359
1.004143218211473,0.19261735903368254,0.05292543518813926,0.11776025800915435,0.056224205350810165,0.11755239935943533
1.0041903002366033,0.1692114287165738,0.04544448641788352,0.09836742477706704,0.05158467019357247,0.09813582507570366
1.0042373822617336,0.13469585530973552,0.0372957752116082,0.07519967777083232,0.04383284097479184,0.07496291836895538
1.004284464286864,0.094068350002802,0.028772755023241385,0.051842634052145065,0.03523079742388525,0.0516258264888438
1.0043315463119944,0.0558705414627791,0.020738837255629493,0.03082107495389939,0.025925765285786426,0.030648006460073294
1.0043786283371248,0.029785725493520713,0.01565347591165842,0.019809015244991575,0.017318228466808753,0.01968940098940988
1.0044257103622551,0.022326134922130727,0.013183267530881919,0.01684685304795892,0.010876372051961292,0.01677074765386854
1.0044727923873855,0.03362727707623793,0.012797783796870167,0.01768087969631584,0.007904709050319429,0.0176252649585553
1.004519874412516,0.057935866130881315,0.014386729434952616,0.0238553638180855,0.007981399615163852,0.02379928381486088
1.0045669564376463,0.08691312585069338,0.01785658637666563,0.038233159934289905,0.012640664432028706,0.038146294443272395
1.0046140384627766,0.11302745450084833,0.02166972779304198,0.05542672474865837,0.022003254696797935,0.05528421817580126
1.004661120487907,0.13143773576861661,0.025266297399971518,0.07126698378066398,0.03350037715013105,0.07107042508474747
1.0047082025130374,0.140315951549541,0.029622271131472987,0.0817840112464661,0.04453653317009595,0.08155139158481432
1.0047552845381678,0.14016084842095028,0.029837461463204373,0.0846685751900148,0.053377823478842464,0.0844135206594635
1.0048023665632981,0.13271042804166153,0.028122256780923564,0.08028160564993014,0.05981395005030221,0.08000413602061743
1.0048494485884285,0.1199532079956697,0.02413436848151867,0.06958311394397716,0.0630172479213711,0.06927717035040487
1.0048965306135589,0.10352759540252561,0.022413417109355,0.05738407400153901,0.06357364958400279,0.057051496345130646
1.0049436126386893,0.08458770500586026,0.020670897192336776,0.04469505929439128,0.059916590298403946,0.044352141075946
1.0049906946638196,0.06411017510052013,0.018059975460499273,0.03435472552873721,0.054116917353260185,0.034022654236782385
1.00503777668895,0.043500849939608656,0.0151200301922047,0.022887706523455283,0.04812931867524362,0.022574093304612124
1.0050848587140804,0.02497562650004661,0.011494392737124916,0.013888116903115118,0.042218303584045554,0.013602216887474363
1.0051319407392107,0.011013597455985432,0.006839698577602851,0.011624969459267675,0.03688635737771534,0.011372311878589706
1.0051790227643411,0.003334338693202587,0.004244826269679075,0.009001101837417943,0.02963830215985895,0.008795728575972446
1.0052261047894715,0.0027948227754708652,0.002804717965705587,0.005716764128480125,0.018346442596316553,0.005588171798858545
1.0052731868146019,0.010164673003053454,0.004459915185603759,0.005314070387151807,0.008133038973692835,0.005256752417171716
1.0053202688397322,0.026566180290056158,0.0072997854049315376,0.008193549268036414,0.002479260662535841,0.00817588622607199
1.0053673508648626,0.05291846997433676,0.009119504963320485,0.011498759854167706,-0.0002484382593270309,0.011500226123515733
1.005414432889993,0.08828034555015178,0.008151977256915691,0.017065936640710815,-0.0015084914913465208,0.01707616640620939
1.0054615149151234,0.12763762777320273,0.00832813340440366,0.025647230237824777,-0.0008018012208636386,0.02565225048552283
1.0055085969402537,0.16155770115500132,0.010133310143170078,0.038076850744054896,0.004048485381755572,0.03804772459736282
1.0055556789653841,0.18078890709766565,0.012414191339190908,0.05135766337998839,0.011540444318740337,0.05127872210618837
1.0056027609905145,0.18307418566708303,0.012751622709274605,0.06056084021799014,0.019684334743131308,0.06043293422581515
1.0056498430156449,0.1741533504439713,0.014451802248818892,0.06655908741414072,0.027946236463937693,0.0663874546882192
1.0056969250407752,0.16242605985016223,0.015361550753963246,0.07063087442771013,0.03510919753896984,0.07042655063675253
1.0057440070659056,0.15418810481596457,0.013568745489772003,0.07107575192890922,0.04028707376200851,0.07084922224107675
1.005791089091036,0.1523552110015489,0.010106005256833209,0.0660360559428213,0.04239288751714501,0.06579626371690304
1.0058381711161664,0.15691036178882456,0.00906386552380898,0.06130313889977103,0.042267296552831804,0.061059544118955714
1.0058852531412967,0.16538784679386007,0.009153700591929789,0.06307528196508604,0.03928063940314455,0.06284663126261769
1.005932335166427,0.17322460684996496,0.009411426699319596,0.06323184659303546,0.034886639316503994,0.06302390619124361
1.0059794171915575,0.17475929729964576,0.007173977166513798,0.05880087400333982,0.02926704609210787,0.058619087394825395
1.0060264992166879,0.16548577922015562,0.004681869801955085,0.05204155960234529,0.024780402771884327,0.051882089625696584
1.0060735812418182,0.1445721481217929,0.0026963630329487893,0.04234591607178599,0.020400624510053738,0.04221013417819266
1.0061206632669486,0.11538472372115638,0.0010682105993998136,0.03266210113426135,0.017390520102618136,0.032543746586842184
1.006167745292079,0.08342022676517998,0.0014020659348131055,0.0259645785337829,0.015482383890492135,0.025857943596580345
1.0062148273172093,0.053714935068683495,0.0036823854034941507,0.01794830890199036,0.014373882168928737,0.017848376130624292
1.0062619093423397,0.029620632829972474,0.007209036886812925,0.006428025048282717,0.016528553208297356,0.006312159165486808
1.00630899136747,0.012907514843990737,0.010213857337234818,-0.004503164505502606,0.017054193130832677,-0.004624003883560091
1.0063560733926005,0.004292560353454192,0.014238325794618235,-0.010519166817943732,0.017378301049339014,-0.010643060289277877
1.0064031554177308,0.0038095921685766332,0.017779304523032828,-0.007972360122875525,0.01915903096986794,-0.008108765036819902
1.0064502374428612,0.010924293923755681,0.02237476470820697,0.0013341291502741227,0.021482255059189295,0.0011828556508150002
1.0064973194679916,0.02453035587728399,0.028974092291361737,0.011333716656649779,0.025308769586402772,0.011158540559883462
1.006544401493122,0.042966387475684646,0.03439249944022829,0.020787738978896356,0.029085505377272135,0.020590922449520897
1.0065914835182523,0.06411092062196938,0.04000784991990668,0.03329944681240632,0.03300430514924859,0.03308422981875083
1.0066385655433827,0.08556714248621351,0.045182086484225115,0.049462130528264495,0.0365880732412921,0.04923667771548804
1.006685647568513,0.10493697207975199,0.04746499650038247,0.06485229624100503,0.04025961403269822,0.06462069438272705
1.0067327295936435,0.12014720761669652,0.04644663302417151,0.07640706666955516,0.04221417458492259,0.07617754777019434
1.0067798116187738,0.12974860817624662,0.04327955546019657,0.08294186479002422,0.04092234614275851,0.08272297583498446
1.0068268936439042,0.1331160769266914,0.03956901565180703,0.08436945777741765,0.0375068052129932,0.08416445197115156
1.0068739756690346,0.13051634907150206,0.03686321229824628,0.08386978816652868,0.0333041284453067,0.08368138724877315
1.006921057694165,0.12301693370584733,0.03299427148002668,0.08185258015702256,0.02610472053894958,0.08169594033443678
1.0069681397192953,0.11219272060745543,0.027369680756059923,0.07585112215539112,0.018758017604073394,0.07573133311521185
1.0070152217444257,0.09964098937742749,0.020563118450378066,0.06985230351433948,0.012331385806893854,0.06976951575710676
1.007062303769556,0.08648287672211809,0.015101609091475756,0.06302251331950957,0.007630651334101372,0.06296927932558634
1.0071093857946865,0.07315337862299943,0.009781196707726375,0.053521194673379444,0.004723755696270704,0.05348728879217416
1.0071564678198168,0.05967551136841471,0.003993407369920965,0.042771215350936226,0.0028408045337051865,0.04275034448213017
1.0072035498449472,0.046352747241279996,0.0007440469832772098,0.029687677967592516,0.0034033978646536124,0.029663139503172023
1.0072506318700776,0.03458526276589038,-0.0019668599573852965,0.01916866027493343,0.004754497434261982,0.019134885006210942
1.007297713895208,0.02727830692374265,-0.002303171810545622,0.01473006896934623,0.006012400274062996,0.014687576588036872
1.0073447959203383,0.0280866607277734,-0.0012921882182365914,0.01711698325886342,0.008839299721266725,0.017054907741800785
1.0073918779454687,0.03925806445151868,0.0014918125344171346,0.028584290137595406,0.013622126190108753,0.028490262007234562
1.007438959970599,0.059562255279517966,0.006425779239001846,0.043832242766228824,0.01891454889830348,0.043705937924712744
1.0074860419957294,0.08449757331606145,0.011030584276252092,0.058037587268334905,0.026389832157046628,0.05787104596313672
1.0075331240208598,0.10858230355013457,0.01498738295901634,0.06858033205585247,0.03251039098375258,0.06838693047313153
1.0075802060459902,0.12742598805780986,0.016532451859032047,0.07621925524513734,0.03679846422292287,0.07601126749911968
1.0076272880711206,0.13840784538629322,0.01803473968609424,0.07904744927672683,0.0399893016868051,0.07882874530135767
1.007674370096251,0.14057521646913557,0.017477703752528256,0.0769603579802706,0.04197446904431858,0.07673225445851964
1.0077214521213813,0.1345761316442056,0.0147154019952244,0.07084930100861353,0.04237900543536489,0.07061401139104116
