freq,gls,usurper,pdc_unbiased,shape_periodogram,shift_periodogram
1.0,0.02176245538732735,0.022553361375690924,-0.007335655112181927,0.002112129714691855,-0.007401703460018058
1.0000470820251304,0.05134779247241603,0.029813938672388688,0.016081221596065367,0.006128580387398791,0.0158694133910024
1.0000941640502607,0.09689124580742478,0.03621060937072777,0.05094334186944231,0.014906954069081463,0.05042828071923148
1.0001412460753911,0.14848755125694818,0.0422524779273793,0.08456655871201842,0.024235858996657648,0.08374918910759262
1.0001883281005215,0.19664060203551523,0.04764014259291633,0.10917973127593883,0.03446749852437355,0.10806039733548792
1.0002354101256519,0.23592916525893703,0.05118677598802285,0.12678225514793529,0.04162935741847079,0.12547224652553046
1.0002824921507822,0.26363730657080775,0.05091811685939617,0.13936052532630389,0.04455053550854675,0.1379839632233754
1.0003295741759126,0.2780607972143743,0.051109844062472175,0.14663287491158739,0.04626931157074793,0.14521971876265877
1.000376656201043,0.27778293516045677,0.05181783273278683,0.14742341655727248,0.04692985190999847,0.14599434017880586
1.0004237382261734,0.2619162710265795,0.049950858101715574,0.139633635428265,0.047047399802759605,0.13819232877859128
1.0004708202513037,0.23107843684954268,0.04580341741165934,0.12167319492364326,0.045367237689929805,0.12025691099924099
1.0005179022764341,0.1884924826566669,0.04025962494109524,0.09811663264576473,0.04240304891232736,0.09676247039196788
1.0005649843015645,0.1401213853463462,0.03626254297291754,0.07552593926328457,0.03891676028757009,0.07426020286675891
1.0006120663266949,0.09311329616242185,0.03393399609742464,0.056936636782797936,0.034563825476187734,0.055797330696658924
1.0006591483518252,0.05338098213176131,0.034434649081207476,0.04656239048066332,0.028483363401538807,0.04561327071159243
1.0007062303769556,0.024158292773911582,0.03462687708684887,0.0379052596807291,0.020939593942441232,0.037199304184164804
1.000753312402086,0.006389706849983347,0.03460892042469607,0.024925530867037873,0.012246797990122385,0.024507703812849033
1.0008003944272164,4.4957735270936574e-05,0.03647227261955603,0.013623927240606612,0.004503663208650677,0.013467184091134976
1.0008474764523467,0.004476680458159687,0.03611405890316507,0.005279248516488982,0.002983327977300708,0.00517738895382124
1.000894558477477,0.016631009383087918,0.03903565472315072,0.00604487589630294,0.00614928031766707,0.005837649534871015
1.0009416405026075,0.030279800796216314,0.04678417494912909,0.01614856324889533,0.013336760996010721,0.015698754589448354
1.0009887225277379,0.04019506929021177,0.057015580597405496,0.031662352407458065,0.025858810792373305,0.03079854253623599
1.0010358045528682,0.045271217739530065,0.06545696171255272,0.049643587368788454,0.040887982740016406,0.04830492260726427
1.0010828865779986,0.04665854735345898,0.06851631040695429,0.06394396252727896,0.05598597665868043,0.062159571573326564
1.001129968603129,0.04557434040645729,0.07024511346078806,0.06951556918541625,0.06822036031556088,0.06738620657536996
1.0011770506282593,0.04281463251624272,0.06784101012666974,0.06676401531502141,0.07558360339309451,0.06441934946603353
1.0012241326533897,0.03911406922799136,0.061720499668049336,0.05756222886158259,0.0787873630204976,0.0550998036221583
1.00127121467852,0.035734840091298535,0.053980246613623176,0.04469056838221148,0.07884791457378271,0.04218850306498151
1.0013182967036505,0.034632288517627896,0.04683291421324272,0.03354469161607427,0.07819594372562488,0.031030842635353877
1.0013653787287808,0.03686446430802818,0.0455659194089763,0.03235087082016887,0.07715810354326516,0.029865800517462838
1.0014124607539112,0.040499198873267514,0.04888312350932938,0.04235422606047071,0.07677372431683792,0.03990780588624479
1.0014595427790416,0.04245011553894062,0.05266979583911043,0.05148956578485458,0.07546589149129916,0.049106663029386335
1.001506624804172,0.04142424671447975,0.0534597792486721,0.057489670337512934,0.06952797837110994,0.05529571019167906
1.0015537068293023,0.03772147907862947,0.05178115856503493,0.05838903434484734,0.060446122884902226,0.05646433693399994
1.0016007888544327,0.032149333674356434,0.04911372204170485,0.05286952532393206,0.048073293928705275,0.05131117918429992
1.001647870879563,0.025799799790141527,0.04574633253747822,0.040386054375886556,0.032692452272767625,0.039302748106628024
1.0016949529046935,0.020580986012262138,0.03893938630767767,0.02276083148008517,0.017272899955523287,0.022178970996018645
1.0017420349298238,0.01993155776046648,0.03433868392340048,0.008396000375120035,0.005495276273369956,0.008209199889636642
1.0017891169549542,0.027489951613850306,0.03385643941976399,0.00883020356959996,0.0031624288497202196,0.008720475821320265
1.0018361989800846,0.042074300128446054,0.033914180424663466,0.022145335055818467,0.007687275654885294,0.021878933570163763
1.001883281005215,0.05845891480384451,0.037911742088482116,0.04104344236602053,0.017412402124432194,0.040450738724117946
1.0019303630303453,0.07582159493280267,0.04481486930189771,0.05832937685591873,0.028065033843605515,0.05739343768459699
1.0019774450554757,0.09824195100672209,0.05094490022147051,0.07041397317164165,0.03911498402530341,0.06913976285289035
1.002024527080606,0.1303669711588208,0.049923065770249526,0.07896421651578898,0.048164110418408686,0.07742696538701842
1.0020716091057364,0.17464242099810953,0.04481293030048767,0.08832693698111686,0.05466460903866268,0.08661430861793161
1.0021186911308668,0.22917237164395338,0.045710733212220245,0.11355266104308831,0.05972297916743101,0.11174396480249295
1.0021657731559972,0.2864808872447173,0.050510691991652625,0.14880372324738836,0.06451947901500167,0.14695224299932763
1.0022128551811276,0.335488571803669,0.055672662147121535,0.17945522269565434,0.06891172301506393,0.177590292288388
1.002259937206258,0.3667004160945303,0.05923671771597768,0.20044309409803335,0.07164838618103259,0.1985904727868242
1.0023070192313883,0.37630521047742305,0.060815287011769054,0.20989430295355302,0.07222215468667645,0.20806234975505564
1.0023541012565187,0.3658732131217113,0.06018802729119972,0.20800353236518512,0.07075414979805322,0.20619032882153493
1.002401183281649,0.3393357840705059,0.058566187565858845,0.19716291122807472,0.06685109539036312,0.19538765611611397
1.0024482653067794,0.30043566038503033,0.05624911856686915,0.1783931936762516,0.0597787802812145,0.17671379503672233
1.0024953473319098,0.25183659939415354,0.05216688768713768,0.15384153094853617,0.04857962139061392,0.1523790632374459
1.0025424293570402,0.1956066522565673,0.04435021427156669,0.12081929242955049,0.03430953669414401,0.1197094801125711
1.0025895113821706,0.13475970805500284,0.03319045950034963,0.07564140824241966,0.018612001120228493,0.07500065948841113
1.002636593407301,0.07582916802294695,0.02239591032029381,0.025728531183742454,0.005887326675209907,0.025519681621322992
1.0026836754324313,0.03145358980808763,0.02109264308072843,-0.0040036080406334615,0.0013763981127430252,-0.004047072563852335
1.0027307574575617,0.01779891286180085,0.02823490259116627,-0.006351274616742859,0.008215338050928785,-0.006620551400811661
1.002777839482692,0.04358985242398123,0.027512649075536213,0.006591376950054447,0.02373236649366755,0.005802039558205799
1.0028249215078224,0.1037077589167159,0.028316291640465962,0.04281328660270074,0.036366449747278304,0.041613898991157236
1.0028720035329528,0.18101238562213362,0.03581168336767312,0.0979436666785688,0.04583514682798468,0.09649149427513388
1.0029190855580832,0.25636899888384335,0.04976194041753102,0.15380629462607742,0.05038080918239618,0.15229931080458808
1.0029661675832136,0.31832235074100634,0.06307029010648159,0.19704252226634572,0.04838341822053518,0.19564514784568304
1.003013249608344,0.36361141655314383,0.06899467139800125,0.228525784613192,0.047553582347009286,0.2271936695180005
1.0030603316334743,0.39341420767750745,0.07192733400233088,0.24979870354304085,0.046771337075560186,0.24851520018058415
1.0031074136586047,0.4102870696014962,0.07201146537319565,0.26258314989231946,0.044797508197857314,0.2613568792941736
1.003154495683735,0.41662904201390033,0.07116763217067312,0.266777273312063,0.04230318849800408,0.26560464048902266
1.0032015777088654,0.41405085665469693,0.06910094382835233,0.26326150551395927,0.038877665678189836,0.26215236206495784
1.0032486597339958,0.4030953535584088,0.06583514363296751,0.251751202986526,0.03430685572458504,0.25072741588580855
1.0032957417591262,0.38301151602067063,0.0613103404112515,0.2324239377319079,0.028656032927475244,0.2315177566053586
1.0033428237842565,0.3514583105172215,0.055277205386821966,0.2047530276495091,0.021769025378990087,0.20401385730873803
1.003389905809387,0.3042863356687068,0.04750915677679175,0.16911475512504195,0.014014422355073029,0.16859516165618918
1.0034369878345173,0.2364892670841809,0.038414521707352364,0.12615890065588273,0.00552256641209168,0.12591355927732428
1.0034840698596477,0.14805992805189566,0.028571415002339742,0.07745804013496241,-0.0027743410958274736,0.07750716825456336
1.003531151884778,0.05937981673678241,0.021697226858175888,0.035632586371168055,-0.008613996732013497,0.03589957021391734
1.0035782339099084,0.016571701488668728,0.021300743751337458,0.012038086514572617,-0.00913001150624424,0.012334820570313739
1.0036253159350388,0.04141534161646615,0.02928513592734649,0.014399178728297872,-0.0013923818235214854,0.01443744890384759
1.0036723979601692,0.0978579156313711,0.041514792165055166,0.03595348541122598,0.011651878647914872,0.0355502841504749
1.0037194799852995,0.14599333246590304,0.05567122582340015,0.06503465797160808,0.027346740370749176,0.0641212469626022
1.00376656201043,0.17300879075255565,0.06543365958470994,0.0922030709843016,0.043248704804089134,0.09082008104808341
1.0038136440355603,0.18229222765708752,0.07265712332085177,0.11374971918924169,0.053718954546940076,0.11209937552380633
1.0038607260606907,0.18262972424027749,0.07688954816932486,0.12736778710133306,0.06207392456759097,0.1255266708174369
1.003907808085821,0.18292620727983336,0.07735579101822972,0.13485525602086357,0.07077960401698233,0.13282394884656482
1.0039548901109514,0.18798821740501145,0.07735335037960003,0.13913083302593265,0.07528881364137124,0.13701025178951542
1.0040019721360818,0.19658928748535154,0.07654553814283578,0.1397247738744464,0.0761602956301341,0.13758687177411122
1.0040490541612122,0.20361099360789395,0.07540299793697446,0.1356935801867525,0.07350949407163147,0.13360221489540494
1.0040961361863425,0.20356945018764083,0.07069879452302626,0.1287855413388881,0.07008471432860029,0.12675379212322008
1.004143218211473,0.19261735903368254,0.062082532842966665,0.11776025800915435,0.0650486262264479,0.11582407025109459
1.0041903002366033,0.1692114287165738,0.05202104440481802,0.09836742477706704,0.05719668586874453,0.09659972937917975
1.0042373822617336,0.13469585530973552,0.04100534434050027,0.07519967777083232,0.047129299108713565,0.0736892635748453
1.004284464286864,0.094068350002802,0.030972089675270716,0.051842634052145065,0.03491354624696188,0.05069119796862818
1.0043315463119944,0.0558705414627791,0.02286049386984466,0.03082107495389939,0.021288817394499247,0.030105605348190456
1.0043786283371248,0.029785725493520713,0.018222599711496923,0.019809015244991575,0.00848042196498273,0.019517616668169726
1.0044257103622551,0.022326134922130727,0.016643829777956913,0.01684685304795892,-0.0015359529588320742,0.016888538642685424
1.0044727923873855,0.03362727707623793,0.01819262512667687,0.01768087969631584,-0.006255733421559167,0.01787895177192969
1.004519874412516,0.057935866130881315,0.02227521091217515,0.0238553638180855,-0.00579347435114303,0.02403469085131656
1.0045669564376463,0.08691312585069338,0.028898082404386558,0.038233159934289905,0.000518938756068655,0.0381949675227955
1.0046140384627766,0.11302745450084833,0.03696731316596974,0.05542672474865837,0.01206334112971729,0.055001886461064235
1.004661120487907,0.13143773576861661,0.04406767895132345,0.07126698378066398,0.025124282081683155,0.07042276100539283
1.0047082025130374,0.140315951549541,0.049525379171342025,0.0817840112464661,0.03867607267084285,0.08052860080389143
1.0047552845381678,0.14016084842095028,0.051027756743480576,0.0846685751900148,0.050474621204777276,0.08307042196400989
1.0048023665632981,0.13271042804166153,0.049395625577561046,0.08028160564993014,0.058509152575210346,0.07844832523635305
1.0048494485884285,0.1199532079956697,0.04649135449924685,0.06958311394397716,0.06577005683198744,0.06752374620424437
1.0048965306135589,0.10352759540252561,0.042810201588086724,0.05738407400153901,0.06993462591449391,0.05517798138988438
1.0049436126386893,0.08458770500586026,0.03652823978628006,0.04469505929439128,0.07034925433673632,0.042448072137654225
1.0049906946638196,0.06411017510052013,0.03168797613863496,0.03435472552873721,0.06760301320136915,0.03217014569811145
1.00503777668895,0.043500849939608656,0.027188521281619634,0.022887706523455283,0.06236520964108869,0.020848017562221613
1.0050848587140804,0.02497562650004661,0.023127732450540974,0.013888116903115118,0.053888386202166016,0.012110620752434905
1.0051319407392107,0.011013597455985432,0.0210943046242289,0.011624969459267675,0.04385146835827853,0.010173718861657233
1.0051790227643411,0.003334338693202587,0.020030172639153812,0.009001101837417943,0.03290710467924767,0.007908760844600533
1.0052261047894715,0.0027948227754708652,0.015908510776762745,0.005716764128480125,0.0227894402521802,0.004958833132590612
1.0052731868146019,0.010164673003053454,0.011159750362729527,0.005314070387151807,0.013435091906683209,0.0048658542714819794
1.0053202688397322,0.026566180290056158,0.008029104680010463,0.008193549268036414,0.002987383463346174,0.008089969799766015
1.0053673508648626,0.05291846997433676,0.007304866984062103,0.011498759854167706,-0.0028709964800589715,0.011587712349333786
1.005414432889993,0.08828034555015178,0.010282574960384476,0.017065936640710815,-0.004402084498119019,0.01720269790231386
1.0054615149151234,0.12763762777320273,0.013394121694381199,0.025647230237824777,-0.002739189671135782,0.025724006724465925
1.0055085969402537,0.16155770115500132,0.016227488457890096,0.038076850744054896,0.00362367674048388,0.037936201723175474
1.0055556789653841,0.18078890709766565,0.01935878391878516,0.05135766337998839,0.013346357560983457,0.0508929155792153
1.0056027609905145,0.18307418566708303,0.020851725940414508,0.06056084021799014,0.02399353064929652,0.0597530228316394
1.0056498430156449,0.1741533504439713,0.02169372581206388,0.06655908741414072,0.03210050074030525,0.06549814187353524
1.0056969250407752,0.16242605985016223,0.021520023967013698,0.07063087442771013,0.03879282546249192,0.06936652093762696
1.0057440070659056,0.15418810481596457,0.020225540631859402,0.07107575192890922,0.04179316931294381,0.06972111502904127
1.005791089091036,0.1523552110015489,0.018177583778056138,0.0660360559428213,0.04182133093257319,0.06467753671394716
1.0058381711161664,0.15691036178882456,0.01727167250126297,0.06130313889977103,0.041377248328751344,0.05995542314671894
1.0058852531412967,0.16538784679386007,0.018378277563744758,0.06307528196508604,0.040490977170889925,0.061755577152537926
1.005932335166427,0.17322460684996496,0.017547957028344257,0.06323184659303546,0.03747642458540704,0.062004475255075193
1.0059794171915575,0.17475929729964576,0.01581784493103221,0.05880087400333982,0.03266205005094294,0.05772115958615299
1.0060264992166879,0.16548577922015562,0.014209781452880559,0.05204155960234529,0.027124066064209487,0.05113542073413342
1.0060735812418182,0.1445721481217929,0.01291249951197222,0.04234591607178599,0.02029872789942505,0.04165952610519808
1.0061206632669486,0.11538472372115638,0.011545536581587046,0.03266210113426135,0.012129387870488798,0.032244716765783485
1.006167745292079,0.08342022676517998,0.009375620982783908,0.0259645785337829,0.004670347009424876,0.02579577850520727
1.0062148273172093,0.053714935068683495,0.008953441022241812,0.01794830890199036,-0.000389695537144429,0.01795135526865533
1.0062619093423397,0.029620632829972474,0.00884784940548813,0.006428025048282717,-0.0033127525294809963,0.006534425185798814
1.00630899136747,0.012907514843990737,0.009888537202928812,-0.004503164505502606,-0.0030145827023387787,-0.004400691082112747
1.0063560733926005,0.004292560353454192,0.011604372633800257,-0.010519166817943732,-0.00030087436018206844,-0.010503396056243543
1.0064031554177308,0.0038095921685766332,0.015395159600771917,-0.007972360122875525,0.0030963617311560686,-0.00807073065051312
1.0064502374428612,0.010924293923755681,0.0230724346037985,0.0013341291502741227,0.011452328024029361,0.0009534946434979884
1.0064973194679916,0.02453035587728399,0.029043159501879814,0.011333716656649779,0.020929271026654938,0.010635545186363117
1.006544401493122,0.042966387475684646,0.033467728721130845,0.020787738978896356,0.029835941548694178,0.019795828272815612
1.0065914835182523,0.06411092062196938,0.0346872277548787,0.03329944681240632,0.034909141296967656,0.03214435510864423
1.0066385655433827,0.08556714248621351,0.03685819326016305,0.049462130528264495,0.03696040758644299,0.04824597128399192
1.006685647568513,0.10493697207975199,0.03860544446510482,0.06485229624100503,0.0366901583777481,0.0636496469091368
1.0067327295936435,0.12014720761669652,0.03909619962469229,0.07640706666955516,0.03506852868233642,0.07525778851002389
1.0067798116187738,0.12974860817624662,0.037402051083189794,0.08294186479002422,0.03249112788519585,0.0818724190692628
1.0068268936439042,0.1331160769266914,0.03744584552149218,0.08436945777741765,0.02875563757214452,0.08341358874123977
1.0068739756690346,0.13051634907150206,0.03403984488175462,0.08386978816652868,0.02471335441453616,0.08303773440366441
1.006921057694165,0.12301693370584733,0.028238087956347815,0.08185258015702256,0.020629163667909726,0.08114734591205212
1.0069681397192953,0.11219272060745543,0.021360456269175914,0.07585112215539112,0.015390418183975874,0.07531221857610473
1.0070152217444257,0.09964098937742749,0.015300867411208873,0.06985230351433948,0.01012080674990766,0.0694842303363116
1.007062303769556,0.08648287672211809,0.010345808499029335,0.06302251331950957,0.005513545458107602,0.06280706276252251
1.0071093857946865,0.07315337862299943,0.00788214468315124,0.053521194673379444,0.0014411360721143939,0.053444260164283205
1.0071564678198168,0.05967551136841471,0.006208621619957116,0.042771215350936226,-0.0022363937094362013,0.042821813241214216
1.0072035498449472,0.046352747241279996,0.0037987438088012766,0.029687677967592516,-0.004806004268817885,0.029830933548335985
1.0072506318700776,0.03458526276589038,0.003175690688000639,0.01916866027493343,-0.005123383544281488,0.019328253004185655
1.007297713895208,0.02727830692374265,0.0037938604306451155,0.01473006896934623,-0.004531052590881812,0.014872395024075634
1.0073447959203383,0.0280866607277734,0.0061466531939388695,0.01711698325886342,-0.0026024537045339904,0.01719392637166969
1.0073918779454687,0.03925806445151868,0.012082335945878262,0.028584290137595406,0.002123729193997767,0.028498255854570057
1.007438959970599,0.059562255279517966,0.019076942351929176,0.043832242766228824,0.008319320025518018,0.04353443388740848
1.0074860419957294,0.08449757331606145,0.024958002843619723,0.058037587268334905,0.014543763212237167,0.05753169064018805
1.0075331240208598,0.10858230355013457,0.029120035046475055,0.06858033205585247,0.021031531503568655,0.06786477703185671
1.0075802060459902,0.12742598805780986,0.032419194145462966,0.07621925524513734,0.025260797024119652,0.07537055932387249
1.0076272880711206,0.13840784538629322,0.03369591445149702,0.07904744927672683,0.027760697219155247,0.07812159853157684
1.007674370096251,0.14057521646913557,0.03236552362847527,0.0769603579802706,0.02940721347385022,0.07598378206615466
1.0077214521213813,0.1345761316442056,0.030530630166295328,0.07084930100861353,0.02892506412307708,0.06988703253812004
