freq,gls,usurper,pdc_unbiased,shape_periodogram,shift_periodogram
1.0,0.02176245538732735,0.01996139720126603,-0.007335655112181927,0.005394086535379509,-0.007479195121959516
1.0000470820251304,0.05134779247241603,0.026759425640759532,0.016081221596065367,0.007138027029426978,0.015882416898784828
1.0000941640502607,0.09689124580742478,0.03471374807308405,0.05094334186944231,0.014473851461472653,0.0505393618071372
1.0001412460753911,0.14848755125694818,0.04328245112860826,0.08456655871201842,0.02606410353478223,0.08386540080023633
1.0001883281005215,0.19664060203551523,0.05225127083962205,0.10917973127593883,0.04107188983783223,0.10813722759634765
1.0002354101256519,0.23592916525893703,0.05962645492547647,0.12678225514793529,0.05285383267725467,0.12551121895175923
1.0002824921507822,0.26363730657080775,0.06283663186182671,0.13936052532630389,0.05949745497356547,0.13798444986165753
1.0003295741759126,0.2780607972143743,0.0651530831267379,0.14663287491158739,0.06342826976148264,0.14520251904551187
1.000376656201043,0.27778293516045677,0.06632115646757247,0.14742341655727248,0.06561124921936635,0.1459576987147228
1.0004237382261734,0.2619162710265795,0.06393542222344695,0.139633635428265,0.0661235762963093,0.13814000513882607
1.0004708202513037,0.23107843684954268,0.05854170545854639,0.12167319492364326,0.06388589348940218,0.12017811018927443
1.0005179022764341,0.1884924826566669,0.05137442581808012,0.09811663264576473,0.06002892798847722,0.09665037496304713
1.0005649843015645,0.1401213853463462,0.0457618209002991,0.07552593926328457,0.05573200118462216,0.07411569332270472
1.0006120663266949,0.09311329616242185,0.04183478279063321,0.056936636782797936,0.050058385132648334,0.05563559779222438
1.0006591483518252,0.05338098213176131,0.040435780350077624,0.04656239048066332,0.041971252416159954,0.04545183163539328
1.0007062303769556,0.024158292773911582,0.038394286324930665,0.0379052596807291,0.03191686341114351,0.037047348678799295
1.000753312402086,0.006389706849983347,0.03644392126220584,0.024925530867037873,0.020150645260111382,0.024375913594502144
1.0008003944272164,4.4957735270936574e-05,0.03618424899613538,0.013623927240606612,0.009850265845755211,0.013352786315794852
1.0008474764523467,0.004476680458159687,0.03496321772710793,0.005279248516488982,0.006887945877643315,0.0050908320848874365
1.000894558477477,0.016631009383087918,0.03847781164307891,0.00604487589630294,0.009746166508337628,0.005778904070075501
1.0009416405026075,0.030279800796216314,0.04716003197912058,0.01614856324889533,0.017733293395833086,0.015664855079246646
1.0009887225277379,0.04019506929021177,0.05865010793359082,0.031662352407458065,0.031820884726198984,0.030805502243108903
1.0010358045528682,0.045271217739530065,0.06808872489889557,0.049643587368788454,0.049240109039904716,0.048354719131906226
1.0010828865779986,0.04665854735345898,0.07393047601643203,0.06394396252727896,0.06638016436570286,0.062269744804119426
1.001129968603129,0.04557434040645729,0.0781360120956243,0.06951556918541625,0.07975568034078824,0.06755883966151235
1.0011770506282593,0.04281463251624272,0.07805040166911137,0.06676401531502141,0.08689395611449682,0.06464416653750438
1.0012241326533897,0.03911406922799136,0.07308996005244674,0.05756222886158259,0.08878668020465728,0.055365214112944226
1.00127121467852,0.035734840091298535,0.06512884857302352,0.04469056838221148,0.08728162793494337,0.042478106942844596
1.0013182967036505,0.034632288517627896,0.05749457048457354,0.03354469161607427,0.08529105837864483,0.03133942369900371
1.0013653787287808,0.03686446430802818,0.05460234499214524,0.03235087082016887,0.08360085114027929,0.03018298394313445
1.0014124607539112,0.040499198873267514,0.056675826455591286,0.04235422606047071,0.0837653536271581,0.040216242956045305
1.0014595427790416,0.04245011553894062,0.06041545413652357,0.05148956578485458,0.08458385017353756,0.0493643636639301
1.001506624804172,0.04142424671447975,0.061262019349297064,0.057489670337512934,0.08045510004612255,0.055478648237391175
1.0015537068293023,0.03772147907862947,0.06006758706053504,0.05838903434484734,0.07151401227434455,0.05658421637984984
1.0016007888544327,0.032149333674356434,0.056160816054699476,0.05286952532393206,0.05823977590377959,0.0513657211357598
1.001647870879563,0.025799799790141527,0.04986185502790545,0.040386054375886556,0.04061175635370014,0.039306001896559375
1.0016949529046935,0.020580986012262138,0.03979478601784942,0.02276083148008517,0.022630592124793986,0.02214550950928799
1.0017420349298238,0.01993155776046648,0.033642669916930025,0.008396000375120035,0.009132526967715614,0.008145867077141666
1.0017891169549542,0.027489951613850306,0.032961794455994176,0.00883020356959996,0.006751826828263251,0.008644261342584282
1.0018361989800846,0.042074300128446054,0.034310915933337814,0.022145335055818467,0.01196395131698652,0.021814880634641234
1.001883281005215,0.05845891480384451,0.04092942375272105,0.04104344236602053,0.023202928789639882,0.040412217672613986
1.0019303630303453,0.07582159493280267,0.04910916991744082,0.05832937685591873,0.036547307911161855,0.057361062599934114
1.0019774450554757,0.09824195100672209,0.05517758166378119,0.07041397317164165,0.051490869129731734,0.0690946460951008
1.002024527080606,0.1303669711588208,0.054201417185846236,0.07896421651578898,0.06298243087474625,0.07739743319609749
1.0020716091057364,0.17464242099810953,0.04994960533688635,0.08832693698111686,0.0709675418449022,0.08661083625217579
1.0021186911308668,0.22917237164395338,0.05183156280603514,0.11355266104308831,0.07675154946672152,0.1117971942485037
1.0021657731559972,0.2864808872447173,0.05752925341005461,0.14880372324738836,0.0821214621162093,0.14708398050068994
1.0022128551811276,0.335488571803669,0.06324326088459603,0.17945522269565434,0.08675327717081667,0.17780158469706542
1.002259937206258,0.3667004160945303,0.06677425084241123,0.20044309409803335,0.08931919823714615,0.19885887506534905
1.0023070192313883,0.37630521047742305,0.06766784401958817,0.20989430295355302,0.08915491769570875,0.2083552504323174
1.0023541012565187,0.3658732131217113,0.06605035052945672,0.20800353236518512,0.08641459964051292,0.20647759830975346
1.002401183281649,0.3393357840705059,0.06397146134401713,0.19716291122807472,0.08116233228009258,0.19564092553133888
1.0024482653067794,0.30043566038503033,0.06133368745024159,0.1783931936762516,0.0713603915578656,0.17692404834224518
1.0024953473319098,0.25183659939415354,0.056106730524618356,0.15384153094853617,0.05631673931775612,0.15255045336492873
1.0025424293570402,0.1956066522565673,0.04590717015133731,0.12081929242955049,0.03721811851657734,0.11987094725578966
1.0025895113821706,0.13475970805500284,0.033668185686217,0.07564140824241966,0.015663187442221792,0.07520224562870535
1.002636593407301,0.07582916802294695,0.024436333583060056,0.025728531183742454,-0.00038158755421942124,0.025729423267984507
1.0026836754324313,0.03145358980808763,0.02314749313434214,-0.0040036080406334615,-0.001944352272566123,-0.003949471201003709
1.0027307574575617,0.01779891286180085,0.03018036782069062,-0.006351274616742859,0.013259826942311129,-0.006708743172860732
1.002777839482692,0.04358985242398123,0.034564917057121856,0.006591376950054447,0.03841632285587088,0.00555234555594899
1.0028249215078224,0.1037077589167159,0.04447820168381747,0.04281328660270074,0.05906986773535315,0.04127347043347428
1.0028720035329528,0.18101238562213362,0.05971838632450119,0.0979436666785688,0.07145891980245424,0.09624311317736278
1.0029190855580832,0.25636899888384335,0.07633254240314541,0.15380629462607742,0.07682830279743826,0.1521815999948058
1.0029661675832136,0.31832235074100634,0.08849589675726684,0.19704252226634572,0.07687827800915496,0.19556581764866213
1.003013249608344,0.36361141655314383,0.09451501837200264,0.228525784613192,0.07674759123601843,0.2271619182354499
1.0030603316334743,0.39341420767750745,0.0967280720628705,0.24979870354304085,0.07502021016279622,0.24852330024735783
1.0031074136586047,0.4102870696014962,0.09603561117392767,0.26258314989231946,0.07208406004286255,0.2613712035903895
1.003154495683735,0.41662904201390033,0.09387202540994094,0.266777273312063,0.06814136341593643,0.2656064127033668
1.0032015777088654,0.41405085665469693,0.09013232402525168,0.26326150551395927,0.06302089352309906,0.2621228344828404
1.0032486597339958,0.4030953535584088,0.08479983966835951,0.251751202986526,0.05646009649691816,0.25065202368244316
1.0032957417591262,0.38301151602067063,0.07773075251563775,0.2324239377319079,0.04848628941905369,0.23139163616909172
1.0033428237842565,0.3514583105172215,0.0686745583045226,0.2047530276495091,0.03896828536370021,0.20383903000190756
1.003389905809387,0.3042863356687068,0.05734379010024118,0.16911475512504195,0.028307489370502262,0.16838562028579368
1.0034369878345173,0.2364892670841809,0.04430698424690849,0.12615890065588273,0.01682510427524462,0.12568581100731782
1.0034840698596477,0.14805992805189566,0.03083283904498952,0.07745804013496241,0.005503911606771751,0.07728316856766416
1.003531151884778,0.05937981673678241,0.021680311648866475,0.035632586371168055,-0.002694954441429836,0.03569252548840184
1.0035782339099084,0.016571701488668728,0.020596737572704228,0.012038086514572617,-0.005095645572350256,0.012171846570467127
1.0036253159350388,0.04141534161646615,0.029806857775089957,0.014399178728297872,0.0017773498272488975,0.014345780511934038
1.0036723979601692,0.0978579156313711,0.04558984829856576,0.03595348541122598,0.016391570064433515,0.03550184144828038
1.0037194799852995,0.14599333246590304,0.06512795960148512,0.06503465797160808,0.03319860410355792,0.06415231211880101
1.00376656201043,0.17300879075255565,0.07984825667805823,0.0922030709843016,0.05006998708659971,0.0909431551243612
1.0038136440355603,0.18229222765708752,0.0901346781217172,0.11374971918924169,0.06084833318013862,0.11229689995918794
1.0038607260606907,0.18262972424027749,0.09572262262721767,0.12736778710133306,0.06851447493209242,0.12580088501025752
1.003907808085821,0.18292620727983336,0.09766437250193488,0.13485525602086357,0.0767771918989256,0.1331683610576006
1.0039548901109514,0.18798821740501145,0.09933655265146961,0.13913083302593265,0.08247503575658745,0.13736908538444986
1.0040019721360818,0.19658928748535154,0.09869248730291667,0.1397247738744464,0.0853632158827001,0.13792202034965864
1.0040490541612122,0.20361099360789395,0.0950514056443223,0.1356935801867525,0.08529415324344126,0.13387552631894525
1.0040961361863425,0.20356945018764083,0.08754172969032892,0.1287855413388881,0.083279988854511,0.1269717607614416
1.004143218211473,0.19261735903368254,0.07735845834656134,0.11776025800915435,0.07971969376295808,0.11596596417815852
1.0041903002366033,0.1692114287165738,0.06503653022264679,0.09836742477706704,0.0718350564069958,0.0966605346145168
1.0042373822617336,0.13469585530973552,0.05126022765762891,0.07519967777083232,0.06014353860377271,0.07368900525745904
1.004284464286864,0.094068350002802,0.03746331113619733,0.051842634052145065,0.04607901963795291,0.05063384345983805
1.0043315463119944,0.0558705414627791,0.0251539608371058,0.03082107495389939,0.02981119759415558,0.030016581872498397
1.0043786283371248,0.029785725493520713,0.017148218725338102,0.019809015244991575,0.01405266317968458,0.01942317171540154
1.0044257103622551,0.022326134922130727,0.01365193537876133,0.01684685304795892,0.0016625997814374038,0.01679567060598978
1.0044727923873855,0.03362727707623793,0.014180532885178787,0.01768087969631584,-0.004857411585824566,0.01780613596263123
1.004519874412516,0.057935866130881315,0.01811114490026109,0.0238553638180855,-0.005547534869230851,0.023997145565371403
1.0045669564376463,0.08691312585069338,0.025061298329858234,0.038233159934289905,0.0004911683095397946,0.038205874014826065
1.0046140384627766,0.11302745450084833,0.03375853217954331,0.05542672474865837,0.013007203835521642,0.05506030894418757
1.004661120487907,0.13143773576861661,0.04212013117041307,0.07126698378066398,0.02789992126718128,0.07051809971455149
1.0047082025130374,0.140315951549541,0.04929428135842246,0.0817840112464661,0.04331683907040829,0.080667464349782
1.0047552845381678,0.14016084842095028,0.0515558653111457,0.0846685751900148,0.056361712329030526,0.08325829741332429
1.0048023665632981,0.13271042804166153,0.0502743766416499,0.08028160564993014,0.0655053989360531,0.07866232013127283
1.0048494485884285,0.1199532079956697,0.046844198152858355,0.06958311394397716,0.07282595033763328,0.06777776124949282
1.0048965306135589,0.10352759540252561,0.04363837514808812,0.05738407400153901,0.0768406679664352,0.055454683339523525
1.0049436126386893,0.08458770500586026,0.038310621685633706,0.04469505929439128,0.07666311758090039,0.042733208234317865
1.0049906946638196,0.06411017510052013,0.034462352663162873,0.03435472552873721,0.07266359845246075,0.032462551675138805
1.00503777668895,0.043500849939608656,0.02965391702496411,0.022887706523455283,0.06653689960278367,0.021124803194625
1.0050848587140804,0.02497562650004661,0.02458632315506322,0.013888116903115118,0.05722409721628656,0.012353354707907289
1.0051319407392107,0.011013597455985432,0.02061959778844498,0.011624969459267675,0.045405191221884356,0.010401543796366326
1.0051790227643411,0.003334338693202587,0.01828330292025563,0.009001101837417943,0.032159504475586576,0.008130839897761522
1.0052261047894715,0.0027948227754708652,0.012490659985420578,0.005716764128480125,0.018794382051218257,0.00520643413366222
1.0052731868146019,0.010164673003053454,0.007766964573095095,0.005314070387151807,0.008021165134314272,0.005094984641529207
1.0053202688397322,0.026566180290056158,0.00617642461811946,0.008193549268036414,-0.0012773065457230089,0.00822514979752382
1.0053673508648626,0.05291846997433676,0.007044491012076878,0.011498759854167706,-0.0057620280277737145,0.011650805658467855
1.005414432889993,0.08828034555015178,0.009475695796648108,0.017065936640710815,-0.005788879952695109,0.017216725018049387
1.0054615149151234,0.12763762777320273,0.012486912136967471,0.025647230237824777,-0.0023780943090944942,0.02570225846122171
1.0055085969402537,0.16155770115500132,0.01562072839833904,0.038076850744054896,0.0062622335715449545,0.03789434841132986
1.0055556789653841,0.18078890709766565,0.019742300221527252,0.05135766337998839,0.01804747611936061,0.0508600987600267
1.0056027609905145,0.18307418566708303,0.022059075938355585,0.06056084021799014,0.0305604303364853,0.0597430460004445
1.0056498430156449,0.1741533504439713,0.024550133461674613,0.06655908741414072,0.0414825435037081,0.06547437452146908
1.0056969250407752,0.16242605985016223,0.02585813771763113,0.07063087442771013,0.050858074760095025,0.06932661870108
1.0057440070659056,0.15418810481596457,0.02491385953078714,0.07107575192890922,0.05573599881708854,0.06965874328661785
1.005791089091036,0.1523552110015489,0.02216347297504925,0.0660360559428213,0.056604541107810394,0.06459131602166386
1.0058381711161664,0.15691036178882456,0.02069443017098837,0.06130313889977103,0.05573365264387873,0.059871814439285395
1.0058852531412967,0.16538784679386007,0.02080758461030493,0.06307528196508604,0.05312497799753999,0.06170815972282168
1.005932335166427,0.17322460684996496,0.019274596941078415,0.06323184659303546,0.047959429501256846,0.06198809992509389
1.0059794171915575,0.17475929729964576,0.016093867302623625,0.05880087400333982,0.040483668160808166,0.057735337559756
1.0060264992166879,0.16548577922015562,0.01282463750593737,0.05204155960234529,0.03287977298212628,0.051162879495890295
1.0060735812418182,0.1445721481217929,0.009746977987126204,0.04234591607178599,0.02419336060763042,0.04168887364220648
1.0061206632669486,0.11538472372115638,0.007027415641805489,0.03266210113426135,0.015365648978480025,0.03223830090322663
1.006167745292079,0.08342022676517998,0.005704819344056834,0.0259645785337829,0.008109919054720478,0.025736408049146217
1.0062148273172093,0.053714935068683495,0.007117852077243472,0.01794830890199036,0.003955917572873459,0.01783474100157427
1.0062619093423397,0.029620632829972474,0.009545935999891734,0.006428025048282717,0.002409424354052673,0.006360412496048193
1.00630899136747,0.012907514843990737,0.012662032403714281,-0.004503164505502606,0.0038085829261376874,-0.004604723294898762
1.0063560733926005,0.004292560353454192,0.01662237614386681,-0.010519166817943732,0.0070146559732777725,-0.010705577269795983
1.0064031554177308,0.0038095921685766332,0.022261225900217858,-0.007972360122875525,0.009945752976510434,-0.008239263579432188
1.0064502374428612,0.010924293923755681,0.031489645589424554,0.0013341291502741227,0.01787153566506857,0.0008496035245254784
1.0064973194679916,0.02453035587728399,0.03913577795859487,0.011333716656649779,0.027305906366447447,0.010593873415550747
1.006544401493122,0.042966387475684646,0.04505810487399226,0.020787738978896356,0.036111601357517314,0.019815306434239375
1.0065914835182523,0.06411092062196938,0.047942031145538154,0.03329944681240632,0.04218219869996216,0.0321748877345928
1.0066385655433827,0.08556714248621351,0.05208314388675267,0.049462130528264495,0.04617039513217052,0.04824898332791002
1.006685647568513,0.10493697207975199,0.05437256085567305,0.06485229624100503,0.047680731985154684,0.0636168729547507
1.0067327295936435,0.12014720761669652,0.05450573525185589,0.07640706666955516,0.04711423260069538,0.075196778196474
1.0067798116187738,0.12974860817624662,0.0511615397166855,0.08294186479002422,0.0446221295161027,0.08179593062404739
1.0068268936439042,0.1331160769266914,0.048454312907283685,0.08436945777741765,0.04012925967839014,0.08332962430730402
1.0068739756690346,0.13051634907150206,0.043018711669299846,0.08386978816652868,0.03549189792931411,0.08293958161035286
1.006921057694165,0.12301693370584733,0.03559674909576945,0.08185258015702256,0.029236376574751408,0.08107296468164123
1.0069681397192953,0.11219272060745543,0.026728824260318345,0.07585112215539112,0.021699431885029097,0.07525820751416695
1.0070152217444257,0.09964098937742749,0.018423773094720694,0.06985230351433948,0.014550383431579552,0.0694427721271914
1.007062303769556,0.08648287672211809,0.011934022621289056,0.06302251331950957,0.008951412972565841,0.06276090398781874
1.0071093857946865,0.07315337862299943,0.008081962215299377,0.053521194673379444,0.004721698122301495,0.05337482733180055
1.0071564678198168,0.05967551136841471,0.00477564961620733,0.042771215350936226,0.0007849391214277768,0.042734350808447195
1.0072035498449472,0.046352747241279996,0.0017934100625582592,0.029687677967592516,-0.0013907740622150716,0.029714448169953337
1.0072506318700776,0.03458526276589038,0.00025887698737672086,0.01916866027493343,-0.0017991561056676117,0.019210373576297308
1.007297713895208,0.02727830692374265,0.0003036682167959233,0.01473006896934623,-0.001988595497874955,0.014778549767421987
1.0073447959203383,0.0280866607277734,0.002414877012193771,0.01711698325886342,-0.0006563493400028231,0.017128479868346196
1.0073918779454687,0.03925806445151868,0.008854406065307394,0.028584290137595406,0.004179178836636299,0.028460971668167537
1.007438959970599,0.059562255279517966,0.01740933814909186,0.043832242766228824,0.010794377661929233,0.04352711291755555
1.0074860419957294,0.08449757331606145,0.025344727179577784,0.058037587268334905,0.018757708301064206,0.05752080381966969
1.0075331240208598,0.10858230355013457,0.031570590503804036,0.06858033205585247,0.026409985491950737,0.06786833317648952
1.0075802060459902,0.12742598805780986,0.03622738837551093,0.07621925524513734,0.03193942462951718,0.07537181952906724
1.0076272880711206,0.13840784538629322,0.03873745380599976,0.07904744927672683,0.035266620598661015,0.07812030636123646
1.007674370096251,0.14057521646913557,0.03820219269559923,0.0769603579802706,0.036666127326184,0.07599842693448809
1.0077214521213813,0.1345761316442056,0.03565571334391727,0.07084930100861353,0.035769149372554855,0.06990607422757211
1.0077685341465117,0.12269802495893224,0.031040433959061992,0.062425783036096825,0.03207639634944712,0.061570514975113344
