freq,gls,usurper,pdc_unbiased,shape_periodogram,shift_periodogram
1.0,0.02176245538732735,0.04704294882895826,-0.007335655112181927,0.03025410170581928,-0.012262780840779353
1.0000470820251304,0.05134779247241603,0.08993189441580417,0.016081221596065367,0.06802635417738248,0.004573857063187895
1.0000941640502607,0.09689124580742478,0.13631429995056357,0.05094334186944231,0.11453838794989625,0.03147232625358013
1.0001412460753911,0.14848755125694818,0.18271958784033776,0.08456655871201842,0.15951555577917717,0.05784741301233525
1.0001883281005215,0.19664060203551523,0.2206682120053738,0.10917973127593883,0.19775083995592618,0.07676535255403827
1.0002354101256519,0.23592916525893703,0.2459665461312641,0.12678225514793529,0.22473483259921911,0.09067272129043438
1.0002824921507822,0.26363730657080775,0.26119770424211225,0.13936052532630389,0.24115537634815143,0.10121285982681624
1.0003295741759126,0.2780607972143743,0.2692572330757818,0.14663287491158739,0.24980884520748534,0.1074943223089609
1.000376656201043,0.27778293516045677,0.27115389150009406,0.14742341655727248,0.25160699425198574,0.10806013026691337
1.0004237382261734,0.2619162710265795,0.26418975496985003,0.139633635428265,0.24601684461932774,0.10080066333845294
1.0004708202513037,0.23107843684954268,0.2466648103749901,0.12167319492364326,0.23164061268956826,0.08441674855815344
1.0005179022764341,0.1884924826566669,0.22352075632760487,0.09811663264576473,0.2128133034285818,0.06320709037504411
1.0005649843015645,0.1401213853463462,0.2073040549908163,0.07552593926328457,0.20010956939599617,0.042277816178181216
1.0006120663266949,0.09311329616242185,0.20049530069406774,0.056936636782797936,0.19516382700126209,0.0242877775028297
1.0006591483518252,0.05338098213176131,0.2038473588946134,0.04656239048066332,0.19657053301942112,0.013586438008125513
1.0007062303769556,0.024158292773911582,0.2091695367823545,0.0379052596807291,0.19929914701155518,0.004397752041393003
1.000753312402086,0.006389706849983347,0.2082074966897445,0.024925530867037873,0.1967447229716985,-0.008245877736936821
1.0008003944272164,4.4957735270936574e-05,0.20693281426389015,0.013623927240606612,0.1914591222777047,-0.018701063030114557
1.0008474764523467,0.004476680458159687,0.20650432062317053,0.005279248516488982,0.1927609883649462,-0.027306615261759537
1.000894558477477,0.016631009383087918,0.2176169592193952,0.00604487589630294,0.2051140478065975,-0.028699482107174892
1.0009416405026075,0.030279800796216314,0.2444991658633489,0.01614856324889533,0.23056107472641388,-0.02297437716152673
1.0009887225277379,0.04019506929021177,0.2822764780761862,0.031662352407458065,0.26650857515673126,-0.013506188396784016
1.0010358045528682,0.045271217739530065,0.32124890311983506,0.049643587368788454,0.30542843009837845,-0.0017913028322796897
1.0010828865779986,0.04665854735345898,0.3484222565306677,0.06394396252727896,0.3386220698280308,0.007389077199586813
1.001129968603129,0.04557434040645729,0.36050332638333005,0.06951556918541625,0.3574714527515389,0.010015000928483437
1.0011770506282593,0.04281463251624272,0.3546813779214266,0.06676401531502141,0.3596289715469378,0.0067119984891646925
1.0012241326533897,0.03911406922799136,0.33547820266703676,0.05756222886158259,0.34820877357356544,-0.0010320056415915615
1.00127121467852,0.035734840091298535,0.30905167412428847,0.04469056838221148,0.328335258195448,-0.011020635071836581
1.0013182967036505,0.034632288517627896,0.2889002392457828,0.03354469161607427,0.3136056798233535,-0.019985219035130584
1.0013653787287808,0.03686446430802818,0.2899861111296381,0.03235087082016887,0.31364855599748787,-0.021234047557074916
1.0014124607539112,0.040499198873267514,0.30869098283711116,0.04235422606047071,0.3278049831861935,-0.013370347374110442
1.0014595427790416,0.04245011553894062,0.3325120344033218,0.05148956578485458,0.34758937052870453,-0.007337040737442871
1.001506624804172,0.04142424671447975,0.348608356071231,0.057489670337512934,0.35930289884781375,-0.003087843639163734
1.0015537068293023,0.03772147907862947,0.34956821622762657,0.05838903434484734,0.35669435440395975,-0.001666744113403804
1.0016007888544327,0.032149333674356434,0.33494822763505405,0.05286952532393206,0.33686258463928115,-0.003963669742470918
1.001647870879563,0.025799799790141527,0.3046349214080651,0.040386054375886556,0.30108526475933817,-0.010634264520306396
1.0016949529046935,0.020580986012262138,0.26366214004221333,0.02276083148008517,0.25662407783044305,-0.02085937613984602
1.0017420349298238,0.01993155776046648,0.22896421007012333,0.008396000375120035,0.21944720294078365,-0.028854007667589318
1.0017891169549542,0.027489951613850306,0.21405106228633503,0.00883020356959996,0.20345714577948448,-0.025606175766872567
1.0018361989800846,0.042074300128446054,0.21584441670167923,0.022145335055818467,0.2074418777477754,-0.012884489808450156
1.001883281005215,0.05845891480384451,0.23054562976131926,0.04104344236602053,0.2242948786441574,0.0033457852767508336
1.0019303630303453,0.07582159493280267,0.2480012974715641,0.05832937685591873,0.24070958678472992,0.018176078685829086
1.0019774450554757,0.09824195100672209,0.25545871281574023,0.07041397317164165,0.24629149370873088,0.029608580357327215
1.002024527080606,0.1303669711588208,0.24316876010193467,0.07896421651578898,0.23544904420179014,0.04010847278238549
1.0020716091057364,0.17464242099810953,0.22394342729218356,0.08832693698111686,0.21979198816970338,0.05214881239948059
1.0021186911308668,0.22917237164395338,0.22593195745020872,0.11355266104308831,0.21888094389613819,0.07801592987764581
1.0021657731559972,0.2864808872447173,0.24580083964080687,0.14880372324738836,0.23281637362886337,0.1121164740016287
1.0022128551811276,0.335488571803669,0.2678295617502847,0.17945522269565434,0.24976459581869553,0.14149898415375456
1.002259937206258,0.3667004160945303,0.2816975377434763,0.20044309409803335,0.2599872864463427,0.16205676885475567
1.0023070192313883,0.37630521047742305,0.28465961319509636,0.20989430295355302,0.26053145326994853,0.17186006400471487
1.0023541012565187,0.3658732131217113,0.27711307201578134,0.20800353236518512,0.25188852144416535,0.17091340743465686
1.002401183281649,0.3393357840705059,0.261017838188678,0.19716291122807472,0.23556625045176774,0.16165462096648295
1.0024482653067794,0.30043566038503033,0.23842512366054952,0.1783931936762516,0.21265255080430145,0.14527098479550057
1.0024953473319098,0.25183659939415354,0.20952205606382052,0.15384153094853617,0.18290625656286066,0.12430094168132187
1.0025424293570402,0.1956066522565673,0.17087754180568906,0.12081929242955049,0.1459446371431469,0.09637093604653836
1.0025895113821706,0.13475970805500284,0.11869232199065947,0.07564140824241966,0.09952788184954808,0.05846813461055742
1.002636593407301,0.07582916802294695,0.06474565900008303,0.025728531183742454,0.054515804915589564,0.01634875357628841
1.0026836754324313,0.03145358980808763,0.03668174744303758,-0.0040036080406334615,0.028602426029339365,-0.008701092207502144
1.0027307574575617,0.01779891286180085,0.04051214229659461,-0.006351274616742859,0.030352326098108687,-0.011308107131123
1.002777839482692,0.04358985242398123,0.05557544147497328,0.006591376950054447,0.05253352956656432,-0.002226960149444898
1.0028249215078224,0.1037077589167159,0.08948348781385851,0.04281328660270074,0.09007196887522416,0.027401059559142155
1.0028720035329528,0.18101238562213362,0.14571995820244557,0.0979436666785688,0.142543513578982,0.07393325545316981
1.0029190855580832,0.25636899888384335,0.20517519240907547,0.15380629462607742,0.191476484281984,0.12305187833141777
1.0029661675832136,0.31832235074100634,0.253787473967297,0.19704252226634572,0.22312922441026473,0.16309283943979763
1.003013249608344,0.36361141655314383,0.2830024655130726,0.228525784613192,0.24330343710040933,0.19327943515884707
1.0030603316334743,0.39341420767750745,0.30094918424137446,0.24979870354304085,0.25533185911970974,0.21417384614499155
1.0031074136586047,0.4102870696014962,0.309821458712026,0.26258314989231946,0.2604357421879673,0.227061095835447
1.003154495683735,0.41662904201390033,0.3118476773040823,0.266777273312063,0.2600252057429249,0.23150615589932608
1.0032015777088654,0.41405085665469693,0.30758326882154313,0.26326150551395927,0.25406195946396193,0.22840477700269066
1.0032486597339958,0.4030953535584088,0.2968849689409084,0.251751202986526,0.24232108257046886,0.21758022990214299
1.0032957417591262,0.38301151602067063,0.2794829563915637,0.2324239377319079,0.2247601897012221,0.19944416162874373
1.0033428237842565,0.3514583105172215,0.2547175252030767,0.2047530276495091,0.20110017362552604,0.173804459468941
1.003389905809387,0.3042863356687068,0.22237203785944643,0.16911475512504195,0.17187627732665753,0.14135262676393315
1.0034369878345173,0.2364892670841809,0.18314901631261196,0.12615890065588273,0.1378415475784282,0.10295679018243227
1.0034840698596477,0.14805992805189566,0.13992741980024717,0.07745804013496241,0.10237847506592829,0.05981898432903794
1.003531151884778,0.05937981673678241,0.10890639714330581,0.035632586371168055,0.07905468412168257,0.022095857640682184
1.0035782339099084,0.016571701488668728,0.10707045327078771,0.012038086514572617,0.08288621501163623,-0.001899085599112562
1.0036253159350388,0.04141534161646615,0.14416926365140745,0.014399178728297872,0.12240837096585207,-0.00617311710807178
1.0036723979601692,0.0978579156313711,0.2054914201873538,0.03595348541122598,0.18460818786662023,0.004904823532381671
1.0037194799852995,0.14599333246590304,0.27532825676733924,0.06503465797160808,0.2561590158974501,0.02247346356127599
1.00376656201043,0.17300879075255565,0.33487520230855944,0.0922030709843016,0.3198841763288995,0.040276056221551934
1.0038136440355603,0.18229222765708752,0.3786052825631839,0.11374971918924169,0.3661246315211775,0.05590340506083789
1.0038607260606907,0.18262972424027749,0.40528916646691987,0.12736778710133306,0.39739694455781865,0.06593566782510521
1.003907808085821,0.18292620727983336,0.4176646420594434,0.13485525602086357,0.41598538305681454,0.07143669948982663
1.0039548901109514,0.18798821740501145,0.4215789418935263,0.13913083302593265,0.42194589919470005,0.07531518099190664
1.0040019721360818,0.19658928748535154,0.4171461558102931,0.1397247738744464,0.41754932626849495,0.07660229393293741
1.0040490541612122,0.20361099360789395,0.40600946146179145,0.1356935801867525,0.40299250425002126,0.07424402581891656
1.0040961361863425,0.20356945018764083,0.38546868365103804,0.1287855413388881,0.3793810667396814,0.07014641560141081
1.004143218211473,0.19261735903368254,0.35310162674385553,0.11776025800915435,0.3463137088555587,0.06322222697703199
1.0041903002366033,0.1692114287165738,0.30872522509487976,0.09836742477706704,0.3026270214080082,0.04948150670957633
1.0042373822617336,0.13469585530973552,0.2578156151476604,0.07519967777083232,0.25318532905828134,0.03339126719677937
1.004284464286864,0.094068350002802,0.209792044886989,0.051842634052145065,0.20472477815705886,0.01756373862276295
1.0043315463119944,0.0558705414627791,0.16823903316589564,0.03082107495389939,0.16102637471557404,0.00371547326750415
1.0043786283371248,0.029785725493520713,0.1414422518119268,0.019809015244991575,0.13003596323062572,-0.0020739959491214576
1.0044257103622551,0.022326134922130727,0.12946135417475277,0.01684685304795892,0.11305289575112905,-0.0021725592085021016
1.0044727923873855,0.03362727707623793,0.13062071869535985,0.01768087969631584,0.11092251055882264,-0.000988140402205635
1.004519874412516,0.057935866130881315,0.14258561082732654,0.0238553638180855,0.12113198517910262,0.0034405757564503012
1.0045669564376463,0.08691312585069338,0.16624951413264116,0.038233159934289905,0.14415896241776877,0.013934592687148825
1.0046140384627766,0.11302745450084833,0.19651996657951973,0.05542672474865837,0.17605105511647823,0.02590167236508412
1.004661120487907,0.13143773576861661,0.2256451649866269,0.07126698378066398,0.20905532541950508,0.036523377485387865
1.0047082025130374,0.140315951549541,0.2482510265774725,0.0817840112464661,0.2368708994602964,0.04276291894573031
1.0047552845381678,0.14016084842095028,0.2595276106714796,0.0846685751900148,0.2550739923244617,0.04281365334123592
1.0048023665632981,0.13271042804166153,0.25827066751826094,0.08028160564993014,0.2608314092520154,0.03737736464137809
1.0048494485884285,0.1199532079956697,0.24695983193437224,0.06958311394397716,0.2572974961440844,0.026954039777909264
1.0048965306135589,0.10352759540252561,0.2266077635988363,0.05738407400153901,0.24274614779192855,0.016871798064538552
1.0049436126386893,0.08458770500586026,0.19943824082358233,0.04469505929439128,0.2200140517170318,0.007772539176994982
1.0049906946638196,0.06411017510052013,0.1720460774341426,0.03435472552873721,0.19468993929952755,0.0015974466758369899
1.00503777668895,0.043500849939608656,0.14567285902443958,0.022887706523455283,0.1684526782102317,-0.005476145201018562
1.0050848587140804,0.02497562650004661,0.1199726317019312,0.013888116903115118,0.14072094175207445,-0.009768716871665768
1.0051319407392107,0.011013597455985432,0.10129904624599023,0.011624969459267675,0.11724627754802992,-0.008061303883661922
1.0051790227643411,0.003334338693202587,0.08502634923598851,0.009001101837417943,0.09627791551971057,-0.00714475006146244
1.0052261047894715,0.0027948227754708652,0.06594492662910524,0.005716764128480125,0.0740630509545782,-0.006679867902649798
1.0052731868146019,0.010164673003053454,0.048489688127805554,0.005314070387151807,0.05274802741316688,-0.0035240334199166776
1.0053202688397322,0.026566180290056158,0.03657357992961602,0.008193549268036414,0.036192145446136664,0.002071221486122132
1.0053673508648626,0.05291846997433676,0.030282134605250303,0.011498759854167706,0.026378851630227334,0.006961546762684124
1.005414432889993,0.08828034555015178,0.029866493744559627,0.017065936640710815,0.021318316437675858,0.01329308703836955
1.0054615149151234,0.12763762777320273,0.03347912676912922,0.025647230237824777,0.021266968550336267,0.021767546957352776
1.0055085969402537,0.16155770115500132,0.042215441699460905,0.038076850744054896,0.029078977952351426,0.032742745626134745
1.0055556789653841,0.18078890709766565,0.05268009289624001,0.05135766337998839,0.041782426445679116,0.04376923836552734
1.0056027609905145,0.18307418566708303,0.06074013093120692,0.06056084021799014,0.05515526449231498,0.0506825428791458
1.0056498430156449,0.1741533504439713,0.06563485340950627,0.06655908741414072,0.06389777560791968,0.05519840896677569
1.0056969250407752,0.16242605985016223,0.06856790536495308,0.07063087442771013,0.07054193005484406,0.058156661790552594
1.0057440070659056,0.15418810481596457,0.07063525772479023,0.07107575192890922,0.07544659535114698,0.05780588547387112
1.005791089091036,0.1523552110015489,0.0702513710654974,0.0660360559428213,0.07726969462813697,0.05251460848803389
1.0058381711161664,0.15691036178882456,0.0702274481884366,0.06130313889977103,0.0783122797790391,0.047653389707857506
1.0058852531412967,0.16538784679386007,0.07500292939334771,0.06307528196508604,0.08136909497837663,0.04891494376446693
1.005932335166427,0.17322460684996496,0.07806854989104307,0.06323184659303546,0.0839754017971719,0.048648049003289444
1.0059794171915575,0.17475929729964576,0.0767259140088903,0.05880087400333982,0.0822085415226464,0.044539781336738395
1.0060264992166879,0.16548577922015562,0.0719469722411771,0.05204155960234529,0.07631682887559918,0.038799185552423364
1.0060735812418182,0.1445721481217929,0.06437331382640098,0.04234591607178599,0.06700830048835568,0.030722396587942662
1.0061206632669486,0.11538472372115638,0.058075516210850234,0.03266210113426135,0.056988689214242355,0.022793188294104517
1.006167745292079,0.08342022676517998,0.0517136283031969,0.0259645785337829,0.04748252130990547,0.017744820388065314
1.0062148273172093,0.053714935068683495,0.048418508970346566,0.01794830890199036,0.041435243447593,0.010829745300788335
1.0062619093423397,0.029620632829972474,0.04449948869665053,0.006428025048282717,0.03694639624231824,0.00020360427155074418
1.00630899136747,0.012907514843990737,0.04102956987855707,-0.004503164505502606,0.03532446343033358,-0.010312666525994822
1.0063560733926005,0.004292560353454192,0.041945341630006946,-0.010519166817943732,0.03915172601338998,-0.016885886506517997
1.0064031554177308,0.0038095921685766332,0.04879549493139863,-0.007972360122875525,0.047737330762061304,-0.015805377483014978
1.0064502374428612,0.010924293923755681,0.0675781459460268,0.0013341291502741227,0.06861914815409341,-0.010102810681304857
1.0064973194679916,0.02453035587728399,0.08932112382343912,0.011333716656649779,0.09356518954927244,-0.004379843380702125
1.006544401493122,0.042966387475684646,0.10965181268036787,0.020787738978896356,0.11810759609611252,0.0008964780909551189
1.0065914835182523,0.06411092062196938,0.1278485906389973,0.03329944681240632,0.13757121264025204,0.01010535887466415
1.0066385655433827,0.08556714248621351,0.1461532443791195,0.049462130528264495,0.1537331794963994,0.023579522439474546
1.006685647568513,0.10493697207975199,0.1619886190125281,0.06485229624100503,0.1659747117395241,0.03701278116947626
1.0067327295936435,0.12014720761669652,0.17174718228615343,0.07640706666955516,0.17205577917159878,0.04765216707841097
1.0067798116187738,0.12974860817624662,0.17431420377316353,0.08294186479002422,0.1703892433599696,0.054494601120048364
1.0068268936439042,0.1331160769266914,0.17057519402334892,0.08436945777741765,0.16095828058295558,0.057421486953227394
1.0068739756690346,0.13051634907150206,0.16024829861120535,0.08386978816652868,0.14662432336110517,0.05918563036775171
1.006921057694165,0.12301693370584733,0.14292616292208202,0.08185258015702256,0.12841773698017298,0.06005190357169865
1.0069681397192953,0.11219272060745543,0.12120119660082752,0.07585112215539112,0.10694790966711044,0.0574889555932772
1.0070152217444257,0.09964098937742749,0.09841490663513634,0.06985230351433948,0.08365917364565971,0.05526780557170168
1.007062303769556,0.08648287672211809,0.07817647149923095,0.06302251331950957,0.06295341303648844,0.05185013944740643
1.0071093857946865,0.07315337862299943,0.061962170121032334,0.053521194673379444,0.04571187118554081,0.04526367639037164
1.0071564678198168,0.05967551136841471,0.050175753683516296,0.042771215350936226,0.03296959855333898,0.036736106592619826
1.0072035498449472,0.046352747241279996,0.0394117642191068,0.029687677967592516,0.02347182515316895,0.02538937978853754
1.0072506318700776,0.03458526276589038,0.03366913519404071,0.01916866027493343,0.019534489668933095,0.01566308593626729
1.007297713895208,0.02727830692374265,0.03351047038874169,0.01473006896934623,0.020475152879753454,0.011128593303944136
1.0073447959203383,0.0280866607277734,0.04152366731855003,0.01711698325886342,0.027945419741323172,0.0122449465828999
1.0073918779454687,0.03925806445151868,0.06151655212773485,0.028584290137595406,0.04551169863797707,0.020658103552854752
1.007438959970599,0.059562255279517966,0.08685583444960289,0.043832242766228824,0.06751552922921662,0.03211011043641951
1.0074860419957294,0.08449757331606145,0.11091014496438054,0.058037587268334905,0.08933300546597245,0.042625248542278484
1.0075331240208598,0.10858230355013457,0.12969545098333823,0.06858033205585247,0.1086836077924154,0.04997322410354426
1.0075802060459902,0.12742598805780986,0.1413530559226186,0.07621925524513734,0.12066069766169696,0.055663812419317775
1.0076272880711206,0.13840784538629322,0.1432624166058444,0.07904744927672683,0.12425140772987316,0.05791314797106502
1.007674370096251,0.14057521646913557,0.13742960409679825,0.0769603579802706,0.12239763220857527,0.05612583461828677
1.0077214521213813,0.1345761316442056,0.12616434203558405,0.07084930100861353,0.11413609237476464,0.05135595887381275
1.0077685341465117,0.12269802495893224,0.10913537457710636,0.062425783036096825,0.09994757920528334,0.0452621261145104
1.007815616171642,0.10844877640211482,0.09071327290902086,0.054884533548136764,0.08302505625216984,0.04052346920805881
