freq,gls,usurper,pdc_unbiased,shape_periodogram,shift_periodogram
1.0,0.02176245538732735,0.03888327810209728,-0.007335655112181927,0.026570505992581893,-0.01046619960466185
1.0000470820251304,0.05134779247241603,0.06972913736148603,0.016081221596065367,0.05013256700690972,0.009979903764540122
1.0000941640502607,0.09689124580742478,0.1048335833094557,0.05094334186944231,0.08265141214870138,0.040857012132710896
1.0001412460753911,0.14848755125694818,0.14135135958794867,0.08456655871201842,0.11894866125981536,0.0703507947440109
1.0001883281005215,0.19664060203551523,0.17402636038751432,0.10917973127593883,0.15502302744656032,0.09121925136568071
1.0002354101256519,0.23592916525893703,0.1980794993798972,0.12678225514793529,0.18267577053500172,0.10622556448870049
1.0002824921507822,0.26363730657080775,0.21347830872554188,0.13936052532630389,0.20094934548594384,0.11726672575615651
1.0003295741759126,0.2780607972143743,0.22293953562423152,0.14663287491158739,0.2122705249126554,0.12364865606582014
1.000376656201043,0.27778293516045677,0.2263487474842963,0.14742341655727248,0.21762868594922588,0.12396570031041064
1.0004237382261734,0.2619162710265795,0.22175079384649912,0.139633635428265,0.21669899390430114,0.11605396871184823
1.0004708202513037,0.23107843684954268,0.20873767172425242,0.12167319492364326,0.2079611227786597,0.09849682450445167
1.0005179022764341,0.1884924826566669,0.19115795679308134,0.09811663264576473,0.19526952491985503,0.07575815305311805
1.0005649843015645,0.1401213853463462,0.17848907970107197,0.07552593926328457,0.18614229464447554,0.053783811269303546
1.0006120663266949,0.09311329616242185,0.17187181043244706,0.056936636782797936,0.18085437910134783,0.03553859393089337
1.0006591483518252,0.05338098213176131,0.17185383210611954,0.04656239048066332,0.17780695689326553,0.025394621897000022
1.0007062303769556,0.024158292773911582,0.1716749091594414,0.0379052596807291,0.17331199793631058,0.01717536833405831
1.000753312402086,0.006389706849983347,0.16730894450853398,0.024925530867037873,0.16356401601691042,0.005249396528193434
1.0008003944272164,4.4957735270936574e-05,0.16330609210913127,0.013623927240606612,0.152984506182029,-0.004838786938069314
1.0008474764523467,0.004476680458159687,0.16087490275417257,0.005279248516488982,0.15067980600202638,-0.012938595946444545
1.000894558477477,0.016631009383087918,0.169354673872605,0.00604487589630294,0.15912913837295706,-0.013210183622926483
1.0009416405026075,0.030279800796216314,0.19038072830823324,0.01614856324889533,0.17938346341174755,-0.005523490407334862
1.0009887225277379,0.04019506929021177,0.21954873482708723,0.031662352407458065,0.20909191047907139,0.006571605318521551
1.0010358045528682,0.045271217739530065,0.2477058551884596,0.049643587368788454,0.24216617168087515,0.02098538916377833
1.0010828865779986,0.04665854735345898,0.2687619992384385,0.06394396252727896,0.27028595154275215,0.03245843049541077
1.001129968603129,0.04557434040645729,0.27892512383987994,0.06951556918541625,0.2864886454334594,0.036398997355325126
1.0011770506282593,0.04281463251624272,0.275379466787612,0.06676401531502141,0.2879945493966898,0.0333609060900826
1.0012241326533897,0.03911406922799136,0.260233042362792,0.05756222886158259,0.27721681757637257,0.025040020322162126
1.00127121467852,0.035734840091298535,0.23881853755600016,0.04469056838221148,0.2598433953877195,0.013788087960801453
1.0013182967036505,0.034632288517627896,0.2221032575070795,0.03354469161607427,0.24652292587541194,0.003940120345998562
1.0013653787287808,0.03686446430802818,0.22037727421677697,0.03235087082016887,0.2444659227237364,0.0029675845343432755
1.0014124607539112,0.040499198873267514,0.23247107486231647,0.04235422606047071,0.2541557399367608,0.012065628742588383
1.0014595427790416,0.04245011553894062,0.2497671412093033,0.05148956578485458,0.2696577333405018,0.019638661953093703
1.001506624804172,0.04142424671447975,0.2618354207320714,0.057489670337512934,0.27894309012451385,0.02476278589184927
1.0015537068293023,0.03772147907862947,0.26393337542098494,0.05838903434484734,0.2762114374454963,0.026015129214636924
1.0016007888544327,0.032149333674356434,0.25344460721956263,0.05286952532393206,0.25984070885710153,0.022223414373278166
1.001647870879563,0.025799799790141527,0.22989454947152763,0.040386054375886556,0.230111244124798,0.012934932428080286
1.0016949529046935,0.020580986012262138,0.19752237923411872,0.02276083148008517,0.1937816331279022,-0.0006000128550475579
1.0017420349298238,0.01993155776046648,0.1722018369217936,0.008396000375120035,0.1644837198109142,-0.011505373751457701
1.0017891169549542,0.027489951613850306,0.1635340641686283,0.00883020356959996,0.1553671526483535,-0.009947529402445893
1.0018361989800846,0.042074300128446054,0.1674530723370657,0.022145335055818467,0.16283165611613104,0.002537771866232741
1.001883281005215,0.05845891480384451,0.18283825523623326,0.04104344236602053,0.18192549725704185,0.019329019770040368
1.0019303630303453,0.07582159493280267,0.19968900527601885,0.05832937685591873,0.2023366373848249,0.03448652568848759
1.0019774450554757,0.09824195100672209,0.20753826088496538,0.07041397317164165,0.2169173070459432,0.04515128018855588
1.002024527080606,0.1303669711588208,0.19986735808713377,0.07896421651578898,0.21707430218537643,0.053870910817415386
1.0020716091057364,0.17464242099810953,0.18737407315039709,0.08832693698111686,0.2112959256652905,0.064065902971697
1.0021186911308668,0.22917237164395338,0.18972834991392767,0.11355266104308831,0.2133985074905235,0.08964183376311585
1.0021657731559972,0.2864808872447173,0.2039851738458404,0.14880372324738836,0.22423427877061677,0.12478079688605062
1.0022128551811276,0.335488571803669,0.21896693234111658,0.17945522269565434,0.23613730270611719,0.15538245930055658
1.002259937206258,0.3667004160945303,0.22744926676436836,0.20044309409803335,0.2422209390846156,0.17665775008069073
1.0023070192313883,0.37630521047742305,0.22764582143576578,0.20989430295355302,0.24025534512220134,0.18660682092756217
1.0023541012565187,0.3658732131217113,0.22016185777872307,0.20800353236518512,0.23079861110503558,0.1853290040688199
1.002401183281649,0.3393357840705059,0.2075440072248011,0.19716291122807472,0.21546183076474323,0.17530354992102345
1.0024482653067794,0.30043566038503033,0.1905612139186975,0.1783931936762516,0.19307767668745648,0.15789380855959637
1.0024953473319098,0.25183659939415354,0.16754630646592153,0.15384153094853617,0.16224088097236716,0.13570660689074573
1.0025424293570402,0.1956066522565673,0.13480412589011234,0.12081929242955049,0.12331435574780206,0.1062881987601451
1.0025895113821706,0.13475970805500284,0.09315563630806889,0.07564140824241966,0.07527395595859229,0.06634687793931991
1.002636593407301,0.07582916802294695,0.054029249138485995,0.025728531183742454,0.03217754690218654,0.021707194282757785
1.0026836754324313,0.03145358980808763,0.034317405312620404,-0.0040036080406334615,0.014152854071691229,-0.005669150685792421
1.0027307574575617,0.01779891286180085,0.0396422062303653,-0.006351274616742859,0.027375645194563158,-0.00958521445417927
1.002777839482692,0.04358985242398123,0.05730856433706875,0.006591376950054447,0.06019664724103855,-0.0006613740288933836
1.0028249215078224,0.1037077589167159,0.09274949177824285,0.04281328660270074,0.10160061467058891,0.03052885901651736
1.0028720035329528,0.18101238562213362,0.14162729566408222,0.0979436666785688,0.1449857856627137,0.08094924768428939
1.0029190855580832,0.25636899888384335,0.18670387622582435,0.15380629462607742,0.18060707314258356,0.13392956777164622
1.0029661675832136,0.31832235074100634,0.21925414105413718,0.19704252226634572,0.20291693247714448,0.17617717353455598
1.003013249608344,0.36361141655314383,0.23863461562415014,0.228525784613192,0.2160190665586556,0.20758505065948027
1.0030603316334743,0.39341420767750745,0.24927853726184146,0.24979870354304085,0.22211512133946082,0.2291563445218021
1.0031074136586047,0.4102870696014962,0.2532780574342792,0.26258314989231946,0.22358986603230194,0.2422981320957695
1.003154495683735,0.41662904201390033,0.2524767908924627,0.266777273312063,0.22096288389549645,0.2467925203219399
1.0032015777088654,0.41405085665469693,0.24723680617164231,0.26326150551395927,0.21430018914051305,0.24355137900559037
1.0032486597339958,0.4030953535584088,0.23737476489839618,0.251751202986526,0.20329114433959689,0.23237867142547014
1.0032957417591262,0.38301151602067063,0.22255040787912334,0.2324239377319079,0.18779076710269058,0.2136186944341789
1.0033428237842565,0.3514583105172215,0.20220642309913864,0.2047530276495091,0.16753444154185113,0.18696485418629927
1.003389905809387,0.3042863356687068,0.17599589070991845,0.16911475512504195,0.14302693000063438,0.15300432752715382
1.0034369878345173,0.2364892670841809,0.1447435444872824,0.12615890065588273,0.11492025072618611,0.11253821687728179
1.0034840698596477,0.14805992805189566,0.11121991864108882,0.07745804013496241,0.08579643906020654,0.06696179034294018
1.003531151884778,0.05937981673678241,0.08822827919542824,0.035632586371168055,0.06621319674731442,0.027524574391276247
1.0035782339099084,0.016571701488668728,0.0881800038201815,0.012038086514572617,0.06700144208292923,0.003942543503536189
1.0036253159350388,0.04141534161646615,0.11753349537322709,0.014399178728297872,0.09534702858825132,0.0028992572108169625
1.0036723979601692,0.0978579156313711,0.16588437849936027,0.03595348541122598,0.14297430963061603,0.018796861311341662
1.0037194799852995,0.14599333246590304,0.2217014735360764,0.06503465797160808,0.1963716362605123,0.04198360983739102
1.00376656201043,0.17300879075255565,0.2670250682539161,0.0922030709843016,0.24284776180975348,0.0646724158061769
1.0038136440355603,0.18229222765708752,0.2975288786716211,0.11374971918924169,0.27378457016183466,0.08382148114395209
1.0038607260606907,0.18262972424027749,0.3135356752613684,0.12736778710133306,0.2930172841519556,0.0962168772530413
1.003907808085821,0.18292620727983336,0.31992177819259193,0.13485525602086357,0.30402182661844906,0.10308867350055502
1.0039548901109514,0.18798821740501145,0.32108369863014297,0.13913083302593265,0.30760944268511253,0.10728213097189929
1.0040019721360818,0.19658928748535154,0.31570922249553907,0.1397247738744464,0.3045092347821156,0.10818045773382662
1.0040490541612122,0.20361099360789395,0.304516231406267,0.1356935801867525,0.2960296880836973,0.10468691237260429
1.0040961361863425,0.20356945018764083,0.2864652984704227,0.1287855413388881,0.2814488187227804,0.09877700805452
1.004143218211473,0.19261735903368254,0.26206939841602367,0.11776025800915435,0.2612399481407279,0.08922137622258995
1.0041903002366033,0.1692114287165738,0.22947167413948127,0.09836742477706704,0.23238784959921857,0.07211542914573645
1.0042373822617336,0.13469585530973552,0.1923491132103716,0.07519967777083232,0.19761886026088302,0.052179468121022005
1.004284464286864,0.094068350002802,0.15633917578950207,0.051842634052145065,0.16238071863230397,0.03252026487702722
1.0043315463119944,0.0558705414627791,0.12449566575922195,0.03082107495389939,0.12869888440439622,0.01533720534640571
1.0043786283371248,0.029785725493520713,0.10407902365802991,0.019809015244991575,0.10303460823796404,0.007378413986981277
1.0044257103622551,0.022326134922130727,0.095182971947313,0.01684685304795892,0.08775303589805108,0.006249869967560167
1.0044727923873855,0.03362727707623793,0.09645371634534622,0.01768087969631584,0.08425705179669986,0.007499138581404279
1.004519874412516,0.057935866130881315,0.10624367645180262,0.0238553638180855,0.09104878285247589,0.012846254441818939
1.0045669564376463,0.08691312585069338,0.12497098251117578,0.038233159934289905,0.10938581349758436,0.025037305280160498
1.0046140384627766,0.11302745450084833,0.14925612357166937,0.05542672474865837,0.13722048395512124,0.03903028387809769
1.004661120487907,0.13143773576861661,0.17327555685036164,0.07126698378066398,0.16742070693282662,0.05155828050384955
1.0047082025130374,0.140315951549541,0.19333331461767814,0.0817840112464661,0.1944980190171146,0.0592204446106548
1.0047552845381678,0.14016084842095028,0.2033126734762211,0.0846685751900148,0.21363900445388567,0.06007548747917408
1.0048023665632981,0.13271042804166153,0.20311775102829255,0.08028160564993014,0.2228066692511853,0.0545900189186189
1.0048494485884285,0.1199532079956697,0.1950164542517596,0.06958311394397716,0.22417470419704622,0.04348836279636901
1.0048965306135589,0.10352759540252561,0.18284477037215568,0.05738407400153901,0.21677097544965046,0.03186442309314391
1.0049436126386893,0.08458770500586026,0.16591901805013212,0.04469505929439128,0.20189111441376914,0.02067738774997655
1.0049906946638196,0.06411017510052013,0.14898513343727596,0.03435472552873721,0.18325122685029996,0.012405627184952734
1.00503777668895,0.043500849939608656,0.1301381017947338,0.022887706523455283,0.16181402935952427,0.0034081925251248178
1.0050848587140804,0.02497562650004661,0.10927616636008367,0.013888116903115118,0.13706070222866207,-0.0026386544668964
1.0051319407392107,0.011013597455985432,0.0920417201535084,0.011624969459267675,0.11374145250706696,-0.0020838702732217536
1.0051790227643411,0.003334338693202587,0.0761419600949582,0.009001101837417943,0.08981438524030319,-0.0018195434570106106
1.0052261047894715,0.0027948227754708652,0.0565716195780016,0.005716764128480125,0.06324394749102892,-0.0018970451720151558
1.0052731868146019,0.010164673003053454,0.03942407922415954,0.005314070387151807,0.03961238427047863,0.0005355709464793206
1.0053202688397322,0.026566180290056158,0.027757767432088045,0.008193549268036414,0.022080452740845507,0.005493605391033297
1.0053673508648626,0.05291846997433676,0.021510735521600974,0.011498759854167706,0.012321097647809153,0.009942545503066608
1.005414432889993,0.08828034555015178,0.01934869099787288,0.017065936640710815,0.00829532668512606,0.01595148056901109
1.0054615149151234,0.12763762777320273,0.021359640946576375,0.025647230237824777,0.010093248780114087,0.024257409422864362
1.0055085969402537,0.16155770115500132,0.0286801745103216,0.038076850744054896,0.020850087175590153,0.035320906535569824
1.0055556789653841,0.18078890709766565,0.038989436493448625,0.05135766337998839,0.03698239752456437,0.04661107098995196
1.0056027609905145,0.18307418566708303,0.04726874132606679,0.06056084021799014,0.05416218880520169,0.053755192810738234
1.0056498430156449,0.1741533504439713,0.05448935870236507,0.06655908741414072,0.06865597917165862,0.05804997876200325
1.0056969250407752,0.16242605985016223,0.060269878315851955,0.07063087442771013,0.08129012709668867,0.06065922280243817
1.0057440070659056,0.15418810481596457,0.06301270902642994,0.07107575192890922,0.09014947105582062,0.06009108231368174
1.005791089091036,0.1523552110015489,0.0623340753023806,0.0660360559428213,0.09421552422252309,0.054590819672006484
1.0058381711161664,0.15691036178882456,0.06279170967596484,0.06130313889977103,0.09576925096269882,0.04968278806087475
1.0058852531412967,0.16538784679386007,0.06661093281428707,0.06307528196508604,0.0964893183073027,0.05137115409708803
1.005932335166427,0.17322460684996496,0.06864415938516469,0.06323184659303546,0.09482012760011882,0.05171922811975271
1.0059794171915575,0.17475929729964576,0.06622966729689513,0.05880087400333982,0.08880233966471067,0.0479860457098082
1.0060264992166879,0.16548577922015562,0.06116780573428102,0.05204155960234529,0.08022578666853494,0.04223475841596863
1.0060735812418182,0.1445721481217929,0.05447890500048407,0.04234591607178599,0.06901996056357786,0.03388039078928808
1.0061206632669486,0.11538472372115638,0.04892886229052913,0.03266210113426135,0.05825783016690238,0.02550740781538131
1.006167745292079,0.08342022676517998,0.04578970227063692,0.0259645785337829,0.0496061475475265,0.0198703467256364
1.0062148273172093,0.053714935068683495,0.046105426437880896,0.01794830890199036,0.04440571924921744,0.012519081438785273
1.0062619093423397,0.029620632829972474,0.04664921638051459,0.006428025048282717,0.04144919936974152,0.0014225477287764833
1.00630899136747,0.012907514843990737,0.04598081417991273,-0.004503164505502606,0.039341818877426424,-0.009185986382021992
1.0063560733926005,0.004292560353454192,0.0478670399793779,-0.010519166817943732,0.04049376950388373,-0.015301182371918232
1.0064031554177308,0.0038095921685766332,0.05282485151712183,-0.007972360122875525,0.04406236590309962,-0.013200354269470667
1.0064502374428612,0.010924293923755681,0.06615504536568419,0.0013341291502741227,0.05675067085549136,-0.005476107255933655
1.0064973194679916,0.02453035587728399,0.08128440643955497,0.011333716656649779,0.07344732096513142,0.0024694854113618847
1.006544401493122,0.042966387475684646,0.0950799813023567,0.020787738978896356,0.09022243934904099,0.009884824193360295
1.0065914835182523,0.06411092062196938,0.10674637968080476,0.03329944681240632,0.10413698636235327,0.020723614335549614
1.0066385655433827,0.08556714248621351,0.11970705239486622,0.049462130528264495,0.11674910367892279,0.035414409129238454
1.006685647568513,0.10493697207975199,0.12939208708109848,0.06485229624100503,0.12639934944990303,0.049732319588509065
1.0067327295936435,0.12014720761669652,0.1341429914430778,0.07640706666955516,0.13140873288853244,0.06076876696176774
1.0067798116187738,0.12974860817624662,0.1328511833752854,0.08294186479002422,0.13021571157429052,0.06746792947561754
1.0068268936439042,0.1331160769266914,0.12787579960819415,0.08436945777741765,0.12305483341602871,0.0696967046786193
1.0068739756690346,0.13051634907150206,0.11872398294890922,0.08386978816652868,0.11283162164007354,0.07033337508933032
1.006921057694165,0.12301693370584733,0.10488945614215954,0.08185258015702256,0.09826041333036845,0.06994567858448487
1.0069681397192953,0.11219272060745543,0.08781966866697537,0.07585112215539112,0.08112159035163141,0.06588904493640137
1.0070152217444257,0.09964098937742749,0.07019207485783305,0.06985230351433948,0.06352145369565572,0.06192405508178406
1.007062303769556,0.08648287672211809,0.05570308654804981,0.06302251331950957,0.04906047973285527,0.05679929014178572
1.0071093857946865,0.07315337862299943,0.04461684837852118,0.053521194673379444,0.03769396877870302,0.04867843751071076
1.0071564678198168,0.05967551136841471,0.036453114987969416,0.042771215350936226,0.029377478956228734,0.0389740054886338
1.0072035498449472,0.046352747241279996,0.03022472196710191,0.029687677967592516,0.02436075576902147,0.026570311767802033
1.0072506318700776,0.03458526276589038,0.027870913983569466,0.01916866027493343,0.023356643007948957,0.016241355756613913
1.007297713895208,0.02727830692374265,0.03010505770503496,0.01473006896934623,0.02518803793951739,0.011614188147670885
1.0073447959203383,0.0280866607277734,0.038794990974197086,0.01711698325886342,0.032634166164712174,0.013096650599680291
1.0073918779454687,0.03925806445151868,0.057375258547150615,0.028584290137595406,0.04881487435197931,0.022569454343433066
1.007438959970599,0.059562255279517966,0.08066562787600882,0.043832242766228824,0.06866370495536847,0.03540281201558201
1.0074860419957294,0.08449757331606145,0.10293920229884125,0.058037587268334905,0.08973416847217604,0.047116277870142886
1.0075331240208598,0.10858230355013457,0.1209683347622707,0.06858033205585247,0.1082925973929618,0.05552892622620178
1.0075802060459902,0.12742598805780986,0.13177019487280994,0.07621925524513734,0.1199731406302666,0.061862812345798435
1.0076272880711206,0.13840784538629322,0.13442203905472364,0.07904744927672683,0.12414607835675996,0.06423289156170063
1.007674370096251,0.14057521646913557,0.12876048645098384,0.0769603579802706,0.12212552291361599,0.06236464237883984
1.0077214521213813,0.1345761316442056,0.11711553830432936,0.07084930100861353,0.11389420831039498,0.05716541125334194
1.0077685341465117,0.12269802495893224,0.10050316457373314,0.062425783036096825,0.09953601118622653,0.05037221366836751
1.007815616171642,0.10844877640211482,0.08357120452350393,0.054884533548136764,0.08166989081995357,0.044902895116879504
