freq,gls,usurper,pdc_unbiased,shape_periodogram,shift_periodogram
1.0,0.02176245538732735,-5.797194113208377e-05,-0.007335655112181927,-0.0005667696468561368,-0.007317433542590297
1.0000470820251304,0.05134779247241603,0.0007798280390278338,0.016081221596065367,-0.0037371233489303084,0.016177400052069326
1.0000941640502607,0.09689124580742478,0.007508207241963674,0.05094334186944231,-0.0050065018497971025,0.05106126760428255
1.0001412460753911,0.14848755125694818,0.01644513771709977,0.08456655871201842,0.0006162933350827099,0.08451857075407403
1.0001883281005215,0.19664060203551523,0.0251687077700153,0.10917973127593883,0.010289909875306499,0.10886900265358515
1.0002354101256519,0.23592916525893703,0.032401566217109275,0.12678225514793529,0.017247706870520706,0.12629418885028454
1.0002824921507822,0.26363730657080775,0.03382408143067736,0.13936052532630389,0.020664847146046383,0.1387902528225301
1.0003295741759126,0.2780607972143743,0.034676354181794926,0.14663287491158739,0.022767827011506137,0.14601413845884736
1.000376656201043,0.27778293516045677,0.03541296919776244,0.14742341655727248,0.024536053333923592,0.14676404737219675
1.0004237382261734,0.2619162710265795,0.03311579197182231,0.139633635428265,0.02575322256412531,0.13894443925528394
1.0004708202513037,0.23107843684954268,0.028772817083850356,0.12167319492364326,0.025344051892566645,0.12098950028246992
1.0005179022764341,0.1884924826566669,0.023233426310827553,0.09811663264576473,0.024837712478707655,0.09744120639982093
1.0005649843015645,0.1401213853463462,0.018858616193537313,0.07552593926328457,0.023246038810793308,0.07488826624447001
1.0006120663266949,0.09311329616242185,0.016559082456351782,0.056936636782797936,0.02131076064264383,0.05634874193264471
1.0006591483518252,0.05338098213176131,0.017485397007885282,0.04656239048066332,0.01829194029044325,0.04605455956886788
1.0007062303769556,0.024158292773911582,0.018589515121410025,0.0379052596807291,0.013475754667732313,0.03752712603863675
1.000753312402086,0.006389706849983347,0.021617314596737835,0.024925530867037873,0.008481401125426556,0.024685599712998926
1.0008003944272164,4.4957735270936574e-05,0.025200368066824134,0.013623927240606612,0.005355908295920089,0.013472738942785391
1.0008474764523467,0.004476680458159687,0.024516086340644533,0.005279248516488982,0.006349100573160227,0.00510391458838177
1.000894558477477,0.016631009383087918,0.026708522820289897,0.00604487589630294,0.009785856839058218,0.005775536231725902
1.0009416405026075,0.030279800796216314,0.029840873450436418,0.01614856324889533,0.015657511944175053,0.01571682355354559
1.0009887225277379,0.04019506929021177,0.03469196837945572,0.031662352407458065,0.022305918531767593,0.0310497075388523
1.0010358045528682,0.045271217739530065,0.03781798374320921,0.049643587368788454,0.031010983559246412,0.048804295627213334
1.0010828865779986,0.04665854735345898,0.04072544896844901,0.06394396252727896,0.04027467083370543,0.06287722223748071
1.001129968603129,0.04557434040645729,0.04215426080398167,0.06951556918541625,0.048043881054915714,0.06826484946039812
1.0011770506282593,0.04281463251624272,0.041309505083642624,0.06676401531502141,0.05113131143387956,0.06543652913663053
1.0012241326533897,0.03911406922799136,0.036327128757331545,0.05756222886158259,0.05020911577975741,0.056246339806974265
1.00127121467852,0.035734840091298535,0.02762461387223789,0.04469056838221148,0.047813111275906026,0.04342090928298418
1.0013182967036505,0.034632288517627896,0.01925647639761927,0.03354469161607427,0.04549473674663222,0.03232460893035323
1.0013653787287808,0.03686446430802818,0.01684416482560832,0.03235087082016887,0.04364301821771569,0.03117785168785581
1.0014124607539112,0.040499198873267514,0.0207357896749923,0.04235422606047071,0.04350242176875885,0.04119188501494697
1.0014595427790416,0.04245011553894062,0.027309864370811492,0.05148956578485458,0.04466811839905631,0.05030476819816436
1.001506624804172,0.04142424671447975,0.030069114246691425,0.057489670337512934,0.04351011222281065,0.05633842421713142
1.0015537068293023,0.03772147907862947,0.02941123738244358,0.05838903434484734,0.0389262324396982,0.05735240820908936
1.0016007888544327,0.032149333674356434,0.027349904585264616,0.05286952532393206,0.032228829851365784,0.051999838252353846
1.001647870879563,0.025799799790141527,0.025398908567361277,0.040386054375886556,0.023638782378715997,0.03973777218398934
1.0016949529046935,0.020580986012262138,0.02062629869642514,0.02276083148008517,0.014206157042283753,0.022366743839482124
1.0017420349298238,0.01993155776046648,0.01846570608787855,0.008396000375120035,0.007991284620771913,0.008174808157588143
1.0017891169549542,0.027489951613850306,0.018646170297749922,0.00883020356959996,0.009526396431678607,0.008567041039210691
1.0018361989800846,0.042074300128446054,0.02038431960284827,0.022145335055818467,0.014201410897424254,0.02175152703816268
1.001883281005215,0.05845891480384451,0.025787778621253893,0.04104344236602053,0.023377390375069394,0.0404020285432492
1.0019303630303453,0.07582159493280267,0.02765480213071209,0.05832937685591873,0.03231452750622068,0.057459103326026016
1.0019774450554757,0.09824195100672209,0.02609313476845016,0.07041397317164165,0.039717877075300785,0.06936502912256878
1.002024527080606,0.1303669711588208,0.021659562054391682,0.07896421651578898,0.04338561816243335,0.07783326182085604
1.0020716091057364,0.17464242099810953,0.017576957795636727,0.08832693698111686,0.045880905571010246,0.08714614331665806
1.0021186911308668,0.22917237164395338,0.019493078960400794,0.11355266104308831,0.048051463698135996,0.11235108436502972
1.0021657731559972,0.2864808872447173,0.02484510230261654,0.14880372324738836,0.05158271669481445,0.14757832457053474
1.0022128551811276,0.335488571803669,0.0302676293201311,0.17945522269565434,0.05611525450491718,0.1782018941750679
1.002259937206258,0.3667004160945303,0.034158352069855555,0.20044309409803335,0.06011599378472334,0.1991718940545732
1.0023070192313883,0.37630521047742305,0.036244885726651604,0.20989430295355302,0.062292724257259784,0.20861528352027572
1.0023541012565187,0.3658732131217113,0.03624700167090741,0.20800353236518512,0.06254062591319731,0.20671667291905918
1.002401183281649,0.3393357840705059,0.03627104287650712,0.19716291122807472,0.060382679379567275,0.1958805562473708
1.0024482653067794,0.30043566038503033,0.035056408849949316,0.1783931936762516,0.05332869480629274,0.1771842922409725
1.0024953473319098,0.25183659939415354,0.02862399347634889,0.15384153094853617,0.042045625810836595,0.15280886736411303
1.0025424293570402,0.1956066522565673,0.0197068931782482,0.12081929242955049,0.027166303162810185,0.12009236342999349
1.0025895113821706,0.13475970805500284,0.011130207452406891,0.07564140824241966,0.011126298335940369,0.07531656158557007
1.002636593407301,0.07582916802294695,0.006160033329394588,0.025728531183742454,-0.00010350386406055215,0.0257217576737342
1.0026836754324313,0.03145358980808763,0.0066714745546238435,-0.0040036080406334615,-0.0017222541505083702,-0.003955064188725038
1.0027307574575617,0.01779891286180085,0.013625434080965415,-0.006351274616742859,0.008565095068320672,-0.006583149764771437
1.002777839482692,0.04358985242398123,0.01341027802706333,0.006591376950054447,0.023151681384155826,0.005957989950972991
1.0028249215078224,0.1037077589167159,0.016604993351806492,0.04281328660270074,0.03503364221740623,0.041868354635026785
1.0028720035329528,0.18101238562213362,0.030406061593265126,0.0979436666785688,0.03477017486445096,0.09702906164024949
1.0029190855580832,0.25636899888384335,0.04633472764517378,0.15380629462607742,0.03857510570474571,0.15284427924851668
1.0029661675832136,0.31832235074100634,0.05341936445934139,0.19704252226634572,0.042478107834744636,0.196047887416653
1.003013249608344,0.36361141655314383,0.05832998006692817,0.228525784613192,0.04099601159254544,0.22759239007256124
1.0030603316334743,0.39341420767750745,0.06126275618207416,0.24979870354304085,0.03904253917009315,0.2489203970543681
1.0031074136586047,0.4102870696014962,0.062111968099102105,0.26258314989231946,0.037632176914443795,0.26174044049775985
1.003154495683735,0.41662904201390033,0.06213149787816804,0.266777273312063,0.03552404190086889,0.26597152556192566
1.0032015777088654,0.41405085665469693,0.0608395373415325,0.26326150551395927,0.03273945937769906,0.2624975674956375
1.0032486597339958,0.4030953535584088,0.05815287621696555,0.251751202986526,0.02916218949499014,0.2510407070004661
1.0032957417591262,0.38301151602067063,0.05393830191739623,0.2324239377319079,0.024745085122981153,0.2317867773778427
1.0033428237842565,0.3514583105172215,0.04784009660936932,0.2047530276495091,0.019150157304314505,0.2042249069813437
1.003389905809387,0.3042863356687068,0.03982763442166373,0.16911475512504195,0.012959896066235991,0.16872813602798914
1.0034369878345173,0.2364892670841809,0.030004701120119038,0.12615890065588273,0.00551619173496101,0.1259672985417863
1.0034840698596477,0.14805992805189566,0.01963940056204989,0.07745804013496241,-0.0019212597752427006,0.07748146028101423
1.003531151884778,0.05937981673678241,0.012772233172116829,0.035632586371168055,-0.007712190324545325,0.0358306774980667
1.0035782339099084,0.016571701488668728,0.012331338402585915,0.012038086514572617,-0.010504420569654628,0.012321215362622125
1.0036253159350388,0.04141534161646615,0.0191209273589671,0.014399178728297872,-0.008522249543524728,0.014627110488969274
1.0036723979601692,0.0978579156313711,0.02887677070566843,0.03595348541122598,0.0012580809396127613,0.035905801359172845
1.0037194799852995,0.14599333246590304,0.04118178687500108,0.06503465797160808,0.012847242945188068,0.06466698887349503
1.00376656201043,0.17300879075255565,0.049441832310347086,0.0922030709843016,0.024154855380055514,0.0915437906129292
1.0038136440355603,0.18229222765708752,0.05671761061780919,0.11374971918924169,0.032353182025095135,0.11289914312883963
1.0038607260606907,0.18262972424027749,0.06195947528792499,0.12736778710133306,0.037462435117870826,0.12640935560563832
1.003907808085821,0.18292620727983336,0.06690059413357087,0.13485525602086357,0.041408898611403636,0.1338176092782506
1.0039548901109514,0.18798821740501145,0.06895282752074576,0.13913083302593265,0.045511947833847086,0.1380122833899143
1.0040019721360818,0.19658928748535154,0.06763009179378196,0.1397247738744464,0.048250979021411136,0.13855162068835072
1.0040490541612122,0.20361099360789395,0.06257856006188653,0.1356935801867525,0.04928705411754227,0.13449435679159533
1.0040961361863425,0.20356945018764083,0.053494500094880465,0.1287855413388881,0.04784123965577482,0.1276069027808434
1.004143218211473,0.19261735903368254,0.044304690854473805,0.11776025800915435,0.04477012153917031,0.11663411502842835
1.0041903002366033,0.1692114287165738,0.03441534078833665,0.09836742477706704,0.0393991530023762,0.097344850999823
1.0042373822617336,0.13469585530973552,0.024870127642785563,0.07519967777083232,0.031098930640959695,0.07436494591669753
1.004284464286864,0.094068350002802,0.015526709975531992,0.051842634052145065,0.02157700127534412,0.05124804157077331
1.0043315463119944,0.0558705414627791,0.007572223982464413,0.03082107495389939,0.011102421988006797,0.030508540350170556
1.0043786283371248,0.029785725493520713,0.002825037391909146,0.019809015244991575,0.0002848733080405316,0.019793844831561644
1.0044257103622551,0.022326134922130727,0.001672884738203545,0.01684685304795892,-0.008001724972724833,0.017059643936567358
1.0044727923873855,0.03362727707623793,0.0031524365945344835,0.01768087969631584,-0.011471670370237951,0.017988748955621883
1.004519874412516,0.057935866130881315,0.005883715132305954,0.0238553638180855,-0.010573454014273051,0.02413645474352448
1.0045669564376463,0.08691312585069338,0.010242445352173063,0.038233159934289905,-0.005081778432414949,0.03835794326894744
1.0046140384627766,0.11302745450084833,0.015387698415298866,0.05542672474865837,0.005181663340955189,0.0552659096555977
1.004661120487907,0.13143773576861661,0.021031592293893172,0.07126698378066398,0.017211426829448814,0.07078423924190297
1.0047082025130374,0.140315951549541,0.026094342641482523,0.0817840112464661,0.029192396688718137,0.08099827587609351
1.0047552845381678,0.14016084842095028,0.027229275316901353,0.0846685751900148,0.03935450610918968,0.08363766054534054
1.0048023665632981,0.13271042804166153,0.026521885331561208,0.08028160564993014,0.047245829815703175,0.07906094604927859
1.0048494485884285,0.1199532079956697,0.02291513614371532,0.06958311394397716,0.053433417816812746,0.06820467807579157
1.0048965306135589,0.10352759540252561,0.020474631167967005,0.05738407400153901,0.05575897023682616,0.055933312585128285
1.0049436126386893,0.08458770500586026,0.016034036203324952,0.04469505929439128,0.05395244271701385,0.043271468899447454
1.0049906946638196,0.06411017510052013,0.012752831125169258,0.03435472552873721,0.048421386139823726,0.0330599122678269
1.00503777668895,0.043500849939608656,0.00806805847177053,0.022887706523455283,0.04265060563341418,0.021734484489099027
1.0050848587140804,0.02497562650004661,0.0051029893957582366,0.013888116903115118,0.03597896697138002,0.01290852041219956
1.0051319407392107,0.011013597455985432,0.005294298673811781,0.011624969459267675,0.027090386792180003,0.01088458929880662
1.0051790227643411,0.003334338693202587,0.006602476843682078,0.009001101837417943,0.017100114900333783,0.008531825991911247
1.0052261047894715,0.0027948227754708652,0.002900925721146609,0.005716764128480125,0.006423718315362543,0.00553924087725656
1.0052731868146019,0.010164673003053454,-0.0006486926128214134,0.005314070387151807,-0.0022464711469928197,0.005373476576061338
1.0053202688397322,0.026566180290056158,-0.002438102377003108,0.008193549268036414,-0.00826351007275105,0.008416533921071905
1.0053673508648626,0.05291846997433676,-0.003921937229384307,0.011498759854167706,-0.010001212190757258,0.0117682582594614
1.005414432889993,0.08828034555015178,-0.00379733766323785,0.017065936640710815,-0.008899629049964173,0.017303304352077123
1.0054615149151234,0.12763762777320273,-0.0034192518947266356,0.025647230237824777,-0.005359360889186178,0.02578431745360216
1.0055085969402537,0.16155770115500132,-0.002837218637304012,0.038076850744054896,0.0005487066169941951,0.03804770246216496
1.0055556789653841,0.18078890709766565,-0.0004988916854036724,0.05135766337998839,0.008888570712432181,0.05109865148627417
1.0056027609905145,0.18307418566708303,3.7174617024287445e-05,0.06056084021799014,0.017277390677630493,0.06007776124950957
1.0056498430156449,0.1741533504439713,0.001886796083984627,0.06655908741414072,0.024696487854343908,0.06588401907361859
1.0056969250407752,0.16242605985016223,0.003179477361740942,0.07063087442771013,0.03135191774542544,0.06978848747761521
1.0057440070659056,0.15418810481596457,0.0032016893529046337,0.07107575192890922,0.03557328853497324,0.07012882162096568
1.005791089091036,0.1523552110015489,0.0021513832935101777,0.0660360559428213,0.0374623007428297,0.06503999161763947
1.0058381711161664,0.15691036178882456,0.002145280868296152,0.06130313889977103,0.03746669630856587,0.06030451000201543
1.0058852531412967,0.16538784679386007,0.004411653160135906,0.06307528196508604,0.03521966279047393,0.062133585956923004
1.005932335166427,0.17322460684996496,0.007274607158545777,0.06323184659303546,0.030361661348377266,0.0624123432695947
1.0059794171915575,0.17475929729964576,0.008491867067999115,0.05880087400333982,0.024738977974491233,0.05812425766604698
1.0060264992166879,0.16548577922015562,0.007933623014959453,0.05204155960234529,0.019440021342951277,0.05150287449349969
1.0060735812418182,0.1445721481217929,0.006074921889096647,0.04234591607178599,0.014789785241431716,0.04193169588000167
1.0061206632669486,0.11538472372115638,0.003456038208353992,0.03266210113426135,0.010353296265276079,0.03236922443760384
1.006167745292079,0.08342022676517998,0.0012149050585870448,0.0259645785337829,0.006592069951302714,0.025775520660982168
1.0062148273172093,0.053714935068683495,0.0011528467140241006,0.01794830890199036,0.005528447129232796,0.017790903855566698
1.0062619093423397,0.029620632829972474,0.0018523075360229882,0.006428025048282717,0.004350377802896857,0.006306829317744323
1.00630899136747,0.012907514843990737,0.002681878239776989,-0.004503164505502606,0.004063716233248061,-0.004612548687279976
1.0063560733926005,0.004292560353454192,0.004525151150749178,-0.010519166817943732,0.004523670539664177,-0.010638926013991159
1.0064031554177308,0.0038095921685766332,0.007899875844665274,-0.007972360122875525,0.003785007749537756,-0.008072847531393175
1.0064502374428612,0.010924293923755681,0.013551786646748882,0.0013341291502741227,0.005605353189428487,0.0011804980181310404
1.0064973194679916,0.02453035587728399,0.017804711134496585,0.011333716656649779,0.009430120965441066,0.011072372767305218
1.006544401493122,0.042966387475684646,0.02017899322175716,0.020787738978896356,0.012392484585994285,0.020443173572922753
1.0065914835182523,0.06411092062196938,0.020026718343620385,0.03329944681240632,0.014312089192820433,0.03289999589188171
1.0066385655433827,0.08556714248621351,0.021664785057221064,0.049462130528264495,0.01615409061084739,0.04901032376042357
1.006685647568513,0.10493697207975199,0.023836090541014043,0.06485229624100503,0.01667337657400342,0.06438439124656492
1.0067327295936435,0.12014720761669652,0.02465488849859109,0.07640706666955516,0.017174209008146445,0.07592467544047163
1.0067798116187738,0.12974860817624662,0.022840106125809702,0.08294186479002422,0.016396264976729205,0.08247872593137551
1.0068268936439042,0.1331160769266914,0.02193737569112339,0.08436945777741765,0.014677120659378423,0.08395039943824853
1.0068739756690346,0.13051634907150206,0.019695074622807014,0.08386978816652868,0.01220885428580544,0.08351479964455734
1.006921057694165,0.12301693370584733,0.01640512304043308,0.08185258015702256,0.008493463330837631,0.0815954083006331
1.0069681397192953,0.11219272060745543,0.011557576392269824,0.07585112215539112,0.004342015917223926,0.07570606272016496
1.0070152217444257,0.09964098937742749,0.0066405207629628505,0.06985230351433948,-0.0005457958787117139,0.06984116675824534
1.007062303769556,0.08648287672211809,0.002749559061512633,0.06302251331950957,-0.004309336629310583,0.0631167024503169
1.0071093857946865,0.07315337862299943,-9.297098802282058e-05,0.053521194673379444,-0.007281870504035476,0.05370079233859446
1.0071564678198168,0.05967551136841471,-0.0033733738478764577,0.042771215350936226,-0.009859766183230948,0.04302601439354122
1.0072035498449472,0.046352747241279996,-0.005996527133696297,0.029687677967592516,-0.01129028801369187,0.029986580687117702
1.0072506318700776,0.03458526276589038,-0.007418979349903398,0.01916866027493343,-0.011448208573909003,0.0194754005168518
1.007297713895208,0.02727830692374265,-0.007405723433942881,0.01473006896934623,-0.010925532197043748,0.015023880757085332
1.0073447959203383,0.0280866607277734,-0.006475383223432877,0.01711698325886342,-0.009222835334644863,0.017363211293529145
1.0073918779454687,0.03925806445151868,-0.0027815550340934375,0.028584290137595406,-0.006834821821461741,0.0287608126899951
1.007438959970599,0.059562255279517966,0.002747904567256452,0.043832242766228824,-0.002973433572262273,0.04389711128487914
1.0074860419957294,0.08449757331606145,0.00857789046827097,0.058037587268334905,0.0011608776292781054,0.05798447400187711
1.0075331240208598,0.10858230355013457,0.01206495133402283,0.06858033205585247,0.005564611686428041,0.06840493298126998
1.0075802060459902,0.12742598805780986,0.015307086361700055,0.07621925524513734,0.010325363545402295,0.0759153190360652
1.0076272880711206,0.13840784538629322,0.017330019646963016,0.07904744927672683,0.01394901866507685,0.07864815310193164
1.007674370096251,0.14057521646913557,0.01707656104461997,0.0769603579802706,0.01673675326924413,0.07648918853788621
1.0077214521213813,0.1345761316442056,0.015480776283746622,0.07084930100861353,0.017320114759468715,0.0703637909019008
