freq,gls,usurper,pdc_unbiased,shape_periodogram,shift_periodogram
1.0,0.02176245538732735,0.020004842727000403,-0.007335655112181927,0.002098829145472608,-0.007378822910407552
1.0000470820251304,0.05134779247241603,0.024286017143764504,0.016081221596065367,0.0024380931256315222,0.016025546909373148
1.0000941640502607,0.09689124580742478,0.029088759780442303,0.05094334186944231,0.008269893056614687,0.05075753094887457
1.0001412460753911,0.14848755125694818,0.0341249024473827,0.08456655871201842,0.015732034922883508,0.08422531867825647
1.0001883281005215,0.19664060203551523,0.039598572842058276,0.10917973127593883,0.025770881030291487,0.10865010467984673
1.0002354101256519,0.23592916525893703,0.04410508026346551,0.12678225514793529,0.033330020141394114,0.12612786397354217
1.0002824921507822,0.26363730657080775,0.04539464752227043,0.13936052532630389,0.03667757139764039,0.1386600430770137
1.0003295741759126,0.2780607972143743,0.04669635947340109,0.14663287491158739,0.038503407161010805,0.14590987741923206
1.000376656201043,0.27778293516045677,0.04768766885240864,0.14742341655727248,0.0393520887423718,0.14668827339828128
1.0004237382261734,0.2619162710265795,0.045927510096361014,0.139633635428265,0.03951360033476949,0.13888922374921428
1.0004708202513037,0.23107843684954268,0.041956778531862894,0.12167319492364326,0.03779956796659589,0.12094140190103286
1.0005179022764341,0.1884924826566669,0.0366586202518208,0.09811663264576473,0.034815117873935125,0.09741998122377767
1.0005649843015645,0.1401213853463462,0.032433709394480974,0.07552593926328457,0.03151588442097639,0.07487835094850948
1.0006120663266949,0.09311329616242185,0.02980077431250462,0.056936636782797936,0.026766622163153703,0.05637486949382379
1.0006591483518252,0.05338098213176131,0.02964248661839131,0.04656239048066332,0.02053666298449759,0.04612427080863919
1.0007062303769556,0.024158292773911582,0.028953833952371784,0.0379052596807291,0.013530776674893585,0.03761167920211691
1.000753312402086,0.006389706849983347,0.028804122230376573,0.024925530867037873,0.005435656159391157,0.024804222785905456
1.0008003944272164,4.4957735270936574e-05,0.02988044988426864,0.013623927240606612,-0.0015282873902475837,0.013653469123169039
1.0008474764523467,0.004476680458159687,0.02841560481406078,0.005279248516488982,-0.0034159620850015594,0.005351033321341356
1.000894558477477,0.016631009383087918,0.031184090884314848,0.00604487589630294,-0.0007999015803995152,0.006060582920997737
1.0009416405026075,0.030279800796216314,0.03815671210089364,0.01614856324889533,0.00562592822663178,0.016025017191111903
1.0009887225277379,0.04019506929021177,0.04703022097024524,0.031662352407458065,0.01752610637725392,0.031286155957830124
1.0010358045528682,0.045271217739530065,0.054165473817701676,0.049643587368788454,0.03208856592820116,0.048974572143415857
1.0010828865779986,0.04665854735345898,0.05777054077841439,0.06394396252727896,0.04661260487289599,0.0630080629205073
1.001129968603129,0.04557434040645729,0.060690380884098755,0.06951556918541625,0.058078952116784,0.06838300019067771
1.0011770506282593,0.04281463251624272,0.060338951288057434,0.06676401531502141,0.06459219485377436,0.06551448631129483
1.0012241326533897,0.03911406922799136,0.05611752023302133,0.05756222886158259,0.06666009276341578,0.05625698906466609
1.00127121467852,0.035734840091298535,0.0498758851306995,0.04469056838221148,0.06596488275208284,0.04336983108059064
1.0013182967036505,0.034632288517627896,0.04381933788044129,0.03354469161607427,0.06471256001321214,0.03222457398726446
1.0013653787287808,0.03686446430802818,0.041783829756586746,0.03235087082016887,0.06317312026957164,0.031058200381497994
1.0014124607539112,0.040499198873267514,0.04347184220117676,0.04235422606047071,0.06280758415753673,0.041087562600301795
1.0014595427790416,0.04245011553894062,0.0459114472448111,0.05148956578485458,0.06235895927344699,0.05024864005199121
1.001506624804172,0.04142424671447975,0.04587642465167357,0.057489670337512934,0.05733002314822864,0.05635041845274029
1.0015537068293023,0.03772147907862947,0.044735684448781045,0.05838903434484734,0.048912541117780074,0.05740476968712469
1.0016007888544327,0.032149333674356434,0.04215467272703874,0.05286952532393206,0.03750747205527198,0.052096245099623455
1.001647870879563,0.025799799790141527,0.03862280793103555,0.040386054375886556,0.023111699766767642,0.03989504873672424
1.0016949529046935,0.020580986012262138,0.031623924914410836,0.02276083148008517,0.009151941448719303,0.0225612619022915
1.0017420349298238,0.01993155776046648,0.027843493102224552,0.008396000375120035,-0.0013128119466100897,0.008422129584201276
1.0017891169549542,0.027489951613850306,0.02737354652051726,0.00883020356959996,-0.003603677549035583,0.00890520843121224
1.0018361989800846,0.042074300128446054,0.026683901928713765,0.022145335055818467,0.0006497800566634841,0.022126421925959174
1.001883281005215,0.05845891480384451,0.03038684080529937,0.04104344236602053,0.00941812168770327,0.04083524839467623
1.0019303630303453,0.07582159493280267,0.03670275337626562,0.05832937685591873,0.019797918120208886,0.05790670645909551
1.0019774450554757,0.09824195100672209,0.04177735420966456,0.07041397317164165,0.03151335910279584,0.06976433230828386
1.002024527080606,0.1303669711588208,0.040338585532181497,0.07896421651578898,0.04104776445894888,0.07814313504968903
1.0020716091057364,0.17464242099810953,0.0353033970227133,0.08832693698111686,0.04791366571908409,0.087394984992963
1.0021186911308668,0.22917237164395338,0.03579318599233822,0.11355266104308831,0.052871662597088566,0.11257482917447177
1.0021657731559972,0.2864808872447173,0.039490200376399984,0.14880372324738836,0.05741666743542612,0.14782289002663332
1.0022128551811276,0.335488571803669,0.043348984566077525,0.17945522269565434,0.06138587214272542,0.17849275728877048
1.002259937206258,0.3667004160945303,0.04567348306738821,0.20044309409803335,0.06370775509843656,0.19950830722750496
1.0023070192313883,0.37630521047742305,0.046236800572270545,0.20989430295355302,0.0640660005951127,0.20897962182815089
1.0023541012565187,0.3658732131217113,0.04488935259721346,0.20800353236518512,0.06239177959084756,0.20709673958014974
1.002401183281649,0.3393357840705059,0.043564390076510216,0.19716291122807472,0.05881422481403585,0.19626223524755992
1.0024482653067794,0.30043566038503033,0.042191306753471804,0.1783931936762516,0.051213951225441375,0.1775370507350667
1.0024953473319098,0.25183659939415354,0.03870116165984443,0.15384153094853617,0.03869028892455401,0.15312185122588326
1.0025424293570402,0.1956066522565673,0.03184648642403262,0.12081929242955049,0.023652136151860053,0.12033109719922631
1.0025895113821706,0.13475970805500284,0.024201583921190446,0.07564140824241966,0.007338845448473399,0.07547086279964324
1.002636593407301,0.07582916802294695,0.018631745305864516,0.025728531183742454,-0.004657980373856204,0.025822335602986336
1.0026836754324313,0.03145358980808763,0.019667764839346888,-0.0040036080406334615,-0.0057585950302139,-0.0038797650313279037
1.0027307574575617,0.01779891286180085,0.027029793584769708,-0.006351274616742859,0.005764998895145483,-0.006473059426010785
1.002777839482692,0.04358985242398123,0.026531586231353335,0.006591376950054447,0.023903241161192024,0.006081096115953024
1.0028249215078224,0.1037077589167159,0.03046743069209108,0.04281328660270074,0.03891854436995501,0.04200629077982117
1.0028720035329528,0.18101238562213362,0.03909282951319573,0.0979436666785688,0.05020291835356199,0.09698562884208126
1.0029190855580832,0.25636899888384335,0.05157685996315282,0.15380629462607742,0.05462103159193354,0.1528691188178263
1.0029661675832136,0.31832235074100634,0.06258444233432867,0.19704252226634572,0.0531188080729759,0.19619615997041095
1.003013249608344,0.36361141655314383,0.06774109060294188,0.228525784613192,0.05296858413362576,0.22773520515617499
1.0030603316334743,0.39341420767750745,0.0693074573844325,0.24979870354304085,0.05165745119846962,0.2490550656418367
1.0031074136586047,0.4102870696014962,0.06833842634063686,0.26258314989231946,0.049058436714342686,0.2618793457596131
1.003154495683735,0.41662904201390033,0.06647231463991138,0.266777273312063,0.04582054178206413,0.2661040249284048
1.0032015777088654,0.41405085665469693,0.06345635212029102,0.26326150551395927,0.041579252512684024,0.2626193906525391
1.0032486597339958,0.4030953535584088,0.05929682852608897,0.251751202986526,0.03618050907640246,0.2511507716532829
1.0032957417591262,0.38301151602067063,0.05393189090256283,0.2324239377319079,0.029800089800451637,0.23188546022691214
1.0033428237842565,0.3514583105172215,0.047211368727493055,0.2047530276495091,0.022400328192524792,0.2043086489757744
1.003389905809387,0.3042863356687068,0.03906655259494213,0.16911475512504195,0.01441808860712144,0.16879945896849444
1.0034369878345173,0.2364892670841809,0.02980442281273972,0.12615890065588273,0.005995981066771608,0.12600778134748047
1.0034840698596477,0.14805992805189566,0.02026174944975382,0.07745804013496241,-0.0019387562781270162,0.07748165810825004
1.003531151884778,0.05937981673678241,0.014000307308140078,0.035632586371168055,-0.007185571895955006,0.0357785725961609
1.0035782339099084,0.016571701488668728,0.013787452906490133,0.012038086514572617,-0.007826731278926363,0.012202847470970736
1.0036253159350388,0.04141534161646615,0.021260980852519543,0.014399178728297872,-0.0010243870334024953,0.014417775049579116
1.0036723979601692,0.0978579156313711,0.03384006960712537,0.03595348541122598,0.011215518398208835,0.035708447752343726
1.0037194799852995,0.14599333246590304,0.04847004515236825,0.06503465797160808,0.024182471085106173,0.06452541253304483
1.00376656201043,0.17300879075255565,0.05798957249594449,0.0922030709843016,0.036710972969800734,0.09146914370203008
1.0038136440355603,0.18229222765708752,0.0657825169057014,0.11374971918924169,0.04490604628047448,0.11289579720279931
1.0038607260606907,0.18262972424027749,0.07016340779724936,0.12736778710133306,0.05163664495102767,0.12642876920264337
1.003907808085821,0.18292620727983336,0.07089215181336368,0.13485525602086357,0.059317866533631,0.13382360178984692
1.0039548901109514,0.18798821740501145,0.07234142836016301,0.13913083302593265,0.06412894361481071,0.13804792961053808
1.0040019721360818,0.19658928748535154,0.07251706517951229,0.1397247738744464,0.06575551409767542,0.138623840779955
1.0040490541612122,0.20361099360789395,0.07026780819359082,0.1356935801867525,0.06422699566605687,0.13460159962875173
1.0040961361863425,0.20356945018764083,0.06465620297533389,0.1287855413388881,0.061699313604052466,0.12771049383554897
1.004143218211473,0.19261735903368254,0.056322245556550736,0.11776025800915435,0.058171700760343975,0.11671172088512984
1.0041903002366033,0.1692114287165738,0.046392551190889725,0.09836742477706704,0.05119423100808876,0.0973939071053593
1.0042373822617336,0.13469585530973552,0.03562461699781472,0.07519967777083232,0.04176429767576532,0.07436257079274185
1.004284464286864,0.094068350002802,0.02520449947018716,0.051842634052145065,0.030860481528656072,0.051198638002596546
1.0043315463119944,0.0558705414627791,0.01604015170719881,0.03082107495389939,0.018194664328345888,0.03043101288016926
1.0043786283371248,0.029785725493520713,0.01028939697404591,0.019809015244991575,0.005888898214801292,0.019679132672709748
1.0044257103622551,0.022326134922130727,0.008048996345885224,0.01684685304795892,-0.004078658583015375,0.016930229858481454
1.0044727923873855,0.03362727707623793,0.009018203238735482,0.01768087969631584,-0.009341285533153013,0.017877051655301436
1.004519874412516,0.057935866130881315,0.012402256943137142,0.0238553638180855,-0.009752786339182801,0.02405919737618028
1.0045669564376463,0.08691312585069338,0.01821686333107921,0.038233159934289905,-0.004449305847072768,0.03831965272054567
1.0046140384627766,0.11302745450084833,0.024947609083087643,0.05542672474865837,0.006146427175834784,0.05528448267407545
1.004661120487907,0.13143773576861661,0.031234516828214206,0.07126698378066398,0.018576326358214566,0.07086920811144938
1.0047082025130374,0.140315951549541,0.03546251380506871,0.0817840112464661,0.03105782571132558,0.08114759695526944
1.0047552845381678,0.14016084842095028,0.03574488929982635,0.0846685751900148,0.04166386727733022,0.0838412452394007
1.0048023665632981,0.13271042804166153,0.033505292669220255,0.08028160564993014,0.04879405374902434,0.07932504494395375
1.0048494485884285,0.1199532079956697,0.030266706954617792,0.06958311394397716,0.05506700481745327,0.06850299123594711
1.0048965306135589,0.10352759540252561,0.02713490328346833,0.05738407400153901,0.05886665128319818,0.0562169524459284
1.0049436126386893,0.08458770500586026,0.022035228222326033,0.04469505929439128,0.058979827676909416,0.04350439984643105
1.0049906946638196,0.06411017510052013,0.01882542414000789,0.03435472552873721,0.05579603288790076,0.03320887154195308
1.00503777668895,0.043500849939608656,0.014931010423463807,0.022887706523455283,0.05040224504217295,0.021834499407285542
1.0050848587140804,0.02497562650004661,0.011462178748446957,0.013888116903115118,0.04239498902475322,0.012991364968885805
1.0051319407392107,0.011013597455985432,0.008875940839658833,0.011624969459267675,0.03219177464314123,0.01094053991944444
1.0051790227643411,0.003334338693202587,0.007959450169924583,0.009001101837417943,0.02089829362138176,0.008554605081363876
1.0052261047894715,0.0027948227754708652,0.00456819256441537,0.005716764128480125,0.010936838848064763,0.005482200731912806
1.0052731868146019,0.010164673003053454,0.0020623020256239077,0.005314070387151807,0.0028061751669365624,0.005252944697403517
1.0053202688397322,0.026566180290056158,0.00184880321310525,0.008193549268036414,-0.005387230126211127,0.008306853990610872
1.0053673508648626,0.05291846997433676,0.003585748789567714,0.011498759854167706,-0.00975024190779029,0.011704905139214692
1.005414432889993,0.08828034555015178,0.0071685212238313464,0.017065936640710815,-0.009707194535403703,0.01727010079507381
1.0054615149151234,0.12763762777320273,0.010689897277091347,0.025647230237824777,-0.006276699740225565,0.02577582081793409
1.0055085969402537,0.16155770115500132,0.013719533319564827,0.038076850744054896,0.0013825265683825494,0.03803874827303621
1.0055556789653841,0.18078890709766565,0.016983623373728038,0.05135766337998839,0.011728526419033363,0.05109996133704394
1.0056027609905145,0.18307418566708303,0.018187727559707628,0.06056084021799014,0.022842192243625818,0.060077470351147966
1.0056498430156449,0.1741533504439713,0.019068606327587997,0.06655908741414072,0.032271681621823846,0.0658933843787115
1.0056969250407752,0.16242605985016223,0.01842901988466765,0.07063087442771013,0.040280784245540845,0.06981722895423212
1.0057440070659056,0.15418810481596457,0.016576664202072655,0.07107575192890922,0.04443224671213021,0.07018665823485833
1.005791089091036,0.1523552110015489,0.013227793728664998,0.0660360559428213,0.045045121393443806,0.06513096977327336
1.0058381711161664,0.15691036178882456,0.011325857355218422,0.06130313889977103,0.044671446923410754,0.060400440996256376
1.0058852531412967,0.16538784679386007,0.010971588115121214,0.06307528196508604,0.04334656505470827,0.062198789983389374
1.005932335166427,0.17322460684996496,0.009012461621973833,0.06323184659303546,0.040415702405059525,0.06241014058982295
1.0059794171915575,0.17475929729964576,0.006135419397449796,0.05880087400333982,0.03523935892521092,0.05807463224473313
1.0060264992166879,0.16548577922015562,0.00388071123441666,0.05204155960234529,0.02985320071811383,0.051417502615941496
1.0060735812418182,0.1445721481217929,0.0023279786585190345,0.04234591607178599,0.022941909150455263,0.04185856026924961
1.0061206632669486,0.11538472372115638,0.0007331311951083629,0.03266210113426135,0.014999624422193054,0.032338425065884496
1.006167745292079,0.08342022676517998,-0.00045111656223705297,0.0259645785337829,0.007401803473642635,0.025801430545662446
1.0062148273172093,0.053714935068683495,0.0004456306021187139,0.01794830890199036,0.0020074626186634063,0.017901395395644257
1.0062619093423397,0.029620632829972474,0.0020593262370672775,0.006428025048282717,-0.001436675205752411,0.006457249174333513
1.00630899136747,0.012907514843990737,0.0046374207921151865,-0.004503164505502606,-0.0013814887434717505,-0.004472635404048459
1.0063560733926005,0.004292560353454192,0.007860062129492133,-0.010519166817943732,0.001109187742123404,-0.010540460892274247
1.0064031554177308,0.0038095921685766332,0.01324210342338577,-0.007972360122875525,0.003807579920540337,-0.00805191754868701
1.0064502374428612,0.010924293923755681,0.021717401828214522,0.0013341291502741227,0.011319950016169351,0.0010921143456596298
1.0064973194679916,0.02453035587728399,0.028410404265179316,0.011333716656649779,0.020570088505032044,0.010894164470777219
1.006544401493122,0.042966387475684646,0.03345673635646303,0.020787738978896356,0.02933594804649234,0.02016548641579309
1.0065914835182523,0.06411092062196938,0.03545818133663431,0.03329944681240632,0.035055703999664546,0.03256432057326586
1.0066385655433827,0.08556714248621351,0.03795344148144753,0.049462130528264495,0.038051796343899394,0.04867623274732516
1.006685647568513,0.10493697207975199,0.039176815280450965,0.06485229624100503,0.038708939986330584,0.0640637455714189
1.0067327295936435,0.12014720761669652,0.03900705618083087,0.07640706666955516,0.03769749189641882,0.07564498902239064
1.0067798116187738,0.12974860817624662,0.036247344205408545,0.08294186479002422,0.0354712137248725,0.08222457513350225
1.0068268936439042,0.1331160769266914,0.03487583850238991,0.08436945777741765,0.03168218420361729,0.08372254030754119
1.0068739756690346,0.13051634907150206,0.030615358711548704,0.08386978816652868,0.02799047730244447,0.08329160381907656
1.006921057694165,0.12301693370584733,0.024522891539561293,0.08185258015702256,0.023747262928815148,0.08135466476196432
1.0069681397192953,0.11219272060745543,0.01719219779082644,0.07585112215539112,0.018179032064077807,0.07546136190425483
1.0070152217444257,0.09964098937742749,0.010485961887157837,0.06985230351433948,0.012580038425549368,0.06957518590186242
1.007062303769556,0.08648287672211809,0.005128059842829729,0.06302251331950957,0.007737770684987036,0.06284577818592788
1.0071093857946865,0.07315337862299943,0.0024312232883346085,0.053521194673379444,0.003876315970525487,0.053426981491231096
1.0071564678198168,0.05967551136841471,0.00024481060060688935,0.042771215350936226,6.59021985813272e-05,0.04276007232646719
1.0072035498449472,0.046352747241279996,-0.002307770391224776,0.029687677967592516,-0.0024554285645840158,0.029733376646425405
1.0072506318700776,0.03458526276589038,-0.003554058597366287,0.01916866027493343,-0.002846555654515035,0.01922513239269019
1.007297713895208,0.02727830692374265,-0.0034848330021504783,0.01473006896934623,-0.0031096907638513064,0.014793178571833704
1.0073447959203383,0.0280866607277734,-0.0019148898337446958,0.01711698325886342,-0.0023541485823232165,0.017163386844019753
1.0073918779454687,0.03925806445151868,0.0031063857161446667,0.028584290137595406,0.0013688695235155915,0.02854859968219735
1.007438959970599,0.059562255279517966,0.009522350960677273,0.043832242766228824,0.006304099409637291,0.04368886744639918
1.0074860419957294,0.08449757331606145,0.014838471057629437,0.058037587268334905,0.0120198626528489,0.05777311111990938
1.0075331240208598,0.10858230355013457,0.01860517916331388,0.06858033205585247,0.01746764242790399,0.06820464343417057
1.0075802060459902,0.12742598805780986,0.02154574030786258,0.07621925524513734,0.02102478035298859,0.07577343996988503
1.0076272880711206,0.13840784538629322,0.02249769187096235,0.07904744927672683,0.022819504212398103,0.07856699488065755
1.007674370096251,0.14057521646913557,0.02157202482207826,0.0769603579802706,0.023145938010855505,0.07647325846217642
1.0077214521213813,0.1345761316442056,0.019773289860523156,0.07084930100861353,0.021650971718758998,0.07039065201336714
