freq,gls,usurper,pdc_unbiased,shape_periodogram,shift_periodogram
1.0,0.02176245538732735,0.013377792394956666,-0.007335655112181927,0.0017592829869320823,-0.007366598662099875
1.0000470820251304,0.05134779247241603,0.016847907739659582,0.016081221596065367,0.0030047565305921357,0.01602370032907309
1.0000941640502607,0.09689124580742478,0.019951782989015565,0.05094334186944231,0.007750011601562705,0.05079524851359753
1.0001412460753911,0.14848755125694818,0.02370663562911956,0.08456655871201842,0.01162884623356521,0.08434788070857514
1.0001883281005215,0.19664060203551523,0.027190400703550794,0.10917973127593883,0.016914328714968393,0.10887338862393844
1.0002354101256519,0.23592916525893703,0.029297718652312316,0.12678225514793529,0.020665014942281953,0.12641925130779025
1.0002824921507822,0.26363730657080775,0.02806130057845094,0.13936052532630389,0.022004999235996785,0.13898005686134698
1.0003295741759126,0.2780607972143743,0.02795962275803654,0.14663287491158739,0.023310324462358416,0.14623528825363455
1.000376656201043,0.27778293516045677,0.029255322497232224,0.14742341655727248,0.024308696910707302,0.1470118080724686
1.0004237382261734,0.2619162710265795,0.02886690853495395,0.139633635428265,0.02567946830439551,0.13919995341812008
1.0004708202513037,0.23107843684954268,0.02711129921902286,0.12167319492364326,0.026172496747064056,0.12122617731067448
1.0005179022764341,0.1884924826566669,0.024241631123703512,0.09811663264576473,0.026074132502286358,0.09766346725459213
1.0005649843015645,0.1401213853463462,0.02246158680931494,0.07552593926328457,0.02476290172843016,0.07508745282401326
1.0006120663266949,0.09311329616242185,0.02171406073168859,0.056936636782797936,0.02162247116586547,0.056546969526927754
1.0006591483518252,0.05338098213176131,0.02294602443528602,0.04656239048066332,0.01574866343860298,0.0462733901294248
1.0007062303769556,0.024158292773911582,0.023731444283854274,0.0379052596807291,0.008515449452183493,0.037744968948267864
1.000753312402086,0.006389706849983347,0.024568624449178986,0.024925530867037873,0.0009267435359846662,0.02490445352825587
1.0008003944272164,4.4957735270936574e-05,0.027877554576886256,0.013623927240606612,-0.005915580576427831,0.013730000431470981
1.0008474764523467,0.004476680458159687,0.02799926721773897,0.005279248516488982,-0.006343067865261871,0.005394424088898908
1.000894558477477,0.016631009383087918,0.02859271978298527,0.00604487589630294,-0.0033095459686151045,0.006104395905914541
1.0009416405026075,0.030279800796216314,0.03293865000063423,0.01614856324889533,0.0021198142546013637,0.016107165636122554
1.0009887225277379,0.04019506929021177,0.03859183200025366,0.031662352407458065,0.011074043320743117,0.03145685766062607
1.0010358045528682,0.045271217739530065,0.04316295635117369,0.049643587368788454,0.022312451829866915,0.0492411537341909
1.0010828865779986,0.04665854735345898,0.0426785822646892,0.06394396252727896,0.03316842097047484,0.06336539147105376
1.001129968603129,0.04557434040645729,0.04189752236139485,0.06951556918541625,0.042431730917247154,0.06879555648403336
1.0011770506282593,0.04281463251624272,0.038808054139825104,0.06676401531502141,0.04849197140926278,0.0659495422432573
1.0012241326533897,0.03911406922799136,0.033297273650956596,0.05756222886158259,0.051973627069318254,0.05668354475197062
1.00127121467852,0.035734840091298535,0.026672158092539467,0.04469056838221148,0.05362734898554382,0.0437685157246001
1.0013182967036505,0.034632288517627896,0.021203119711027556,0.03354469161607427,0.054179513965754926,0.032598117412835505
1.0013653787287808,0.03686446430802818,0.021502939668068016,0.03235087082016887,0.05297024216407616,0.03142269600781065
1.0014124607539112,0.040499198873267514,0.02505794279751599,0.04235422606047071,0.0512613174266145,0.04146696971012226
1.0014595427790416,0.04245011553894062,0.028812377814746798,0.05148956578485458,0.047650130404688365,0.05067073126325392
1.001506624804172,0.04142424671447975,0.029822831353278786,0.057489670337512934,0.04040551924237932,0.056791303796357454
1.0015537068293023,0.03772147907862947,0.028601337942519137,0.05838903434484734,0.03158474988286106,0.057833605534030136
1.0016007888544327,0.032149333674356434,0.027782642207618214,0.05286952532393206,0.021151313616566643,0.05248737740593754
1.001647870879563,0.025799799790141527,0.027738667795382015,0.040386054375886556,0.009614566638494481,0.04020584135420535
1.0016949529046935,0.020580986012262138,0.024866050696823547,0.02276083148008517,-0.00106930029475314,0.022776575194541095
1.0017420349298238,0.01993155776046648,0.023572483417564356,0.008396000375120035,-0.008800251028976597,0.00855578401141648
1.0017891169549542,0.027489951613850306,0.02473982355424947,0.00883020356959996,-0.00897874827865581,0.008993206663611577
1.0018361989800846,0.042074300128446054,0.02395468180148348,0.022145335055818467,-0.004270227788435766,0.022219842938268418
1.001883281005215,0.05845891480384451,0.02595433827826157,0.04104344236602053,0.004063031675658426,0.04096284618536838
1.0019303630303453,0.07582159493280267,0.029500097434148588,0.05832937685591873,0.012898051583177654,0.05808989373281938
1.0019774450554757,0.09824195100672209,0.033525743398066445,0.07041397317164165,0.023408837716014104,0.06999658634375967
1.002024527080606,0.1303669711588208,0.03230110653795044,0.07896421651578898,0.032378267642009316,0.07840555553361762
1.0020716091057364,0.17464242099810953,0.02725078908241325,0.08832693698111686,0.03872680020744953,0.0876778173607546
1.0021186911308668,0.22917237164395338,0.026653992094223814,0.11355266104308831,0.04188454089371022,0.11288071878546899
1.0021657731559972,0.2864808872447173,0.02873399745227569,0.14880372324738836,0.04368490944522601,0.14814538670500468
1.0022128551811276,0.335488571803669,0.031095345869813336,0.17945522269565434,0.044671554414741944,0.17882134496311158
1.002259937206258,0.3667004160945303,0.03245240269825974,0.20044309409803335,0.04466631341272719,0.1998344250020123
1.0023070192313883,0.37630521047742305,0.03264689668560877,0.20989430295355302,0.043433539892267135,0.20930735676417134
1.0023541012565187,0.3658732131217113,0.03139224611807585,0.20800353236518512,0.04103151678787884,0.20743535915898334
1.002401183281649,0.3393357840705059,0.029854597641660454,0.19716291122807472,0.03680625288141251,0.196625207109868
1.0024482653067794,0.30043566038503033,0.027810190447654974,0.1783931936762516,0.029647229028903304,0.1779236867492978
1.0024953473319098,0.25183659939415354,0.02325326766275324,0.15384153094853617,0.019877171055593165,0.15349547016431414
1.0025424293570402,0.1956066522565673,0.01744659635573629,0.12081929242955049,0.009892085166546964,0.12062832035563374
1.0025895113821706,0.13475970805500284,0.010918556345498707,0.07564140824241966,0.0008199329349634923,0.0756140056711454
1.002636593407301,0.07582916802294695,0.005468241259326506,0.025728531183742454,-0.004135791800344641,0.025799984153227335
1.0026836754324313,0.03145358980808763,0.009638924706144822,-0.0040036080406334615,-0.003500395760746733,-0.003938975868510058
1.0027307574575617,0.01779891286180085,0.02029367073181958,-0.006351274616742859,0.004538787315432464,-0.006433245616604623
1.002777839482692,0.04358985242398123,0.019180456370432745,0.006591376950054447,0.01801732597446847,0.006261947528915132
1.0028249215078224,0.1037077589167159,0.01663088208166881,0.04281328660270074,0.026968195057442503,0.04232986177110386
1.0028720035329528,0.18101238562213362,0.019311416827546054,0.0979436666785688,0.03185784515777063,0.09740236144428757
1.0029190855580832,0.25636899888384335,0.029326479157038312,0.15380629462607742,0.03263425942488817,0.15328531939202655
1.0029661675832136,0.31832235074100634,0.03922259328270943,0.19704252226634572,0.02862220082615036,0.19659517114535338
1.003013249608344,0.36361141655314383,0.04361855466521195,0.228525784613192,0.026822837065801207,0.22811488320184856
1.0030603316334743,0.39341420767750745,0.04605471270436893,0.24979870354304085,0.0252774977469443,0.24941470644188402
1.0031074136586047,0.4102870696014962,0.04648566051896645,0.26258314989231946,0.02332527307220839,0.2622255956921682
1.003154495683735,0.41662904201390033,0.04640901950786952,0.266777273312063,0.021448997474306276,0.2664417544645044
1.0032015777088654,0.41405085665469693,0.04544296617389724,0.26326150551395927,0.019173590101861846,0.26295080367812573
1.0032486597339958,0.4030953535584088,0.043712569637912084,0.251751202986526,0.016256512119178036,0.25147351592223194
1.0032957417591262,0.38301151602067063,0.04122898888138898,0.2324239377319079,0.012864645651462343,0.2321889774022744
1.0033428237842565,0.3514583105172215,0.03778577521839528,0.2047530276495091,0.008681707183685737,0.20457879362753167
1.003389905809387,0.3042863356687068,0.03309639647777796,0.16911475512504195,0.0041503149746925224,0.16901607725041629
1.0034369878345173,0.2364892670841809,0.027704369683243635,0.12615890065588273,-0.0007034136675267408,0.12615073850846353
1.0034840698596477,0.14805992805189566,0.022022910100019475,0.07745804013496241,-0.00497782915844753,0.07753630786329938
1.003531151884778,0.05937981673678241,0.018317310090596506,0.035632586371168055,-0.007681326848759921,0.035767843364063516
1.0035782339099084,0.016571701488668728,0.01811776566738161,0.012038086514572617,-0.008194942299361302,0.012186258663560644
1.0036253159350388,0.04141534161646615,0.022342977405637874,0.014399178728297872,-0.004857146285301016,0.014485706999860678
1.0036723979601692,0.0978579156313711,0.028010088377561335,0.03595348541122598,0.001432103163349833,0.03592139328194061
1.0037194799852995,0.14599333246590304,0.03460631881614407,0.06503465797160808,0.008137096468746972,0.064878165851872
1.00376656201043,0.17300879075255565,0.03710731842772154,0.0922030709843016,0.015805874047450603,0.09191390527658651
1.0038136440355603,0.18229222765708752,0.04055411976037673,0.11374971918924169,0.020725212501121908,0.11338343487997082
1.0038607260606907,0.18262972424027749,0.043742649702232815,0.12736778710133306,0.026341512217050483,0.12692026944774143
1.003907808085821,0.18292620727983336,0.04372252094863607,0.13485525602086357,0.03423433016779653,0.13430152853889538
1.0039548901109514,0.18798821740501145,0.04401468883341927,0.13913083302593265,0.039306161228973006,0.13851514258865558
1.0040019721360818,0.19658928748535154,0.04309601879391716,0.1397247738744464,0.0413479371648382,0.13908457279997127
1.0040490541612122,0.20361099360789395,0.04282762336047827,0.1356935801867525,0.04090594766633449,0.13505496672551567
1.0040961361863425,0.20356945018764083,0.0403877577225208,0.1287855413388881,0.040692289115663825,0.12814322181489549
1.004143218211473,0.19261735903368254,0.034958511744800164,0.11776025800915435,0.0395809648093737,0.1171227225846862
1.0041903002366033,0.1692114287165738,0.02901926883465084,0.09836742477706704,0.036326529799200445,0.09776053769160194
1.0042373822617336,0.13469585530973552,0.022635504441803556,0.07519967777083232,0.03148635587674182,0.07465324331875996
1.004284464286864,0.094068350002802,0.016995364455358503,0.051842634052145065,0.024332653477986067,0.051406138895971995
1.0043315463119944,0.0558705414627791,0.012661298096079087,0.03082107495389939,0.014933562472076455,0.0305467257997598
1.0043786283371248,0.029785725493520713,0.010454220184730013,0.019809015244991575,0.005181841526672184,0.019711300023037403
1.0044257103622551,0.022326134922130727,0.010010655005764237,0.01684685304795892,-0.00321166627622193,0.016902811505071554
1.0044727923873855,0.03362727707623793,0.010909015196956083,0.01768087969631584,-0.0078124107381017435,0.017821216724803756
1.004519874412516,0.057935866130881315,0.013074464156688427,0.0238553638180855,-0.008501893549277221,0.02400753198756962
1.0045669564376463,0.08691312585069338,0.016829337777309543,0.038233159934289905,-0.004806974102809844,0.038314903157262624
1.0046140384627766,0.11302745450084833,0.021157469787931264,0.05542672474865837,0.0033904987480752845,0.05535611363918076
1.004661120487907,0.13143773576861661,0.02442235318628488,0.07126698378066398,0.012214441847630882,0.07103881569767018
1.0047082025130374,0.140315951549541,0.026185566135914162,0.0817840112464661,0.020598496558035376,0.081414799198414
1.0047552845381678,0.14016084842095028,0.02525836356123314,0.0846685751900148,0.02766994557931481,0.08418611023101119
1.0048023665632981,0.13271042804166153,0.0229162127444394,0.08028160564993014,0.031912709690924385,0.07973083891479019
1.0048494485884285,0.1199532079956697,0.02064671082149369,0.06958311394397716,0.03647732897728228,0.06895518336966414
1.0048965306135589,0.10352759540252561,0.01729043778239263,0.05738407400153901,0.03975698879153063,0.05669596270460872
1.0049436126386893,0.08458770500586026,0.011527575929098878,0.04469505929439128,0.040148144672644145,0.04399124083313693
1.0049906946638196,0.06411017510052013,0.007512489932746795,0.03435472552873721,0.037747285180324164,0.03368412954799229
1.00503777668895,0.043500849939608656,0.003662383510406609,0.022887706523455283,0.034171785918698884,0.022272686988005715
1.0050848587140804,0.02497562650004661,0.0010454606930378216,0.013888116903115118,0.02850302936889719,0.013370324766925184
1.0051319407392107,0.011013597455985432,0.0008963788434629606,0.011624969459267675,0.021026262487050088,0.011241217768939217
1.0051790227643411,0.003334338693202587,0.0015877242135317524,0.009001101837417943,0.01337776983355607,0.00875585855344048
1.0052261047894715,0.0027948227754708652,-4.126412358819471e-05,0.005716764128480125,0.007999105137353676,0.005569766791314982
1.0052731868146019,0.010164673003053454,-0.0026178471971400044,0.005314070387151807,0.0035135614774067995,0.005248988014974716
1.0053202688397322,0.026566180290056158,-0.004474927523317532,0.008193549268036414,-0.0018970656132773524,0.008226870721133787
1.0053673508648626,0.05291846997433676,-0.0048436065715235154,0.011498759854167706,-0.0039038625799867927,0.011568276927064702
1.005414432889993,0.08828034555015178,-0.0014836821318964545,0.017065936640710815,-0.0023274093036023433,0.017105659514099068
1.0054615149151234,0.12763762777320273,0.0017352139614746022,0.025647230237824777,0.0015950157377634664,0.02561385103980783
1.0055085969402537,0.16155770115500132,0.004424270844082381,0.038076850744054896,0.009000158143086781,0.03790785947238014
1.0055556789653841,0.18078890709766565,0.006879306305673592,0.05135766337998839,0.018862010902927204,0.051014703809329084
1.0056027609905145,0.18307418566708303,0.007479309977639911,0.06056084021799014,0.029118063224750922,0.060046734685374484
1.0056498430156449,0.1741533504439713,0.00792067652114257,0.06655908741414072,0.03606754917509665,0.06593573008182878
1.0056969250407752,0.16242605985016223,0.007571117957880765,0.07063087442771013,0.04099275461770117,0.06993380083760303
1.0057440070659056,0.15418810481596457,0.006728237834601782,0.07107575192890922,0.04211569381580557,0.07036192406657461
1.005791089091036,0.1523552110015489,0.005625834896606637,0.0660360559428213,0.04008034423369099,0.06534940263621909
1.0058381711161664,0.15691036178882456,0.005677237804740469,0.06130313889977103,0.037085698632150395,0.06066034071041513
1.0058852531412967,0.16538784679386007,0.007770995315439287,0.06307528196508604,0.03439160475893568,0.062476614660156325
1.005932335166427,0.17322460684996496,0.006947162857120024,0.06323184659303546,0.029960251170571644,0.06270492613061186
1.0059794171915575,0.17475929729964576,0.005044043701044593,0.05880087400333982,0.0240161367822011,0.05837109234372901
1.0060264992166879,0.16548577922015562,0.0036873986097089796,0.05204155960234529,0.017984335958487585,0.05171379236902275
1.0060735812418182,0.1445721481217929,0.002460456880832325,0.04234591607178599,0.011733661255451546,0.04212782464989893
1.0061206632669486,0.11538472372115638,0.0015211809844976499,0.03266210113426135,0.004666725813015337,0.03257182959363377
1.006167745292079,0.08342022676517998,-0.00039206447301568973,0.0259645785337829,-0.0018925567022660896,0.02599485104068698
1.0062148273172093,0.053714935068683495,-0.0004933076025745213,0.01794830890199036,-0.0064001856111638045,0.018062621916376226
1.0062619093423397,0.029620632829972474,-2.1601979436412855e-05,0.006428025048282717,-0.00905099795886668,0.006592666814220138
1.00630899136747,0.012907514843990737,0.001789834436828954,-0.004503164505502606,-0.007735986172169472,-0.004361129369173063
1.0063560733926005,0.004292560353454192,0.003731430512323049,-0.010519166817943732,-0.0040080581516800965,-0.010444236081427059
1.0064031554177308,0.0038095921685766332,0.007401637848637865,-0.007972360122875525,0.00018602112342879946,-0.007974428378780608
1.0064502374428612,0.010924293923755681,0.013707503738740046,0.0013341291502741227,0.008032904237356928,0.001187099741141969
1.0064973194679916,0.02453035587728399,0.018064927674116264,0.011333716656649779,0.016773229202260313,0.011026809340128806
1.006544401493122,0.042966387475684646,0.020694303732248905,0.020787738978896356,0.024594278974654,0.020341107646226254
1.0065914835182523,0.06411092062196938,0.0202767947748422,0.03329944681240632,0.02826489554253852,0.03279112618301014
1.0066385655433827,0.08556714248621351,0.02044108561369054,0.049462130528264495,0.028693316591671816,0.04895136843170457
1.006685647568513,0.10493697207975199,0.0213156141852959,0.06485229624100503,0.026590769877204202,0.06438112389134072
1.0067327295936435,0.12014720761669652,0.02144952963615093,0.07640706666955516,0.023214476534156116,0.07599405312675277
1.0067798116187738,0.12974860817624662,0.020265306928789903,0.08294186479002422,0.01976275474274254,0.08258655200486671
1.0068268936439042,0.1331160769266914,0.02156377811294812,0.08436945777741765,0.015380522667723374,0.0840871589257532
1.0068739756690346,0.13051634907150206,0.020241387924970874,0.08386978816652868,0.011771775764058258,0.08364869408241814
1.006921057694165,0.12301693370584733,0.01668943443824659,0.08185258015702256,0.00866556238270566,0.08168521598583911
1.0069681397192953,0.11219272060745543,0.011899988008512958,0.07585112215539112,0.004720393264110726,0.07575381098467965
1.0070152217444257,0.09964098937742749,0.007705659685021386,0.06985230351433948,0.0012076904470013359,0.06981882285473605
1.007062303769556,0.08648287672211809,0.0040507564906705875,0.06302251331950957,-0.002460299898890026,0.0630569216792011
1.0071093857946865,0.07315337862299943,0.0023965963548258904,0.053521194673379444,-0.005507390790170515,0.05361333222072121
1.0071564678198168,0.05967551136841471,0.0013425988530283164,0.042771215350936226,-0.007917868735730386,0.0429097679152382
1.0072035498449472,0.046352747241279996,-0.0005410077609860602,0.029687677967592516,-0.009481943323478223,0.029857166357782575
1.0072506318700776,0.03458526276589038,-0.0017459957822904247,0.01916866027493343,-0.009606653163494286,0.01934186686713646
1.007297713895208,0.02727830692374265,-0.002664441320777022,0.01473006896934623,-0.009628486314563556,0.014904253958381367
1.0073447959203383,0.0280866607277734,-0.002489605797968985,0.01711698325886342,-0.008935888077398164,0.017278093091369424
1.0073918779454687,0.03925806445151868,0.0004631452418413879,0.028584290137595406,-0.006556226602119861,0.028699837245764602
1.007438959970599,0.059562255279517966,0.004445116760916431,0.043832242766228824,-0.003722044742594975,0.043893080291192835
1.0074860419957294,0.08449757331606145,0.007633644109367009,0.058037587268334905,-0.0013669341634578922,0.05805283783210549
1.0075331240208598,0.10858230355013457,0.00913414391608423,0.06858033205585247,0.0013800195399667823,0.06854394129317856
1.0075802060459902,0.12742598805780986,0.01097263804327435,0.07621925524513734,0.003496889167836268,0.07614368659455598
1.0076272880711206,0.13840784538629322,0.011699215553974561,0.07904744927672683,0.0050526312713624205,0.07894382294062215
1.007674370096251,0.14057521646913557,0.011162869220327751,0.0769603579802706,0.006731282359400752,0.07682734284996705
