freq,gls,usurper,pdc_unbiased,shape_periodogram,shift_periodogram
1.0,0.02176245538732735,0.02589012189750031,-0.007335655112181927,0.010747435797425119,-0.007781589716472267
1.0000470820251304,0.05134779247241603,0.0401289967759059,0.016081221596065367,0.01773767014554541,0.015323673358662785
1.0000941640502607,0.09689124580742478,0.05716258506295044,0.05094334186944231,0.033151002962415396,0.04953655102024796
1.0001412460753911,0.14848755125694818,0.0761310199406963,0.08456655871201842,0.05335504268987696,0.08238818820330149
1.0001883281005215,0.19664060203551523,0.09488272480196842,0.10917973127593883,0.07690843323671354,0.10621664064435965
1.0002354101256519,0.23592916525893703,0.10918993331966768,0.12678225514793529,0.09580054761974652,0.12329486378491888
1.0002824921507822,0.26363730657080775,0.11778385983466931,0.13936052532630389,0.10814673859662469,0.13559950429303158
1.0003295741759126,0.2780607972143743,0.12347874149282731,0.14663287491158739,0.11622560970375836,0.14271698005052438
1.000376656201043,0.27778293516045677,0.12558948310725976,0.14742341655727248,0.1205483808674431,0.143409054024919
1.0004237382261734,0.2619162710265795,0.12263000094811581,0.139633635428265,0.12141524490208151,0.13553367811425596
1.0004708202513037,0.23107843684954268,0.11506404017216185,0.12167319492364326,0.11782050071428331,0.11752437466477651
1.0005179022764341,0.1884924826566669,0.10468448787447276,0.09811663264576473,0.11165400595379527,0.09398162897322707
1.0005649843015645,0.1401213853463462,0.09595791219302278,0.07552593926328457,0.10517155055775636,0.07146611591948941
1.0006120663266949,0.09311329616242185,0.08855772690701161,0.056936636782797936,0.09717801737929177,0.05306822893138238
1.0006591483518252,0.05338098213176131,0.08299457533369226,0.04656239048066332,0.08611311074304763,0.04307010311201608
1.0007062303769556,0.024158292773911582,0.07537892332446638,0.0379052596807291,0.0713586230131341,0.034965562092678176
1.000753312402086,0.006389706849983347,0.06640517864408124,0.024925530867037873,0.05380055411853895,0.022675496198327427
1.0008003944272164,4.4957735270936574e-05,0.06000059045696271,0.013623927240606612,0.03843748510940592,0.012004543726884817
1.0008474764523467,0.004476680458159687,0.054680146698271974,0.005279248516488982,0.03190828859174653,0.003934629013748038
1.000894558477477,0.016631009383087918,0.057096886729853184,0.00604487589630294,0.033528791431264665,0.004632042505726862
1.0009416405026075,0.030279800796216314,0.06695135122774586,0.01614856324889533,0.04262927806573216,0.014355053208675328
1.0009887225277379,0.04019506929021177,0.08147160753987993,0.031662352407458065,0.058448911059612196,0.029229466167939495
1.0010358045528682,0.045271217739530065,0.09377467811331659,0.049643587368788454,0.07751673095613378,0.04649042031840496
1.0010828865779986,0.04665854735345898,0.10280119786715072,0.06394396252727896,0.09505957911996676,0.06018413285168575
1.001129968603129,0.04557434040645729,0.10790082413765673,0.06951556918541625,0.107459655431053,0.06534219824061178
1.0011770506282593,0.04281463251624272,0.10647379387611486,0.06676401531502141,0.11206659006349737,0.06241283199041167
1.0012241326533897,0.03911406922799136,0.0994990940448553,0.05756222886158259,0.11023148320196609,0.053219967194955316
1.00127121467852,0.035734840091298535,0.08959256172858601,0.04469056838221148,0.10505291868096697,0.04046831053870763
1.0013182967036505,0.034632288517627896,0.08156258920418104,0.03354469161607427,0.10081769522768816,0.02943096817984649
1.0013653787287808,0.03686446430802818,0.08015741015415055,0.03235087082016887,0.09927184131007112,0.028292490877851
1.0014124607539112,0.040499198873267514,0.08483112321186795,0.04235422606047071,0.10154499776396043,0.03825385049784054
1.0014595427790416,0.04245011553894062,0.0913237840197107,0.05148956578485458,0.10569068245829517,0.047279384533419413
1.001506624804172,0.04142424671447975,0.09499281221315987,0.057489670337512934,0.10574338678756594,0.05331001166516481
1.0015537068293023,0.03772147907862947,0.09484026090963371,0.05838903434484734,0.09942712637631185,0.05444468525307635
1.0016007888544327,0.032149333674356434,0.0892103706378427,0.05286952532393206,0.08662664142344846,0.049378931900962555
1.001647870879563,0.025799799790141527,0.07760663591797413,0.040386054375886556,0.06748848583846098,0.03760402448380872
1.0016949529046935,0.020580986012262138,0.061548113974121764,0.02276083148008517,0.04632156887167699,0.020816236015135978
1.0017420349298238,0.01993155776046648,0.05104676516920648,0.008396000375120035,0.030806916758356426,0.007096383230862412
1.0017891169549542,0.027489951613850306,0.049850098628315125,0.00883020356959996,0.02941801409352576,0.0075885410897762505
1.0018361989800846,0.042074300128446054,0.053763141265837325,0.022145335055818467,0.03793678249882756,0.02054608256434702
1.001883281005215,0.05845891480384451,0.0650954034148229,0.04104344236602053,0.05428566757573039,0.03878659725602866
1.0019303630303453,0.07582159493280267,0.07860995269506756,0.05832937685591873,0.07346702391339548,0.055352111801211294
1.0019774450554757,0.09824195100672209,0.0884329913701472,0.07041397317164165,0.09356268565665363,0.0667359686223177
1.002024527080606,0.1303669711588208,0.09046213949574275,0.07896421651578898,0.10727111325236335,0.07485242290895605
1.0020716091057364,0.17464242099810953,0.08914539048114317,0.08832693698111686,0.11604807626696013,0.08398599295987681
1.0021186911308668,0.22917237164395338,0.09360519546726578,0.11355266104308831,0.12283027602605298,0.10919970180412626
1.0021657731559972,0.2864808872447173,0.10177069911921285,0.14880372324738836,0.12944392035621888,0.1445954846614835
1.0022128551811276,0.335488571803669,0.10908483479236442,0.17945522269565434,0.13489158630699405,0.1754464377963871
1.002259937206258,0.3667004160945303,0.11288238880797438,0.20044309409803335,0.13709310468268857,0.19662698677390336
1.0023070192313883,0.37630521047742305,0.11262281094874706,0.20989430295355302,0.13514443139821303,0.2062068424473084
1.0023541012565187,0.3658732131217113,0.10861785877129677,0.20800353236518512,0.12936023653992026,0.20437343837768487
1.002401183281649,0.3393357840705059,0.10252225669325349,0.19716291122807472,0.12038368531226719,0.19357261586118726
1.0024482653067794,0.30043566038503033,0.0944468157714449,0.1783931936762516,0.10592037634454848,0.17494549489238212
1.0024953473319098,0.25183659939415354,0.08279751715463317,0.15384153094853617,0.08455756266251446,0.15080270712278135
1.0025424293570402,0.1956066522565673,0.0649758477186871,0.12081929242955049,0.058038686715369964,0.11852207065643958
1.0025895113821706,0.13475970805500284,0.04370211200327967,0.07564140824241966,0.026597699116684637,0.07449185679430555
1.002636593407301,0.07582916802294695,0.0266384730741204,0.025728531183742454,0.0014777718769895317,0.025643718492260877
1.0026836754324313,0.03145358980808763,0.021698991052190683,-0.0040036080406334615,-0.0026171652296775047,-0.003890009088367034
1.0027307574575617,0.01779891286180085,0.03189528575747127,-0.006351274616742859,0.01793583216861568,-0.007101089132515726
1.002777839482692,0.04358985242398123,0.047274036037141906,0.006591376950054447,0.0511756975081772,0.004439119676323765
1.0028249215078224,0.1037077589167159,0.07087794675791385,0.04281328660270074,0.08288358302990738,0.039433845997850624
1.0028720035329528,0.18101238562213362,0.09730579464993042,0.0979436666785688,0.10465776008096213,0.09402832336741275
1.0029190855580832,0.25636899888384335,0.11874721100200983,0.15380629462607742,0.11743067169269227,0.14991732687766546
1.0029661675832136,0.31832235074100634,0.13283558231984147,0.19704252226634572,0.1226491121995365,0.19341255822304976
1.003013249608344,0.36361141655314383,0.14040418144298353,0.228525784613192,0.12451947955786873,0.22515739106931384
1.0030603316334743,0.39341420767750745,0.14365095724070126,0.24979870354304085,0.12366685305795957,0.24663911646621975
1.0031074136586047,0.4102870696014962,0.14332261845058017,0.26258314989231946,0.12123305727466566,0.2595633404468447
1.003154495683735,0.41662904201390033,0.14069738196489875,0.266777273312063,0.11697125723682608,0.26383128065798533
1.0032015777088654,0.41405085665469693,0.13584014265913377,0.26326150551395927,0.11075294290051353,0.2603482965499972
1.0032486597339958,0.4030953535584088,0.12871359533599633,0.251751202986526,0.10239832249154389,0.2488597068275315
1.0032957417591262,0.38301151602067063,0.11907783558310868,0.2324239377319079,0.09182922836909936,0.2295900276807425
1.0033428237842565,0.3514583105172215,0.10653967937987328,0.2047530276495091,0.0788131222521521,0.2020705581763726
1.003389905809387,0.3042863356687068,0.090604463058733,0.16911475512504195,0.06357579941659566,0.16673547047756096
1.0034369878345173,0.2364892670841809,0.07203368340221196,0.12615890065588273,0.046543218101435614,0.12426990362963963
1.0034840698596477,0.14805992805189566,0.0525685970429463,0.07745804013496241,0.02914754527874189,0.07620704622378324
1.003531151884778,0.05937981673678241,0.038598175069830105,0.035632586371168055,0.01569977650643646,0.03494633221591152
1.0035782339099084,0.016571701488668728,0.03545148031329884,0.012038086514572617,0.010357889642175115,0.01159251855474111
1.0036253159350388,0.04141534161646615,0.04599058187338206,0.014399178728297872,0.01761784613033522,0.013647807643350888
1.0036723979601692,0.0978579156313711,0.06555022615812164,0.03595348541122598,0.035328822400167076,0.03446010317548946
1.0037194799852995,0.14599333246590304,0.09026817102032517,0.06503465797160808,0.056092369918075126,0.06273100105485102
1.00376656201043,0.17300879075255565,0.109192301517279,0.0922030709843016,0.07510910331840026,0.08925214559510038
1.0038136440355603,0.18229222765708752,0.12123008966947497,0.11374971918924169,0.0868285615403618,0.11047906249886226
1.0038607260606907,0.18262972424027749,0.12609429204513975,0.12736778710133306,0.09487400476441868,0.12391073759990834
1.003907808085821,0.18292620727983336,0.12766356383936875,0.13485525602086357,0.10147632430856374,0.13124832567857597
1.0039548901109514,0.18798821740501145,0.12852074962662488,0.13913083302593265,0.10562892987291236,0.13543569956564286
1.0040019721360818,0.19658928748535154,0.12633732769400963,0.1397247738744464,0.10682797086928358,0.13600126449767966
1.0040490541612122,0.20361099360789395,0.12198881177961858,0.1356935801867525,0.1070423663289399,0.1319383415323238
1.0040961361863425,0.20356945018764083,0.11441199557746833,0.1287855413388881,0.10518150647330131,0.1250383863606893
1.004143218211473,0.19261735903368254,0.10451900384878654,0.11776025800915435,0.10146094878453024,0.1140564703650212
1.0041903002366033,0.1692114287165738,0.0913481018553055,0.09836742477706704,0.09341026790216202,0.09481804032734639
1.0042373822617336,0.13469585530973552,0.07578945637419378,0.07519967777083232,0.08079729685413446,0.07199699399180419
1.004284464286864,0.094068350002802,0.05935172272059931,0.051842634052145065,0.06508885454403215,0.049173849991126235
1.0043315463119944,0.0558705414627791,0.04390594549055948,0.03082107495389939,0.04710195687604226,0.02884745290025483
1.0043786283371248,0.029785725493520713,0.03351284428141337,0.019809015244991575,0.030296177435053754,0.018526504568962966
1.0044257103622551,0.022326134922130727,0.02868946517016583,0.01684685304795892,0.017850053331611156,0.01608408237081121
1.0044727923873855,0.03362727707623793,0.029071578463082712,0.01768087969631584,0.012197997420370381,0.01715372729559674
1.004519874412516,0.057935866130881315,0.034102235072147866,0.0238553638180855,0.013275902189950083,0.02327842680986706
1.0045669564376463,0.08691312585069338,0.04354859142146308,0.038233159934289905,0.02223308642834715,0.03727550085326325
1.0046140384627766,0.11302745450084833,0.05631701599858776,0.05542672474865837,0.03918048685031565,0.05377851116583758
1.004661120487907,0.13143773576861661,0.0692157945992067,0.07126698378066398,0.059173288578274294,0.06885387773815908
1.0047082025130374,0.140315951549541,0.08130612483511672,0.0817840112464661,0.07910510867732977,0.07866206797367821
1.0047552845381678,0.14016084842095028,0.08753807572644116,0.0846685751900148,0.09545899870412629,0.08098785811458847
1.0048023665632981,0.13271042804166153,0.08844250148345759,0.08028160564993014,0.10688039510537399,0.07619073772584291
1.0048494485884285,0.1199532079956697,0.085827845144187,0.06958311394397716,0.11482370490035114,0.06515434368823839
1.0048965306135589,0.10352759540252561,0.08367247252694773,0.05738407400153901,0.1182146486751558,0.052752933204654615
1.0049436126386893,0.08458770500586026,0.07969925821391971,0.04469505929439128,0.11667372926461551,0.04003465493241095
1.0049906946638196,0.06411017510052013,0.0756261933068457,0.03435472552873721,0.11089172605032085,0.029851613182298346
1.00503777668895,0.043500849939608656,0.06888290052295497,0.022887706523455283,0.10147904934017782,0.018698729438778712
1.0050848587140804,0.02497562650004661,0.05955509144363648,0.013888116903115118,0.08833362850100655,0.01020139089432285
1.0051319407392107,0.011013597455985432,0.05055022157241881,0.011624969459267675,0.07342315198190047,0.008550212773150196
1.0051790227643411,0.003334338693202587,0.041192910659913345,0.009001101837417943,0.05543083809506036,0.00667230860149688
1.0052261047894715,0.0027948227754708652,0.0288276623926536,0.005716764128480125,0.03518293688023185,0.004234663292365779
1.0052731868146019,0.010164673003053454,0.018428604378586975,0.005314070387151807,0.01754078338841033,0.00457237090832132
1.0053202688397322,0.026566180290056158,0.011627441333636267,0.008193549268036414,0.004238548839330448,0.008008125002662151
1.0053673508648626,0.05291846997433676,0.00891081945328312,0.011498759854167706,-0.002465280950095701,0.011592285811176908
1.005414432889993,0.08828034555015178,0.008823174243378083,0.017065936640710815,-0.004150174140594468,0.017225459602084978
1.0054615149151234,0.12763762777320273,0.011128873915033591,0.025647230237824777,-0.0012764753037771209,0.025678205630007254
1.0055085969402537,0.16155770115500132,0.0166403350558995,0.038076850744054896,0.009131576817537786,0.03766154659627497
1.0055556789653841,0.18078890709766565,0.024584579879939696,0.05135766337998839,0.02462582339783917,0.050295851165942096
1.0056027609905145,0.18307418566708303,0.031106209015475023,0.06056084021799014,0.041840470268540465,0.05880842860694231
1.0056498430156449,0.1741533504439713,0.037893382375580154,0.06655908741414072,0.057440338673732605,0.0642056449296733
1.0056969250407752,0.16242605985016223,0.0432629325164824,0.07063087442771013,0.07079605102178471,0.06778175479809025
1.0057440070659056,0.15418810481596457,0.04475956702101297,0.07107575192890922,0.07917795434825746,0.06791938329590846
1.005791089091036,0.1523552110015489,0.042852875151683796,0.0660360559428213,0.08227287336288974,0.06275097486137649
1.0058381711161664,0.15691036178882456,0.042035692066131045,0.06130313889977103,0.08211066921864313,0.058009275658075246
1.0058852531412967,0.16538784679386007,0.04314001962890676,0.06307528196508604,0.0794879967039951,0.059884270751496924
1.005932335166427,0.17322460684996496,0.042219932808621845,0.06323184659303546,0.07388006254052867,0.06025063486573161
1.0059794171915575,0.17475929729964576,0.03823980625388235,0.05880087400333982,0.06522151535160728,0.056138641769200706
1.0060264992166879,0.16548577922015562,0.033273418216648455,0.05204155960234529,0.05577826201117749,0.049736046622934175
1.0060735812418182,0.1445721481217929,0.027986920328149544,0.04234591607178599,0.04479646071348636,0.04046986558228845
1.0061206632669486,0.11538472372115638,0.023595320099719073,0.03266210113426135,0.03420583250147457,0.031215053822995827
1.006167745292079,0.08342022676517998,0.02199940656962241,0.0259645785337829,0.026217003679341943,0.024848590501024517
1.0062148273172093,0.053714935068683495,0.023638393045319568,0.01794830890199036,0.02112184401910083,0.01704830282315815
1.0062619093423397,0.029620632829972474,0.026176556538458157,0.006428025048282717,0.018940483084526512,0.005626793875734821
1.00630899136747,0.012907514843990737,0.027939023173589445,-0.004503164505502606,0.018176463716295284,-0.005264485868345894
1.0063560733926005,0.004292560353454192,0.030575379451010912,-0.010519166817943732,0.019279386341757774,-0.011322669533042586
1.0064031554177308,0.0038095921685766332,0.033325967017540196,-0.007972360122875525,0.02025044913787595,-0.008818715539048044
1.0064502374428612,0.010924293923755681,0.039759080928155326,0.0013341291502741227,0.025905807192087377,0.0002434883311673208
1.0064973194679916,0.02453035587728399,0.04638772041565063,0.011333716656649779,0.03417655572668122,0.009892317506066504
1.006544401493122,0.042966387475684646,0.05187512640660671,0.020787738978896356,0.04279824945543909,0.018987808142927155
1.0065914835182523,0.06411092062196938,0.05558523200509643,0.03329944681240632,0.04938957573792722,0.031234113430710714
1.0066385655433827,0.08556714248621351,0.060637357187513785,0.049462130528264495,0.05471748956634558,0.04719575918857896
1.006685647568513,0.10493697207975199,0.06315332720283806,0.06485229624100503,0.057944509666714675,0.062477462854224126
1.0067327295936435,0.12014720761669652,0.0629345513396151,0.07640706666955516,0.05877400783761886,0.07401608824411546
1.0067798116187738,0.12974860817624662,0.059780663972235686,0.08294186479002422,0.05649658277083777,0.0806445724759527
1.0068268936439042,0.1331160769266914,0.05670920778952728,0.08436945777741765,0.051859245578036346,0.08224678824915604
1.0068739756690346,0.13051634907150206,0.05194329302799404,0.08386978816652868,0.04652488927606308,0.08194760749230509
1.006921057694165,0.12301693370584733,0.04520438509359035,0.08185258015702256,0.03943010971629619,0.08020053989330565
1.0069681397192953,0.11219272060745543,0.036986543477008534,0.07585112215539112,0.031457950868401606,0.07450919609379303
1.0070152217444257,0.09964098937742749,0.029096001863462447,0.06985230351433948,0.02414592057136538,0.06880254049371569
1.007062303769556,0.08648287672211809,0.023615447485342812,0.06302251331950957,0.01905140655392116,0.06218165165212967
1.0071093857946865,0.07315337862299943,0.020255424510218674,0.053521194673379444,0.015382851167058807,0.05283597726825229
1.0071564678198168,0.05967551136841471,0.017706458989554523,0.042771215350936226,0.012500087635977522,0.0422124263401717
1.0072035498449472,0.046352747241279996,0.016091168804211388,0.029687677967592516,0.011662456959356401,0.02917355345305899
1.0072506318700776,0.03458526276589038,0.016334065152769174,0.01916866027493343,0.012850068368543296,0.018613084294700828
1.007297713895208,0.02727830692374265,0.018629974050417126,0.01473006896934623,0.014343639969072326,0.014115415132556217
1.0073447959203383,0.0280866607277734,0.0240733282709583,0.01711698325886342,0.018486568998258072,0.01632745161780485
1.0073918779454687,0.03925806445151868,0.03509201882131591,0.028584290137595406,0.027397240257224252,0.02741838680095083
1.007438959970599,0.059562255279517966,0.04906285666287828,0.043832242766228824,0.03827295492751664,0.042219193158003494
1.0074860419957294,0.08449757331606145,0.06224549057220173,0.058037587268334905,0.05089341238771643,0.05592858582368682
1.0075331240208598,0.10858230355013457,0.07294926868917567,0.06858033205585247,0.06267877396168185,0.06603091250377546
1.0075802060459902,0.12742598805780986,0.0797761028713933,0.07621925524513734,0.07108070517827028,0.073372268083714
1.0076272880711206,0.13840784538629322,0.08227283326182795,0.07904744927672683,0.07568626203704876,0.07604015721557247
1.007674370096251,0.14057521646913557,0.07896533240846368,0.0769603579802706,0.07637184391553309,0.0739226346118269
1.0077214521213813,0.1345761316442056,0.07188535021054994,0.07084930100861353,0.07303039537169002,0.06791802924042865
1.0077685341465117,0.12269802495893224,0.06184575187393181,0.062425783036096825,0.06511298456073028,0.05977392082270736
