freq,gls,usurper,pdc_unbiased,shape_periodogram,shift_periodogram
1.0,0.02176245538732735,0.00886276962783821,-0.007335655112181927,0.006421956734062382,-0.007367497348469275
1.0000470820251304,0.05134779247241603,0.01335075208578926,0.016081221596065367,0.006561706230148971,0.016048908331277284
1.0000941640502607,0.09689124580742478,0.017745452591621504,0.05094334186944231,0.009578039216993878,0.050897830083513375
1.0001412460753911,0.14848755125694818,0.021115788254180944,0.08456655871201842,0.015906697148329124,0.08449826359952213
1.0001883281005215,0.19664060203551523,0.02502668419607506,0.10917973127593883,0.02605524999185643,0.1090883513734588
1.0002354101256519,0.23592916525893703,0.029342331242251336,0.12678225514793529,0.035709814347389075,0.12668774070713715
1.0002824921507822,0.26363730657080775,0.03418956148440335,0.13936052532630389,0.04255244457898438,0.13927806210522947
1.0003295741759126,0.2780607972143743,0.0370116220834192,0.14663287491158739,0.04624721666956317,0.1465630231892015
1.000376656201043,0.27778293516045677,0.03700302965814819,0.14742341655727248,0.04901127482826945,0.1473601967588334
1.0004237382261734,0.2619162710265795,0.03569874863993419,0.139633635428265,0.049515141811642405,0.1395618863353439
1.0004708202513037,0.23107843684954268,0.03305868340721407,0.12167319492364326,0.04785859304312874,0.12157735864823252
1.0005179022764341,0.1884924826566669,0.029633768222226915,0.09811663264576473,0.045014905857985774,0.09799424542021588
1.0005649843015645,0.1401213853463462,0.027033186833603784,0.07552593926328457,0.04226462666642741,0.07538460864052957
1.0006120663266949,0.09311329616242185,0.02564200316090546,0.056936636782797936,0.03833948235384402,0.056788733902889646
1.0006591483518252,0.05338098213176131,0.025988558888208783,0.04656239048066332,0.03340974919980234,0.04642287002714674
1.0007062303769556,0.024158292773911582,0.025907433080311796,0.0379052596807291,0.027195973201632147,0.03778444596164132
1.000753312402086,0.006389706849983347,0.0266144793839304,0.024925530867037873,0.02024535842020268,0.024830209058874328
1.0008003944272164,4.4957735270936574e-05,0.027263272427780788,0.013623927240606612,0.01454318463797192,0.01355323817705805
1.0008474764523467,0.004476680458159687,0.02745669132774656,0.005279248516488982,0.012377143607572126,0.005218330727837208
1.000894558477477,0.016631009383087918,0.03176233540858424,0.00604487589630294,0.014421139255062467,0.005974055692274972
1.0009416405026075,0.030279800796216314,0.0391317715212703,0.01614856324889533,0.019767110174836656,0.016053710606738388
1.0009887225277379,0.04019506929021177,0.04695969283903042,0.031662352407458065,0.030242940399849347,0.03152692127945689
1.0010358045528682,0.045271217739530065,0.05276078489109548,0.049643587368788454,0.04328638765844384,0.0494758015274732
1.0010828865779986,0.04665854735345898,0.05902075232199555,0.06394396252727896,0.05461498989291812,0.06376932851942436
1.001129968603129,0.04557434040645729,0.06270771890158601,0.06951556918541625,0.06352433125124819,0.06934198062057015
1.0011770506282593,0.04281463251624272,0.06355447320132245,0.06676401531502141,0.06828692483069415,0.06658222482859073
1.0012241326533897,0.03911406922799136,0.06328028631986186,0.05756222886158259,0.06842492070132496,0.05735855048680322
1.00127121467852,0.035734840091298535,0.06079195388628194,0.04469056838221148,0.0650487764923465,0.04446303142905658
1.0013182967036505,0.034632288517627896,0.057177551117431995,0.03354469161607427,0.061704590370008146,0.033302801160463524
1.0013653787287808,0.03686446430802818,0.05303228387932759,0.03235087082016887,0.05959097669960117,0.032113023680916196
1.0014124607539112,0.040499198873267514,0.05069506046896723,0.04235422606047071,0.05962226968469772,0.042134245160437046
1.0014595427790416,0.04245011553894062,0.050944832953666044,0.05148956578485458,0.0616405777895905,0.05128234056469919
1.001506624804172,0.04142424671447975,0.052027869237174,0.057489670337512934,0.06045201882650326,0.05729570630170254
1.0015537068293023,0.03772147907862947,0.05341747182645145,0.05838903434484734,0.055213327208854676,0.058204943474579725
1.0016007888544327,0.032149333674356434,0.050847759951322645,0.05286952532393206,0.046820394345800466,0.05269575870508971
1.001647870879563,0.025799799790141527,0.043903764257776375,0.040386054375886556,0.0355409607733793,0.040235472914803685
1.0016949529046935,0.020580986012262138,0.035735068670468585,0.02276083148008517,0.02349336284456705,0.022650620928904103
1.0017420349298238,0.01993155776046648,0.03206977310952966,0.008396000375120035,0.014993779330253436,0.008322635543770673
1.0017891169549542,0.027489951613850306,0.030324991037789,0.00883020356959996,0.013724508683981486,0.008763005017050988
1.0018361989800846,0.042074300128446054,0.029066916596943226,0.022145335055818467,0.01673586436441057,0.022065386518970508
1.001883281005215,0.05845891480384451,0.03284234751470214,0.04104344236602053,0.022776021632407904,0.04094110692900172
1.0019303630303453,0.07582159493280267,0.03655899696888268,0.05832937685591873,0.03133250723559462,0.058202866608387985
1.0019774450554757,0.09824195100672209,0.037500809559652404,0.07041397317164165,0.04344831913935256,0.07026570503959563
1.002024527080606,0.1303669711588208,0.03413998622026348,0.07896421651578898,0.05035964516776267,0.07881572753038374
1.0020716091057364,0.17464242099810953,0.030564314156271595,0.08832693698111686,0.054092909473310934,0.08818938678521074
1.0021186911308668,0.22917237164395338,0.029649761903573647,0.11355266104308831,0.057183258279171444,0.11345699264305498
1.0021657731559972,0.2864808872447173,0.031018790434892148,0.14880372324738836,0.06066007496004202,0.14877955837861118
1.0022128551811276,0.335488571803669,0.032816832920685844,0.17945522269565434,0.06340364288907466,0.1795038812808232
1.002259937206258,0.3667004160945303,0.033313919828852796,0.20044309409803335,0.06442526605905866,0.20054079705249234
1.0023070192313883,0.37630521047742305,0.03252372648234973,0.20989430295355302,0.06371016469552056,0.2100049918295065
1.0023541012565187,0.3658732131217113,0.030861372983788056,0.20800353236518512,0.06153638729914425,0.2080934087363453
1.002401183281649,0.3393357840705059,0.028413490803169596,0.19716291122807472,0.05904573367491953,0.19721595544416592
1.0024482653067794,0.30043566038503033,0.026553245282009908,0.1783931936762516,0.05336395424989707,0.17838556989024
1.0024953473319098,0.25183659939415354,0.026273926493694755,0.15384153094853617,0.04241682816438658,0.15377229255991387
1.0025424293570402,0.1956066522565673,0.023506271877295124,0.12081929242955049,0.028199966210725964,0.12072862605509192
1.0025895113821706,0.13475970805500284,0.02084712194272748,0.07564140824241966,0.010213333552087728,0.07559429382531842
1.002636593407301,0.07582916802294695,0.020417794749544152,0.025728531183742454,-0.0047482551957065515,0.02575198252066534
1.0026836754324313,0.03145358980808763,0.015354416044683057,-0.0040036080406334615,-0.00503240105392408,-0.00397870426807558
1.0027307574575617,0.01779891286180085,0.012608811284739624,-0.006351274616742859,0.010509912557240118,-0.006403561641327962
1.002777839482692,0.04358985242398123,0.01849553079377402,0.006591376950054447,0.030112129880922673,0.006445201216238325
1.0028249215078224,0.1037077589167159,0.03165017779576911,0.04281328660270074,0.045413275406392624,0.04263252887925548
1.0028720035329528,0.18101238562213362,0.04274858630853854,0.0979436666785688,0.055205498600770835,0.09782092517893627
1.0029190855580832,0.25636899888384335,0.049184329485316286,0.15380629462607742,0.0579618370427984,0.15378013482989208
1.0029661675832136,0.31832235074100634,0.05115810824590601,0.19704252226634572,0.059887102356532405,0.197100942786591
1.003013249608344,0.36361141655314383,0.0537845109131041,0.228525784613192,0.06139451468550151,0.22865158895476345
1.0030603316334743,0.39341420767750745,0.05408197669423791,0.24979870354304085,0.05924281418465818,0.24994125927850155
1.0031074136586047,0.4102870696014962,0.05262539515853828,0.26258314989231946,0.05699015400058599,0.26272433083633473
1.003154495683735,0.41662904201390033,0.05056735520985873,0.266777273312063,0.05388788920524183,0.2668957098573608
1.0032015777088654,0.41405085665469693,0.04791823048558681,0.26326150551395927,0.04981321167005413,0.26334142646631514
1.0032486597339958,0.4030953535584088,0.04465834604584881,0.251751202986526,0.04489461230735052,0.2517846923353249
1.0032957417591262,0.38301151602067063,0.040768406068993436,0.2324239377319079,0.03897647623165766,0.23241082691480094
1.0033428237842565,0.3514583105172215,0.036085848859910265,0.2047530276495091,0.032262337199576864,0.20470298326948033
1.003389905809387,0.3042863356687068,0.030350314246483122,0.16911475512504195,0.025077736113494113,0.1690455595938319
1.0034369878345173,0.2364892670841809,0.023949247806930026,0.12615890065588273,0.017539600403248586,0.12609172659373455
1.0034840698596477,0.14805992805189566,0.017959697745149456,0.07745804013496241,0.009911906249548902,0.07741226302503433
1.003531151884778,0.05937981673678241,0.014864037223103402,0.035632586371168055,0.004362317648302979,0.03561094060180453
1.0035782339099084,0.016571701488668728,0.016682633998216085,0.012038086514572617,0.003020038971702221,0.012023050782945655
1.0036253159350388,0.04141534161646615,0.02436249278829743,0.014399178728297872,0.010360735435433702,0.01434851226255863
1.0036723979601692,0.0978579156313711,0.03756983112447772,0.03595348541122598,0.02466428624891604,0.03584210564618626
1.0037194799852995,0.14599333246590304,0.05471064660107515,0.06503465797160808,0.038638966437508256,0.0648921014142421
1.00376656201043,0.17300879075255565,0.06801451937326833,0.0922030709843016,0.05004175430395704,0.09207181245680598
1.0038136440355603,0.18229222765708752,0.0754213370431468,0.11374971918924169,0.05600487195078496,0.11365260067438461
1.0038607260606907,0.18262972424027749,0.07681480346634587,0.12736778710133306,0.05936677023766273,0.12730044506557237
1.003907808085821,0.18292620727983336,0.07804608653094795,0.13485525602086357,0.06120351316559787,0.13480708270720165
1.0039548901109514,0.18798821740501145,0.0796787699861692,0.13913083302593265,0.06256249639350567,0.13909568807982417
1.0040019721360818,0.19658928748535154,0.07756740119571041,0.1397247738744464,0.061912186838344374,0.13968836198915235
1.0040490541612122,0.20361099360789395,0.07277883047924297,0.1356935801867525,0.06255256009721251,0.13565163989670656
1.0040961361863425,0.20356945018764083,0.06533881766581581,0.1287855413388881,0.06037036528541244,0.1287235042497229
1.004143218211473,0.19261735903368254,0.05839017267239184,0.11776025800915435,0.058501291018671416,0.1176740485900893
1.0041903002366033,0.1692114287165738,0.04980241178228961,0.09836742477706704,0.05321658361105304,0.0982445345667862
1.0042373822617336,0.13469585530973552,0.04031052529691815,0.07519967777083232,0.044421446396043084,0.07505444481861057
1.004284464286864,0.094068350002802,0.030111744842570985,0.051842634052145065,0.0348794090885999,0.051701448119401104
1.0043315463119944,0.0558705414627791,0.02073211170461875,0.03082107495389939,0.0242719121396248,0.030709783624650638
1.0043786283371248,0.029785725493520713,0.013933436160954663,0.019809015244991575,0.01421411856460061,0.01974046081271821
1.0044257103622551,0.022326134922130727,0.010440662708722945,0.01684685304795892,0.006160680931071014,0.01681648912617794
1.0044727923873855,0.03362727707623793,0.00983480559993576,0.01768087969631584,0.001630202614590224,0.01767262249701436
1.004519874412516,0.057935866130881315,0.011661001098106251,0.0238553638180855,0.0005968726719524054,0.0238521246351149
1.0045669564376463,0.08691312585069338,0.015663749583309232,0.038233159934289905,0.004820420109898033,0.03820933131476929
1.0046140384627766,0.11302745450084833,0.02050260273226717,0.05542672474865837,0.014317095830580452,0.055361174387124096
1.004661120487907,0.13143773576861661,0.025836972107821383,0.07126698378066398,0.025991122152623246,0.0711623792798174
1.0047082025130374,0.140315951549541,0.03128868592692937,0.0817840112464661,0.0371652998258741,0.0816569592061238
1.0047552845381678,0.14016084842095028,0.03251128569758156,0.0846685751900148,0.04670224660518754,0.08453046413941309
1.0048023665632981,0.13271042804166153,0.031270953803648575,0.08028160564993014,0.05353837997713454,0.08013240266114748
1.0048494485884285,0.1199532079956697,0.028422116583570092,0.06958311394397716,0.05726062239770491,0.06941426929426366
1.0048965306135589,0.10352759540252561,0.027380004230950487,0.05738407400153901,0.0589659428360596,0.057192169783964915
1.0049436126386893,0.08458770500586026,0.02557058462245596,0.04469505929439128,0.056490160402453596,0.044486669232734574
1.0049906946638196,0.06411017510052013,0.022738197967462244,0.03435472552873721,0.051098713791165186,0.0341464150583255
1.00503777668895,0.043500849939608656,0.019197150237721453,0.022887706523455283,0.044639567714436945,0.02268927982625628
1.0050848587140804,0.02497562650004661,0.014035233486335638,0.013888116903115118,0.03773433256151384,0.013711013271880752
1.0051319407392107,0.011013597455985432,0.007737130201528618,0.011624969459267675,0.03044692933818202,0.011479494569025389
1.0051790227643411,0.003334338693202587,0.004122371587714976,0.009001101837417943,0.02073881845436912,0.008900280082266333
1.0052261047894715,0.0027948227754708652,0.0017265828554826838,0.005716764128480125,0.008584553307945214,0.005674419694285312
1.0052731868146019,0.010164673003053454,0.001862237655335662,0.005314070387151807,-0.001578495296588807,0.005321823695010696
1.0053202688397322,0.026566180290056158,0.0034188296974869727,0.008193549268036414,-0.007663250846703305,0.008231612766865693
1.0053673508648626,0.05291846997433676,0.0044701812211271974,0.011498759854167706,-0.011223355416379347,0.011554880853858888
1.005414432889993,0.08828034555015178,0.002693966733824343,0.017065936640710815,-0.012353452255968851,0.017128145637629984
1.0054615149151234,0.12763762777320273,0.002441038609652092,0.025647230237824777,-0.010303401671676678,0.025699221478777033
1.0055085969402537,0.16155770115500132,0.004039761776108567,0.038076850744054896,-0.0036681044606106947,0.03809475524529226
1.0055556789653841,0.18078890709766565,0.006859155252984767,0.05135766337998839,0.005677372472497172,0.0513298744511401
1.0056027609905145,0.18307418566708303,0.007886554991601343,0.06056084021799014,0.015197121178236739,0.06049226274766284
1.0056498430156449,0.1741533504439713,0.010356916916075454,0.06655908741414072,0.024231357777381703,0.06645857531189484
1.0056969250407752,0.16242605985016223,0.01129113881319539,0.07063087442771013,0.032654267150954076,0.07050702457708476
1.0057440070659056,0.15418810481596457,0.009779765120970205,0.07107575192890922,0.03898426827148503,0.07093705967631493
1.005791089091036,0.1523552110015489,0.006848910650901355,0.0660360559428213,0.04196357128466136,0.06588670797724475
1.0058381711161664,0.15691036178882456,0.0059240390790178425,0.06130313889977103,0.042748181485837866,0.06114770219491065
1.0058852531412967,0.16538784679386007,0.005747723690106123,0.06307528196508604,0.040143163397605826,0.06292754472179583
1.005932335166427,0.17322460684996496,0.005096086900453521,0.06323184659303546,0.035550087777666765,0.06309591109602518
1.0059794171915575,0.17475929729964576,0.0021756350867280466,0.05880087400333982,0.028702250194952268,0.05868293498855662
1.0060264992166879,0.16548577922015562,-0.0006340710281935177,0.05204155960234529,0.02281556818771005,0.05194194998796878
1.0060735812418182,0.1445721481217929,-0.0026613866253453753,0.04234591607178599,0.01636928306022986,0.0422702565141997
1.0061206632669486,0.11538472372115638,-0.004353502340432353,0.03266210113426135,0.010918753445259704,0.03260969200094796
1.006167745292079,0.08342022676517998,-0.004571526326439623,0.0259645785337829,0.006832882022699153,0.025931083423127145
1.0062148273172093,0.053714935068683495,-0.0028006210842448885,0.01794830890199036,0.003926618992427117,0.017928803594314004
1.0062619093423397,0.029620632829972474,-0.00020103116249325562,0.006428025048282717,0.003890713822830531,0.006408740599393562
1.00630899136747,0.012907514843990737,0.002194261172687138,-0.004503164505502606,0.004082237010329883,-0.004523349716328523
1.0063560733926005,0.004292560353454192,0.006115063266115218,-0.010519166817943732,0.004981953061049933,-0.010543820785824623
1.0064031554177308,0.0038095921685766332,0.01048656150892112,-0.007972360122875525,0.007175557676535358,-0.008007977597027678
1.0064502374428612,0.010924293923755681,0.01660622674901292,0.0013341291502741227,0.011448760073335828,0.001277535942286207
1.0064973194679916,0.02453035587728399,0.024551323887324148,0.011333716656649779,0.017804718628504232,0.011247260528847575
1.006544401493122,0.042966387475684646,0.03143530668556671,0.020787738978896356,0.023651830828068047,0.02067628691022933
1.0065914835182523,0.06411092062196938,0.037778309692476544,0.03329944681240632,0.029561273101922275,0.03316746001163027
1.0066385655433827,0.08556714248621351,0.04316574825742921,0.049462130528264495,0.03443648928669353,0.04932090218505012
1.006685647568513,0.10493697207975199,0.04489287176842128,0.06485229624100503,0.038672372378462425,0.06470951947065944
1.0067327295936435,0.12014720761669652,0.04394515370239256,0.07640706666955516,0.04127728673610996,0.07626825721862199
1.0067798116187738,0.12974860817624662,0.04012618526132495,0.08294186479002422,0.041381828641461255,0.08280860649416935
1.0068268936439042,0.1331160769266914,0.036159437592614585,0.08436945777741765,0.038743313946572655,0.0842415279657783
1.0068739756690346,0.13051634907150206,0.032530785649113735,0.08386978816652868,0.03494119101937234,0.08374844033888217
1.006921057694165,0.12301693370584733,0.02774961115766406,0.08185258015702256,0.027961057563432118,0.08174633744355234
1.0069681397192953,0.11219272060745543,0.021525692112478692,0.07585112215539112,0.0199032022042189,0.07576746644857554
1.0070152217444257,0.09964098937742749,0.014046814364718519,0.06985230351433948,0.012491580630281687,0.06979550112115401
1.007062303769556,0.08648287672211809,0.008336478293760753,0.06302251331950957,0.006612347321986739,0.06299058587204866
1.0071093857946865,0.07315337862299943,0.003740189706248193,0.053521194673379444,0.00270149408704041,0.053507423283628265
1.0071564678198168,0.05967551136841471,-0.0010638964458836216,0.042771215350936226,-0.0003008103581106854,0.04277217908198339
1.0072035498449472,0.046352747241279996,-0.004205834281250852,0.029687677967592516,-0.0006869104649258871,0.029690716785353205
1.0072506318700776,0.03458526276589038,-0.006106153983529441,0.01916866027493343,0.00021906875704536766,0.019167342477777887
1.007297713895208,0.02727830692374265,-0.00536921872810397,0.01473006896934623,0.0006213478144126133,0.01472681736065491
1.0073447959203383,0.0280866607277734,-0.0031768990610947013,0.01711698325886342,0.0027544824159750963,0.017103212409622173
1.0073918779454687,0.03925806445151868,0.0010518585877629407,0.028584290137595406,0.007673651365337857,0.02854684919257351
1.007438959970599,0.059562255279517966,0.006932918939093578,0.043832242766228824,0.013278683927779608,0.043770030458379
1.0074860419957294,0.08449757331606145,0.011864079617957534,0.058037587268334905,0.02073980432302175,0.05794717553019352
1.0075331240208598,0.10858230355013457,0.01603533182522327,0.06858033205585247,0.02659369566516218,0.06847291130397548
1.0075802060459902,0.12742598805780986,0.01818308770282541,0.07621925524513734,0.03030945873347678,0.07610438900385433
1.0076272880711206,0.13840784538629322,0.019551833715577102,0.07904744927672683,0.032589681264290654,0.07892836940256927
1.007674370096251,0.14057521646913557,0.01877569098460081,0.0769603579802706,0.03357586065269233,0.07683779035991359
1.0077214521213813,0.1345761316442056,0.016344455493113953,0.07084930100861353,0.03346346296345572,0.07072347841615105
