freq,gls,usurper,pdc_unbiased,shape_periodogram,shift_periodogram
1.0,0.02176245538732735,0.009958948150005597,-0.007335655112181927,-0.013457581167210504,-0.00711162374996173
1.0000470820251304,0.05134779247241603,0.018148303596049666,0.016081221596065367,-0.003385060343386109,0.0161353346055577
1.0000941640502607,0.09689124580742478,0.02699595668058364,0.05094334186944231,0.012114040739020228,0.050739467946779866
1.0001412460753911,0.14848755125694818,0.037189703162473456,0.08456655871201842,0.021752116088539393,0.08421705551439829
1.0001883281005215,0.19664060203551523,0.04484245757824489,0.10917973127593883,0.03036332995650152,0.10871864627549811
1.0002354101256519,0.23592916525893703,0.04813223084640762,0.12678225514793529,0.036192351429608874,0.12625924425767013
1.0002824921507822,0.26363730657080775,0.04691083863781422,0.13936052532630389,0.03875350989003885,0.13881838060376597
1.0003295741759126,0.2780607972143743,0.046281984223858784,0.14663287491158739,0.03993547805391637,0.14608453093781906
1.000376656201043,0.27778293516045677,0.04610096265036698,0.14742341655727248,0.04017533619185395,0.14687331091133907
1.0004237382261734,0.2619162710265795,0.043300492170848214,0.139633635428265,0.039485783497786385,0.1390838058573527
1.0004708202513037,0.23107843684954268,0.03798476571723397,0.12167319492364326,0.03777229427505526,0.12112780911576154
1.0005179022764341,0.1884924826566669,0.03129963322571297,0.09811663264576473,0.034694567192139016,0.09759300055046673
1.0005649843015645,0.1401213853463462,0.024542899041684423,0.07552593926328457,0.031646790486131234,0.07503139448792011
1.0006120663266949,0.09311329616242185,0.01964773249115688,0.056936636782797936,0.027792128424286498,0.056490839025522155
1.0006591483518252,0.05338098213176131,0.017395668490077915,0.04656239048066332,0.023066687706072016,0.04618607721875035
1.0007062303769556,0.024158292773911582,0.01571758540808553,0.0379052596807291,0.017775031104407136,0.03761115585774216
1.000753312402086,0.006389706849983347,0.01158798032379439,0.024925530867037873,0.011519625965316504,0.024732438219737893
1.0008003944272164,4.4957735270936574e-05,0.008622547265845153,0.013623927240606612,0.004638204309951309,0.013545120619880608
1.0008474764523467,0.004476680458159687,0.004797442034800455,0.005279248516488982,0.0018144585169693514,0.005248370892521886
1.000894558477477,0.016631009383087918,0.005579539507514601,0.00604487589630294,0.002631216736085616,0.006000330370958397
1.0009416405026075,0.030279800796216314,0.01271499368892603,0.01614856324889533,0.006223646349106398,0.016043240161145823
1.0009887225277379,0.04019506929021177,0.023421008033801392,0.031662352407458065,0.01500232701704589,0.03141253161296013
1.0010358045528682,0.045271217739530065,0.03387945235214035,0.049643587368788454,0.024246829303089554,0.049249658648753546
1.0010828865779986,0.04665854735345898,0.03742811797015083,0.06394396252727896,0.033036823517824984,0.06342387425345304
1.001129968603129,0.04557434040645729,0.0399165760975886,0.06951556918541625,0.03974280569795013,0.06890436074024911
1.0011770506282593,0.04281463251624272,0.03853641306427091,0.06676401531502141,0.04359228236205653,0.06609762656444543
1.0012241326533897,0.03911406922799136,0.03306595895209707,0.05756222886158259,0.04462563154784479,0.05687268743361981
1.00127121467852,0.035734840091298535,0.025883348605703665,0.04469056838221148,0.04359329654036202,0.04400372439879219
1.0013182967036505,0.034632288517627896,0.02138884209274942,0.03354469161607427,0.04353846530252875,0.03284871643764201
1.0013653787287808,0.03686446430802818,0.02506889080710264,0.03235087082016887,0.04485895108605498,0.031633758352769326
1.0014124607539112,0.040499198873267514,0.031020951398618372,0.04235422606047071,0.04663134294390876,0.04162056656737388
1.0014595427790416,0.04245011553894062,0.035951637699362535,0.05148956578485458,0.046491540418403844,0.05076751115917546
1.001506624804172,0.04142424671447975,0.037123929673293664,0.057489670337512934,0.04426609229928661,0.05680510431303924
1.0015537068293023,0.03772147907862947,0.03451492342065188,0.05838903434484734,0.04042011466632196,0.05775960806733005
1.0016007888544327,0.032149333674356434,0.03130042167134048,0.05286952532393206,0.03299855960944952,0.05234447314215823
1.001647870879563,0.025799799790141527,0.027853677671248057,0.040386054375886556,0.023417170107064542,0.040003160438226236
1.0016949529046935,0.020580986012262138,0.020911020759916833,0.02276083148008517,0.013456412828110078,0.022536240262660965
1.0017420349298238,0.01993155776046648,0.014844053144125704,0.008396000375120035,0.005814272063632239,0.008298351501874903
1.0017891169549542,0.027489951613850306,0.012434575804478069,0.00883020356959996,0.004000692213863791,0.008762565867745382
1.0018361989800846,0.042074300128446054,0.010725061015517325,0.022145335055818467,0.00876264707455973,0.021997583267459462
1.001883281005215,0.05845891480384451,0.011469915694092165,0.04104344236602053,0.016296255275532193,0.04077300561706016
1.0019303630303453,0.07582159493280267,0.018274270231750187,0.05832937685591873,0.02471401481971936,0.05793028714463999
1.0019774450554757,0.09824195100672209,0.027745560979113182,0.07041397317164165,0.030349915161217284,0.0699356248750084
1.002024527080606,0.1303669711588208,0.03193332378324305,0.07896421651578898,0.035950675203527176,0.07841175091469
1.0020716091057364,0.17464242099810953,0.03090463255001914,0.08832693698111686,0.040132018503325255,0.08772565364865013
1.0021186911308668,0.22917237164395338,0.03500897365563903,0.11355266104308831,0.044228652161798825,0.11292522577146029
1.0021657731559972,0.2864808872447173,0.04220944541886358,0.14880372324738836,0.047406288765895394,0.14818451771301758
1.0022128551811276,0.335488571803669,0.04946044986646602,0.17945522269565434,0.04934950757263168,0.1788610811262873
1.002259937206258,0.3667004160945303,0.05489052378253534,0.20044309409803335,0.0498213367557054,0.1998759489142069
1.0023070192313883,0.37630521047742305,0.05808667718982646,0.20989430295355302,0.04896724589080804,0.20934582745568087
1.0023541012565187,0.3658732131217113,0.058726834894660344,0.20800353236518512,0.0468605454187699,0.20746509767454352
1.002401183281649,0.3393357840705059,0.05759148829134187,0.19716291122807472,0.042947167721585564,0.19663839501679278
1.0024482653067794,0.30043566038503033,0.05331569708928157,0.1783931936762516,0.037096436097102024,0.17790042565568956
1.0024953473319098,0.25183659939415354,0.04584951033767357,0.15384153094853617,0.027707059529684056,0.15343398122125124
1.0025424293570402,0.1956066522565673,0.035884695860650524,0.12081929242955049,0.017822903035757766,0.12053192287738297
1.0025895113821706,0.13475970805500284,0.024073192827323415,0.07564140824241966,0.00726998450415578,0.07551320176594119
1.002636593407301,0.07582916802294695,0.012344339504039832,0.025728531183742454,-0.0016738437226456852,0.02575280890727721
1.0026836754324313,0.03145358980808763,0.014213104761609014,-0.0040036080406334615,-0.004656200537368422,-0.003925708282697876
1.0027307574575617,0.01779891286180085,0.026516414561442398,-0.006351274616742859,0.0013029090300383868,-0.0063720571398910375
1.002777839482692,0.04358985242398123,0.028082296013360847,0.006591376950054447,0.01490330450854289,0.006343477439996863
1.0028249215078224,0.1037077589167159,0.029897771940620165,0.04281328660270074,0.029396147695629093,0.04233837881794236
1.0028720035329528,0.18101238562213362,0.03414529844397019,0.0979436666785688,0.047914927175226496,0.09725585785847014
1.0029190855580832,0.25636899888384335,0.04656067307296098,0.15380629462607742,0.05610846057467617,0.1531212356948387
1.0029661675832136,0.31832235074100634,0.06407151691246278,0.19704252226634572,0.05108494107674169,0.19646266611965227
1.003013249608344,0.36361141655314383,0.07019832748285904,0.228525784613192,0.04677053581962187,0.22801495370168054
1.0030603316334743,0.39341420767750745,0.07387251169575239,0.24979870354304085,0.044489206521991564,0.24932635658956795
1.0031074136586047,0.4102870696014962,0.07470256996716837,0.26258314989231946,0.04103922558585637,0.26214208902151875
1.003154495683735,0.41662904201390033,0.07349017824368316,0.266777273312063,0.037568389112043986,0.26635863134005144
1.0032015777088654,0.41405085665469693,0.07076163052742858,0.26326150551395927,0.033515023700476466,0.26286485631001794
1.0032486597339958,0.4030953535584088,0.06651865481640983,0.251751202986526,0.028523135020026246,0.2513846276478282
1.0032957417591262,0.38301151602067063,0.060910125471634484,0.2324239377319079,0.022905684733931935,0.232100841031007
1.0033428237842565,0.3514583105172215,0.053654345248666496,0.2047530276495091,0.016498105826671022,0.20449541769663132
1.003389905809387,0.3042863356687068,0.04419100372848172,0.16911475512504195,0.009351287493649624,0.16895042191599582
1.0034369878345173,0.2364892670841809,0.03331566382103892,0.12615890065588273,0.002040456412176815,0.12610890020142182
1.0034840698596477,0.14805992805189566,0.022007685076819647,0.07745804013496241,-0.004424620739190778,0.07752103924209026
1.003531151884778,0.05937981673678241,0.014756493739681164,0.035632586371168055,-0.007902336056288749,0.035759879930219014
1.0035782339099084,0.016571701488668728,0.012674532578553856,0.012038086514572617,-0.005510862193819396,0.012128184389510953
1.0036253159350388,0.04141534161646615,0.016348508489295362,0.014399178728297872,0.003545973404238665,0.014338360504737982
1.0036723979601692,0.0978579156313711,0.023782296890434096,0.03595348541122598,0.014099931757212043,0.035718166479879875
1.0037194799852995,0.14599333246590304,0.0320951340062732,0.06503465797160808,0.025665650046549623,0.06462300552720333
1.00376656201043,0.17300879075255565,0.03774775307125218,0.0922030709843016,0.036252454544760906,0.09165524616362793
1.0038136440355603,0.18229222765708752,0.04273844358134048,0.11374971918924169,0.044547759358325854,0.11311886968007147
1.0038607260606907,0.18262972424027749,0.046490560989556874,0.12736778710133306,0.05202695153682018,0.12667535844050393
1.003907808085821,0.18292620727983336,0.04686526362297941,0.13485525602086357,0.0579480980689484,0.1341211057348444
1.0039548901109514,0.18798821740501145,0.04779343737819441,0.13913083302593265,0.05741067574774963,0.13840906344083181
1.0040019721360818,0.19658928748535154,0.049513942288091035,0.1397247738744464,0.05456040067649759,0.13902834306948847
1.0040490541612122,0.20361099360789395,0.04948320013042986,0.1356935801867525,0.04968217371349951,0.13503569455944853
1.0040961361863425,0.20356945018764083,0.047382153216192824,0.1287855413388881,0.04398223116411197,0.12817702082986976
1.004143218211473,0.19261735903368254,0.04234967651327408,0.11776025800915435,0.036412102803705465,0.11722815823234506
1.0041903002366033,0.1692114287165738,0.03505920436741155,0.09836742477706704,0.02898726474654211,0.09791986216274567
1.0042373822617336,0.13469585530973552,0.02677195263745894,0.07519967777083232,0.021437704694931083,0.07485313977225438
1.004284464286864,0.094068350002802,0.01824581747746371,0.051842634052145065,0.013707268610471729,0.05161341186784796
1.0043315463119944,0.0558705414627791,0.01137188405161404,0.03082107495389939,0.006775404394092854,0.030705070751600103
1.0043786283371248,0.029785725493520713,0.006641692200595652,0.019809015244991575,0.0011801479947572062,0.019786689874085047
1.0044257103622551,0.022326134922130727,0.006101700943924378,0.01684685304795892,-0.002662441820883826,0.016888820110980637
1.0044727923873855,0.03362727707623793,0.008000878917440148,0.01768087969631584,-0.0041939476700388586,0.017748269209646294
1.004519874412516,0.057935866130881315,0.011044226817351137,0.0238553638180855,-0.0031954423630435784,0.02390525858588948
1.0045669564376463,0.08691312585069338,0.01656085776455285,0.038233159934289905,0.0012506044068182677,0.03820717509566325
1.0046140384627766,0.11302745450084833,0.023122242922517924,0.05542672474865837,0.00950356474862919,0.05526434530687186
1.004661120487907,0.13143773576861661,0.027558565960258127,0.07126698378066398,0.01961135379883076,0.0709472713276006
1.0047082025130374,0.140315951549541,0.03079953391392802,0.0817840112464661,0.029663500198672543,0.08132020650848246
1.0047552845381678,0.14016084842095028,0.032157757590507034,0.0846685751900148,0.03897255233271182,0.08407952139811818
1.0048023665632981,0.13271042804166153,0.030734830729066496,0.08028160564993014,0.04477307308309904,0.07961285726525627
1.0048494485884285,0.1199532079956697,0.02824204415450225,0.06958311394397716,0.0501031935586489,0.06883278876643514
1.0048965306135589,0.10352759540252561,0.022620412020597117,0.05738407400153901,0.0523464091382705,0.056587682098723543
1.0049436126386893,0.08458770500586026,0.016944464771327862,0.04469505929439128,0.05224418854919456,0.0438829064755836
1.0049906946638196,0.06411017510052013,0.012592617681037033,0.03435472552873721,0.051448310520931,0.033540704029151526
1.00503777668895,0.043500849939608656,0.008880867971663601,0.022887706523455283,0.04784493080295883,0.022115229702517832
1.0050848587140804,0.02497562650004661,0.006022694383574744,0.013888116903115118,0.041895009201803834,0.013201638656701082
1.0051319407392107,0.011013597455985432,0.0030767562717590323,0.011624969459267675,0.035607113645840634,0.011038648132371978
1.0051790227643411,0.003334338693202587,0.000395374287836517,0.009001101837417943,0.028626762769663354,0.008527600187143063
1.0052261047894715,0.0027948227754708652,-0.0028025137649626735,0.005716764128480125,0.02127190039192959,0.005363642339324362
1.0052731868146019,0.010164673003053454,-0.005383941940712685,0.005314070387151807,0.012437084456683503,0.005107021931726653
1.0053202688397322,0.026566180290056158,-0.006524605651208125,0.008193549268036414,0.0025550385160724148,0.008149980839877027
1.0053673508648626,0.05291846997433676,-0.005453755348894735,0.011498759854167706,-0.004551815415500063,0.011572932498951898
1.005414432889993,0.08828034555015178,-0.000922970798743986,0.017065936640710815,-0.010173088357902604,0.017233484516868906
1.0054615149151234,0.12763762777320273,0.0034628159007656072,0.025647230237824777,-0.013744410642187609,0.025874351748980805
1.0055085969402537,0.16155770115500132,0.008358511131744384,0.038076850744054896,-0.012926492944156478,0.03828917554067242
1.0055556789653841,0.18078890709766565,0.01183260413343618,0.05135766337998839,-0.0077555142548500116,0.051480525936684514
1.0056027609905145,0.18307418566708303,0.012928352047071854,0.06056084021799014,0.00045387614698326435,0.06054500878569356
1.0056498430156449,0.1741533504439713,0.013072952853928921,0.06655908741414072,0.007689573999432265,0.06642492637365523
1.0056969250407752,0.16242605985016223,0.013288231653133175,0.07063087442771013,0.014092264357813288,0.07039563753809538
1.0057440070659056,0.15418810481596457,0.013489954765748468,0.07107575192890922,0.01984288575299257,0.07075251750159998
1.005791089091036,0.1523552110015489,0.013139164413392782,0.0660360559428213,0.02392125386568173,0.0656506633742502
1.0058381711161664,0.15691036178882456,0.012352025452029028,0.06130313889977103,0.02833249701865303,0.06085075465670624
1.0058852531412967,0.16538784679386007,0.012485439079374662,0.06307528196508604,0.03181061270539685,0.06257254493757275
1.005932335166427,0.17322460684996496,0.010131398722280907,0.06323184659303546,0.034224965906586094,0.06269425260716875
1.0059794171915575,0.17475929729964576,0.008384500402234022,0.05880087400333982,0.03467121763474764,0.058254367919908255
1.0060264992166879,0.16548577922015562,0.006309859383292432,0.05204155960234529,0.03275707437991756,0.05151969394676294
1.0060735812418182,0.1445721481217929,0.004011217952664061,0.04234591607178599,0.027086081748419578,0.041906422487663186
1.0061206632669486,0.11538472372115638,0.002086035681186264,0.03266210113426135,0.018626837112431852,0.032354093706408
1.006167745292079,0.08342022676517998,0.0002200526614561476,0.0259645785337829,0.01063622205803367,0.025785843815986344
1.0062148273172093,0.053714935068683495,-0.0009034023354814007,0.01794830890199036,0.0038016964050325438,0.017882801623896008
1.0062619093423397,0.029620632829972474,-0.001840921039803148,0.006428025048282717,-0.0013501405185844658,0.006449582397854231
1.00630899136747,0.012907514843990737,-0.0026201784767955,-0.004503164505502606,-0.0048442374827425815,-0.004422080276077204
1.0063560733926005,0.004292560353454192,-0.0021952444661786806,-0.010519166817943732,-0.005239337504886534,-0.010430787890026471
1.0064031554177308,0.0038095921685766332,0.0008121596774927082,-0.007972360122875525,-0.0030874909495370736,-0.007919984060946683
1.0064502374428612,0.010924293923755681,0.007386569523222259,0.0013341291502741227,0.004187240640715152,0.001264359646657027
1.0064973194679916,0.02453035587728399,0.012291465791368318,0.011333716656649779,0.013267750946397075,0.011112646527501968
1.006544401493122,0.042966387475684646,0.0162011754295335,0.020787738978896356,0.022757471315150837,0.020412139711573588
1.0065914835182523,0.06411092062196938,0.017397187399692284,0.03329944681240632,0.029434549796621304,0.03282062484590015
1.0066385655433827,0.08556714248621351,0.01955271102682678,0.049462130528264495,0.03203639179125919,0.048949832197029634
1.006685647568513,0.10493697207975199,0.022495060863271295,0.06485229624100503,0.0312887615312985,0.06435795276433165
1.0067327295936435,0.12014720761669652,0.024928878437820396,0.07640706666955516,0.029437923367346498,0.07594425729584602
1.0067798116187738,0.12974860817624662,0.02620504022838804,0.08294186479002422,0.025549032302366787,0.0825369437167936
1.0068268936439042,0.1331160769266914,0.027602564516212947,0.08436945777741765,0.021136417493185965,0.08402894327523311
1.0068739756690346,0.13051634907150206,0.02549255608516211,0.08386978816652868,0.015093264874625596,0.08361950976614112
1.006921057694165,0.12301693370584733,0.020463996265509737,0.08185258015702256,0.011151705450789926,0.08166289448450241
1.0069681397192953,0.11219272060745543,0.015198215907837105,0.07585112215539112,0.00817845495105344,0.07570845614121581
1.0070152217444257,0.09964098937742749,0.011587085883811323,0.06985230351433948,0.005358844045207458,0.06975527825424908
1.007062303769556,0.08648287672211809,0.009048923788082683,0.06302251331950957,0.00246648100895007,0.06297328096172
1.0071093857946865,0.07315337862299943,0.009011131539860237,0.053521194673379444,-0.00021086626202775386,0.05351731341110943
1.0071564678198168,0.05967551136841471,0.00965497228943807,0.042771215350936226,-0.002834003901856767,0.04281246427058413
1.0072035498449472,0.046352747241279996,0.00827462363909394,0.029687677967592516,-0.005060718058934774,0.029767964535389577
1.0072506318700776,0.03458526276589038,0.007234878654159624,0.01916866027493343,-0.0054982380309864945,0.01925764034622914
1.007297713895208,0.02727830692374265,0.005927191797432608,0.01473006896934623,-0.00457956135028179,0.014804282179724829
1.0073447959203383,0.0280866607277734,0.006606425301616229,0.01711698325886342,-0.003402276593392624,0.017171243360384624
1.0073918779454687,0.03925806445151868,0.010836706715969358,0.028584290137595406,0.0003830557367713088,0.02857398782910087
1.007438959970599,0.059562255279517966,0.0164504877053685,0.043832242766228824,0.005517489199205844,0.04373542076836062
1.0074860419957294,0.08449757331606145,0.021598000625554534,0.058037587268334905,0.012066223053970504,0.05783424821956044
1.0075331240208598,0.10858230355013457,0.025174316794468417,0.06858033205585247,0.01908076493089704,0.06826835456083895
1.0075802060459902,0.12742598805780986,0.027708077477624035,0.07621925524513734,0.023150240216273408,0.07584754643882917
1.0076272880711206,0.13840784538629322,0.027783108302323247,0.07904744927672683,0.02575053976425445,0.07863849421097019
1.007674370096251,0.14057521646913557,0.026765584105854827,0.0769603579802706,0.026826491303145947,0.0765352195515628
1.0077214521213813,0.1345761316442056,0.025157456424258748,0.07084930100861353,0.025138396712168682,0.070447010734743
