freq,gls,usurper,pdc_unbiased,shape_periodogram,shift_periodogram
1.0,0.02176245538732735,0.014158838099860445,-0.007335655112181927,0.009450281958988947,-0.007540420578247578
1.0000470820251304,0.05134779247241603,0.019371341041573797,0.016081221596065367,0.010754764947132792,0.01584374603695746
1.0000941640502607,0.09689124580742478,0.026799434641550643,0.05094334186944231,0.015449133279177778,0.050601493029101115
1.0001412460753911,0.14848755125694818,0.03303066836775096,0.08456655871201842,0.02445932775864311,0.08404354499262338
1.0001883281005215,0.19664060203551523,0.03927517076041002,0.10917973127593883,0.03750878710414786,0.10842553944191431
1.0002354101256519,0.23592916525893703,0.045389262520879485,0.12678225514793529,0.04873197225742183,0.12586178079839794
1.0002824921507822,0.26363730657080775,0.05000707970751236,0.13936052532630389,0.05582168635048702,0.13835664884486865
1.0003295741759126,0.2780607972143743,0.05296448624996312,0.14663287491158739,0.059438508731879905,0.14559505484774063
1.000376656201043,0.27778293516045677,0.05339988907968417,0.14742341655727248,0.06198927537835131,0.14635546669341087
1.0004237382261734,0.2619162710265795,0.05131651094466162,0.139633635428265,0.06233720747570572,0.13854441702053794
1.0004708202513037,0.23107843684954268,0.04693581989803354,0.12167319492364326,0.06002421201516627,0.12057793100123203
1.0005179022764341,0.1884924826566669,0.04114848626120246,0.09811663264576473,0.0564307008755381,0.09703293878516239
1.0005649843015645,0.1401213853463462,0.036859045933972455,0.07552593926328457,0.052656746673824556,0.07447157447009539
1.0006120663266949,0.09311329616242185,0.03404056242375694,0.056936636782797936,0.04793685599124104,0.055946314745296835
1.0006591483518252,0.05338098213176131,0.0334516373171914,0.04656239048066332,0.04157564433766807,0.045686517422692405
1.0007062303769556,0.024158292773911582,0.03241650388831687,0.0379052596807291,0.0331966784659893,0.03719394529677403
1.000753312402086,0.006389706849983347,0.03199553748910742,0.024925530867037873,0.02350905502706123,0.024413877244762953
1.0008003944272164,4.4957735270936574e-05,0.0320893256202874,0.013623927240606612,0.015682037122285355,0.013280249909472694
1.0008474764523467,0.004476680458159687,0.03118322432582894,0.005279248516488982,0.01343176604264699,0.0049853905686484045
1.000894558477477,0.016631009383087918,0.03580281339797273,0.00604487589630294,0.01656901246457148,0.005682722749574548
1.0009416405026075,0.030279800796216314,0.0438600167344983,0.01614856324889533,0.024145476710421054,0.015622652053953986
1.0009887225277379,0.04019506929021177,0.053011012856821256,0.031662352407458065,0.036090937413474924,0.03088862691534455
1.0010358045528682,0.045271217739530065,0.05927525761790867,0.049643587368788454,0.05069024033524248,0.04859212357614786
1.0010828865779986,0.04665854735345898,0.06533744997960554,0.06394396252727896,0.0641110615309711,0.06266678496076956
1.001129968603129,0.04557434040645729,0.06939077983015199,0.06951556918541625,0.07448427335820422,0.06807366976226695
1.0011770506282593,0.04281463251624272,0.07028931376306308,0.06676401531502141,0.07934789904358193,0.06523300309887824
1.0012241326533897,0.03911406922799136,0.06730892345041246,0.05756222886158259,0.07891573348297777,0.056009165016376296
1.00127121467852,0.035734840091298535,0.061409240867399226,0.04469056838221148,0.07545473589813359,0.04316119610677117
1.0013182967036505,0.034632288517627896,0.05618168333998266,0.03354469161607427,0.0720361257111356,0.032050697181738586
1.0013653787287808,0.03686446430802818,0.052573084842379963,0.03235087082016887,0.0699083477623285,0.030895673046530864
1.0014124607539112,0.040499198873267514,0.0521268358518427,0.04235422606047071,0.07015503899618418,0.040918094134485314
1.0014595427790416,0.04245011553894062,0.05395929835681313,0.05148956578485458,0.07225451617802471,0.05003738091040074
1.001506624804172,0.04142424671447975,0.054786091406743564,0.057489670337512934,0.07074393993384472,0.05608000281107735
1.0015537068293023,0.03772147907862947,0.055233516430727554,0.05838903434484734,0.06443516665024854,0.05709456827566536
1.0016007888544327,0.032149333674356434,0.052182154274997096,0.05286952532393206,0.05432483998137558,0.05175275403032435
1.001647870879563,0.025799799790141527,0.04550915607413672,0.040386054375886556,0.04041571993326861,0.0395289965533689
1.0016949529046935,0.020580986012262138,0.03621322544487329,0.02276083148008517,0.02579576840104104,0.022200398315781907
1.0017420349298238,0.01993155776046648,0.031780068708183846,0.008396000375120035,0.015622155080426733,0.008054165414373982
1.0017891169549542,0.027489951613850306,0.031364884788729154,0.00883020356959996,0.014903130965355105,0.00850391697234127
1.0018361989800846,0.042074300128446054,0.032430606839887424,0.022145335055818467,0.01989928867507592,0.021710500789343692
1.001883281005215,0.05845891480384451,0.038666838382277864,0.04104344236602053,0.029676077714742472,0.04040557325273905
1.0019303630303453,0.07582159493280267,0.043980886190491515,0.05832937685591873,0.04150518352374808,0.05746385147193374
1.0019774450554757,0.09824195100672209,0.0458415950830788,0.07041397317164165,0.05501298840086767,0.06931020609447672
1.002024527080606,0.1303669711588208,0.04244781492226435,0.07896421651578898,0.06355355369869317,0.07772779053362235
1.0020716091057364,0.17464242099810953,0.038256781826997106,0.08832693698111686,0.06897445085717817,0.08702411260216476
1.0021186911308668,0.22917237164395338,0.038649450874955374,0.11355266104308831,0.07330401532821684,0.11225519923587289
1.0021657731559972,0.2864808872447173,0.0423783097146445,0.14880372324738836,0.07779197741219718,0.1475646771040966
1.0022128551811276,0.335488571803669,0.045979927091219445,0.17945522269565434,0.08185153996799176,0.17829204933876455
1.002259937206258,0.3667004160945303,0.04769234594020237,0.20044309409803335,0.08415627523709447,0.19934889669393827
1.0023070192313883,0.37630521047742305,0.047333966034222734,0.20989430295355302,0.08408662049521305,0.208838276684157
1.0023541012565187,0.3658732131217113,0.04542096526506308,0.20800353236518512,0.08185231650412796,0.20694875789506048
1.002401183281649,0.3393357840705059,0.04365950428864119,0.19716291122807472,0.07816467419926659,0.1960869585873082
1.0024482653067794,0.30043566038503033,0.041594146939104557,0.1783931936762516,0.06999697384215112,0.17731784362738037
1.0024953473319098,0.25183659939415354,0.03771198179107417,0.15384153094853617,0.05597861104841425,0.15286125744296505
1.0025424293570402,0.1956066522565673,0.03062416999200617,0.12081929242955049,0.038215951631033286,0.12006163303243221
1.0025895113821706,0.13475970805500284,0.024396660882581897,0.07564140824241966,0.017022101760745135,0.0752661150513147
1.002636593407301,0.07582916802294695,0.021324407058206128,0.025728531183742454,0.0004260435444277674,0.025713126321313503
1.0026836754324313,0.03145358980808763,0.019026494819518163,-0.0040036080406334615,0.0003723548527366472,-0.004010779329383856
1.0027307574575617,0.01779891286180085,0.020855448169983377,-0.006351274616742859,0.017483629783967357,-0.0067322358143847095
1.002777839482692,0.04358985242398123,0.024900175955130582,0.006591376950054447,0.0399654331372475,0.005722438837836082
1.0028249215078224,0.1037077589167159,0.037833729883992986,0.04281328660270074,0.05829774968420627,0.04160516696269495
1.0028720035329528,0.18101238562213362,0.05378757501270781,0.0979436666785688,0.067497200284093,0.0966871425598002
1.0029190855580832,0.25636899888384335,0.0664174983362591,0.15380629462607742,0.0711454803430869,0.15265029546341063
1.0029661675832136,0.31832235074100634,0.0724230322326644,0.19704252226634572,0.07278406125205063,0.19600019486466574
1.003013249608344,0.36361141655314383,0.07668926526044367,0.228525784613192,0.07289377729019697,0.22758008831874482
1.0030603316334743,0.39341420767750745,0.07774887238326691,0.24979870354304085,0.07035740108681456,0.24892721581973873
1.0031074136586047,0.4102870696014962,0.07643557534753675,0.26258314989231946,0.06770491979426498,0.2617566381997841
1.003154495683735,0.41662904201390033,0.07405809402994472,0.266777273312063,0.06418301515315897,0.2659736815055585
1.0032015777088654,0.41405085665469693,0.07048204709579771,0.26326150551395927,0.05956912677669658,0.26246964379622567
1.0032486597339958,0.4030953535584088,0.06567780475666724,0.251751202986526,0.053725124275234626,0.25097169230049854
1.0032957417591262,0.38301151602067063,0.059546415990350376,0.2324239377319079,0.04669503601989626,0.23167301495975068
1.0033428237842565,0.3514583105172215,0.05188933802157926,0.2047530276495091,0.038455189879384996,0.20406393597686542
1.003389905809387,0.3042863356687068,0.04240952755996235,0.16911475512504195,0.029352886765418813,0.16853293258738586
1.0034369878345173,0.2364892670841809,0.03178331369858705,0.12615890065588273,0.019684725032367466,0.12573400426526735
1.0034840698596477,0.14805992805189566,0.021369513334904125,0.07745804013496241,0.010100752087449072,0.07722521704195633
1.003531151884778,0.05937981673678241,0.014956525014011469,0.035632586371168055,0.0031337606460373046,0.035556044564539806
1.0035782339099084,0.016571701488668728,0.015367151451671663,0.012038086514572617,0.0010031285157695734,0.012013345126057487
1.0036253159350388,0.04141534161646615,0.024304083725800986,0.014399178728297872,0.007399004737838219,0.014234754803951592
1.0036723979601692,0.0978579156313711,0.0394976044765808,0.03595348541122598,0.022076181903339074,0.035472820810881024
1.0037194799852995,0.14599333246590304,0.05881631942373866,0.06503465797160808,0.036831724204597294,0.06426407722136825
1.00376656201043,0.17300879075255565,0.07333442483041185,0.0922030709843016,0.04953097198144316,0.09122523896877813
1.0038136440355603,0.18229222765708752,0.0829796763648809,0.11374971918924169,0.05726262674108286,0.11268004920968516
1.0038607260606907,0.18262972424027749,0.08701377025058121,0.12736778710133306,0.061740072900011315,0.12626021456540884
1.003907808085821,0.18292620727983336,0.08984690040306285,0.13485525602086357,0.06531520062005715,0.1337173741499305
1.0039548901109514,0.18798821740501145,0.09201282491626954,0.13913083302593265,0.06880742003921965,0.13796075013960996
1.0040019721360818,0.19658928748535154,0.09045961078711635,0.1397247738744464,0.0705797257838484,0.1385354695385185
1.0040490541612122,0.20361099360789395,0.0849608981504189,0.1356935801867525,0.07195637112656027,0.13447685733412348
1.0040961361863425,0.20356945018764083,0.07667469617637065,0.1287855413388881,0.0701981015995144,0.1275708635617824
1.004143218211473,0.19261735903368254,0.06841432659529564,0.11776025800915435,0.06835996080706876,0.11654054711149421
1.0041903002366033,0.1692114287165738,0.0578913181707116,0.09836742477706704,0.06289277743629061,0.09718217011276137
1.0042373822617336,0.13469585530973552,0.04607220959857287,0.07519967777083232,0.05308524629080612,0.07413724956917264
1.004284464286864,0.094068350002802,0.033565086659211374,0.051842634052145065,0.04166136136830608,0.05096906661535387
1.0043315463119944,0.0558705414627791,0.022045950362921486,0.03082107495389939,0.028498589207199363,0.030205069861445027
1.0043786283371248,0.029785725493520713,0.014702131511406234,0.019809015244991575,0.01592613420653973,0.0194594832173969
1.0044257103622551,0.022326134922130727,0.011283178054300482,0.01684685304795892,0.00630767233314129,0.016705609366433147
1.0044727923873855,0.03362727707623793,0.011160710730200363,0.01768087969631584,0.0013009428412040446,0.017648315441817372
1.004519874412516,0.057935866130881315,0.014051210453235105,0.0238553638180855,0.001163697602644115,0.023824335665335566
1.0045669564376463,0.08691312585069338,0.019566654072029153,0.038233159934289905,0.007087142098324099,0.038070732169838306
1.0046140384627766,0.11302745450084833,0.02620459750552314,0.05542672474865837,0.019094774169976896,0.055008851320480986
1.004661120487907,0.13143773576861661,0.03329437419402721,0.07126698378066398,0.03350697960337084,0.07056395792440452
1.0047082025130374,0.140315951549541,0.03972036146866108,0.0817840112464661,0.047707292199951595,0.08082548672611918
1.0047552845381678,0.14016084842095028,0.041367482176812374,0.0846685751900148,0.05948974162149644,0.08351117252990642
1.0048023665632981,0.13271042804166153,0.040166678928399015,0.08028160564993014,0.0680848201184283,0.0789732874686021
1.0048494485884285,0.1199532079956697,0.03629740047511687,0.06958311394397716,0.07399743707816846,0.06814951904362328
1.0048965306135589,0.10352759540252561,0.034236065250594826,0.05738407400153901,0.07697633195329608,0.05586422628844538
1.0049436126386893,0.08458770500586026,0.031192071381585397,0.04469505929439128,0.07526556869874698,0.04316920952524433
1.0049906946638196,0.06411017510052013,0.02857386376288605,0.03435472552873721,0.0697042017540889,0.032908237184044835
1.00503777668895,0.043500849939608656,0.024180659823711037,0.022887706523455283,0.062456786237208496,0.021562625859337183
1.0050848587140804,0.02497562650004661,0.019194392219529708,0.013888116903115118,0.05391616033657352,0.012727256864128239
1.0051319407392107,0.011013597455985432,0.014232759341479858,0.011624969459267675,0.04411281339674071,0.010670287006012968
1.0051790227643411,0.003334338693202587,0.011698629484816564,0.009001101837417943,0.03185372038152818,0.008308249061656952
1.0052261047894715,0.0027948227754708652,0.0075911151908949134,0.005716764128480125,0.018260936073587093,0.005317879830989504
1.0052731868146019,0.010164673003053454,0.0057950269229596505,0.005314070387151807,0.007284336362320172,0.005154014520933295
1.0053202688397322,0.026566180290056158,0.00623719658268473,0.008193549268036414,0.0001330124428807065,0.008188697106251528
1.0053673508648626,0.05291846997433676,0.007511734620767257,0.011498759854167706,-0.003828029972181016,0.011579613354043054
1.005414432889993,0.08828034555015178,0.008070625278622248,0.017065936640710815,-0.004163700289932768,0.01715283014167824
1.0054615149151234,0.12763762777320273,0.009940388548610955,0.025647230237824777,-0.0006091555892098795,0.025654411394385738
1.0055085969402537,0.16155770115500132,0.012733883581176237,0.038076850744054896,0.007884460074121311,0.03789731991170264
1.0055556789653841,0.18078890709766565,0.01663034362983545,0.05135766337998839,0.018863177745909884,0.050944555650143525
1.0056027609905145,0.18307418566708303,0.018584675110815636,0.06056084021799014,0.030542982258814737,0.05991154312705129
1.0056498430156449,0.1741533504439713,0.021489568656418878,0.06655908741414072,0.04140972627770984,0.06570183687777013
1.0056969250407752,0.16242605985016223,0.02264060317406694,0.07063087442771013,0.050649944441492,0.06960607022938693
1.0057440070659056,0.15418810481596457,0.021319456970622635,0.07107575192890922,0.05619822034116307,0.06995187779814824
1.005791089091036,0.1523552110015489,0.01774328652185892,0.0660360559428213,0.057795275080546715,0.06487545876552882
1.0058381711161664,0.15691036178882456,0.01589140849979705,0.06130313889977103,0.05708921221498339,0.06014760562051291
1.0058852531412967,0.16538784679386007,0.015422285155022974,0.06307528196508604,0.05395266421944704,0.061979967550230004
1.005932335166427,0.17322460684996496,0.014654783339104338,0.06323184659303546,0.04878221951753268,0.062232566910381586
1.0059794171915575,0.17475929729964576,0.0118184008134775,0.05880087400333982,0.04149008434110998,0.057936006198527144
1.0060264992166879,0.16548577922015562,0.008507600936018177,0.05204155960234529,0.03463241243056162,0.05130729260849945
1.0060735812418182,0.1445721481217929,0.005613783056051843,0.04234591607178599,0.027359867978840456,0.041756085025131784
1.0061206632669486,0.11538472372115638,0.0027311439163746343,0.03266210113426135,0.020734580745090013,0.03220956505289326
1.006167745292079,0.08342022676517998,0.0021355555519673953,0.0259645785337829,0.015363128393503013,0.02562655638816167
1.0062148273172093,0.053714935068683495,0.0037758903424097035,0.01794830890199036,0.011959394205637021,0.017684488710465896
1.0062619093423397,0.029620632829972474,0.006377269934094035,0.006428025048282717,0.010721687465141098,0.006192932439057112
1.00630899136747,0.012907514843990737,0.009116346199480022,-0.004503164505502606,0.010323702691942388,-0.0047275861612958514
1.0063560733926005,0.004292560353454192,0.013443537845547937,-0.010519166817943732,0.011455889005663281,-0.010767278613445222
1.0064031554177308,0.0038095921685766332,0.018543226130450435,-0.007972360122875525,0.012842000631818689,-0.008251309782331809
1.0064502374428612,0.010924293923755681,0.026005181022339702,0.0013341291502741227,0.0169528932460597,0.000964062184953574
1.0064973194679916,0.02453035587728399,0.03348021301063153,0.011333716656649779,0.02292236265125924,0.010833823153761319
1.006544401493122,0.042966387475684646,0.03962283357071785,0.020787738978896356,0.028434091397298498,0.020170942448021652
1.0065914835182523,0.06411092062196938,0.044346091639905084,0.03329944681240632,0.033403771244849924,0.032582053048897094
1.0066385655433827,0.08556714248621351,0.04979688672152917,0.049462130528264495,0.03770838187495182,0.04866513571471724
1.006685647568513,0.10493697207975199,0.052071588175876975,0.06485229624100503,0.040788684953104205,0.0640055477978823
1.0067327295936435,0.12014720761669652,0.05203337627875836,0.07640706666955516,0.04210504171143857,0.07554485634587457
1.0067798116187738,0.12974860817624662,0.04852064737427499,0.08294186479002422,0.041115340875206866,0.08210327296605714
1.0068268936439042,0.1331160769266914,0.044736324613384185,0.08436945777741765,0.0378502706111972,0.08359187077985476
1.0068739756690346,0.13051634907150206,0.04015780528070531,0.08386978816652868,0.034001555993670114,0.08316359275877616
1.006921057694165,0.12301693370584733,0.03444863903749277,0.08185258015702256,0.02751663550950512,0.08126939740610213
1.0069681397192953,0.11219272060745543,0.02716872076166071,0.07585112215539112,0.020346354658428847,0.07540856321579173
1.0070152217444257,0.09964098937742749,0.0192524565676917,0.06985230351433948,0.01376186494439538,0.06954422964401981
1.007062303769556,0.08648287672211809,0.012897231294099058,0.06302251331950957,0.008916290164912443,0.06281666995103219
1.0071093857946865,0.07315337862299943,0.007757482261859292,0.053521194673379444,0.005378198162836376,0.053392417867820764
1.0071564678198168,0.05967551136841471,0.002454287358624537,0.042771215350936226,0.00220943008021033,0.04271308146749909
1.0072035498449472,0.046352747241279996,-0.0012356881211666795,0.029687677967592516,0.001170993447333069,0.029655121497559056
1.0072506318700776,0.03458526276589038,-0.003462628219100666,0.01916866027493343,0.0018284208673216564,0.019124259042351346
1.007297713895208,0.02727830692374265,-0.003535002369271996,0.01473006896934623,0.002557717940250096,0.014670823371518985
1.0073447959203383,0.0280866607277734,-0.0018031065851392425,0.01711698325886342,0.0049367354838493315,0.017005451127953552
1.0073918779454687,0.03925806445151868,0.003400501489279976,0.028584290137595406,0.01033724504394345,0.028353734518783626
1.007438959970599,0.059562255279517966,0.010980644381772355,0.043832242766228824,0.0167814868364689,0.0434628338248013
1.0074860419957294,0.08449757331606145,0.017929834533192288,0.058037587268334905,0.02482232041542702,0.0575025957647852
1.0075331240208598,0.10858230355013457,0.02359438166367719,0.06858033205585247,0.03141709458734561,0.06791675755808493
1.0075802060459902,0.12742598805780986,0.027219609343039766,0.07621925524513734,0.03607977012066636,0.07546964017603189
1.0076272880711206,0.13840784538629322,0.029426677498770037,0.07904744927672683,0.03917799129889765,0.07824155288948649
1.007674370096251,0.14057521646913557,0.02911327492177085,0.0769603579802706,0.04062775809140397,0.07612596453254546
1.0077214521213813,0.1345761316442056,0.02632845641394352,0.07084930100861353,0.039804230216351655,0.07002571900686151
1.0077685341465117,0.12269802495893224,0.022552795621689836,0.062425783036096825,0.03508733027618572,0.06168767734946976
