freq,gls,usurper,pdc_unbiased,shape_periodogram,shift_periodogram
1.0,0.02176245538732735,0.014333906503148492,-0.007335655112181927,0.0072631783832777935,-0.007483079237462059
1.0000470820251304,0.05134779247241603,0.017899273516366478,0.016081221596065367,0.006833198315756915,0.015938303766365347
1.0000941640502607,0.09689124580742478,0.023443526222181987,0.05094334186944231,0.01043887631546905,0.05072243678965208
1.0001412460753911,0.14848755125694818,0.028018948976769147,0.08456655871201842,0.018516351804867485,0.08418802829003875
1.0001883281005215,0.19664060203551523,0.03340275706700386,0.10917973127593883,0.030859664038466395,0.10858727916405134
1.0002354101256519,0.23592916525893703,0.039368155845008045,0.12678225514793529,0.04163549463503384,0.12603111526397928
1.0002824921507822,0.26363730657080775,0.043793597031100966,0.13936052532630389,0.04828770416876896,0.13852970361011674
1.0003295741759126,0.2780607972143743,0.046743395111525664,0.14663287491158739,0.051594784931585265,0.14576959499946215
1.000376656201043,0.27778293516045677,0.04744338750650879,0.14742341655727248,0.05397164756797256,0.14653217954795153
1.0004237382261734,0.2619162710265795,0.04553360001807626,0.139633635428265,0.05432821480947981,0.13872512661511863
1.0004708202513037,0.23107843684954268,0.04141121442130546,0.12167319492364326,0.05216900666189016,0.12076490669442992
1.0005179022764341,0.1884924826566669,0.03586612832206979,0.09811663264576473,0.04871603277759002,0.0972269280968995
1.0005649843015645,0.1401213853463462,0.03195207955284986,0.07552593926328457,0.045037848910891125,0.07467076529299525
1.0006120663266949,0.09311329616242185,0.029691536035277258,0.056936636782797936,0.04062380979569498,0.0561427782953579
1.0006591483518252,0.05338098213176131,0.029667893472114758,0.04656239048066332,0.03486115083879581,0.045868657253711774
1.0007062303769556,0.024158292773911582,0.029342839419671272,0.0379052596807291,0.02743138421773444,0.03735064494885655
1.000753312402086,0.006389706849983347,0.02984599475084342,0.024925530867037873,0.018764177960067074,0.024540611774353113
1.0008003944272164,4.4957735270936574e-05,0.030615486565947255,0.013623927240606612,0.01152922579709709,0.013385860089564348
1.0008474764523467,0.004476680458159687,0.02980813431389451,0.005279248516488982,0.009252363657496888,0.005088842038037455
1.000894558477477,0.016631009383087918,0.034017703321301294,0.00604487589630294,0.01188226908155512,0.0058006349698749935
1.0009416405026075,0.030279800796216314,0.0416095223884623,0.01614856324889533,0.018748421635090884,0.015764052229246695
1.0009887225277379,0.04019506929021177,0.05060856028477817,0.031662352407458065,0.030681407746439335,0.03104276780181647
1.0010358045528682,0.045271217739530065,0.05666598641928281,0.049643587368788454,0.0454142332413541,0.048756494527467505
1.0010828865779986,0.04665854735345898,0.06225214362283822,0.06394396252727896,0.059248148808528474,0.06283420966126256
1.001129968603129,0.04557434040645729,0.06614999155524734,0.06951556918541625,0.07002866101280457,0.06824352731040352
1.0011770506282593,0.04281463251624272,0.06702605115077431,0.06676401531502141,0.07534136575071464,0.06540194807451313
1.0012241326533897,0.03911406922799136,0.06381748058614475,0.05756222886158259,0.0752868588833951,0.056174404198602944
1.00127121467852,0.035734840091298535,0.057769453791997015,0.04469056838221148,0.07214323090088016,0.043320385766424045
1.0013182967036505,0.034632288517627896,0.05221286152296555,0.03354469161607427,0.06879846588521045,0.03220691345687929
1.0013653787287808,0.03686446430802818,0.04827059805519614,0.03235087082016887,0.06665384079700783,0.031049797378834197
1.0014124607539112,0.040499198873267514,0.04764113795953274,0.04235422606047071,0.06671972675919324,0.041073602055590984
1.0014595427790416,0.04245011553894062,0.04960724502682265,0.05148956578485458,0.06874678156101577,0.050194488347020665
1.001506624804172,0.04142424671447975,0.05058111037168453,0.057489670337512934,0.0670630257682173,0.05623678301501208
1.0015537068293023,0.03772147907862947,0.051291972453033886,0.05838903434484734,0.06068518095167855,0.05724513317828123
1.0016007888544327,0.032149333674356434,0.0488672398459217,0.05286952532393206,0.05075306315831452,0.05188980737159143
1.001647870879563,0.025799799790141527,0.04321031050814187,0.040386054375886556,0.03709265185780559,0.03964685678377559
1.0016949529046935,0.020580986012262138,0.03464591284625279,0.02276083148008517,0.02280632968137869,0.02229504772327774
1.0017420349298238,0.01993155776046648,0.03064976257709469,0.008396000375120035,0.012436899704443819,0.00814013858219893
1.0017891169549542,0.027489951613850306,0.0299156337041083,0.00883020356959996,0.010587100899960001,0.008611993462013034
1.0018361989800846,0.042074300128446054,0.030220365152262025,0.022145335055818467,0.014711662512696996,0.021841920187976368
1.001883281005215,0.05845891480384451,0.03581039762865901,0.04104344236602053,0.023803769403633126,0.040559942022044576
1.0019303630303453,0.07582159493280267,0.04103759883513449,0.05832937685591873,0.035001355384436474,0.057639026617877565
1.0019774450554757,0.09824195100672209,0.04315645561317612,0.07041397317164165,0.048241237791606495,0.0694988665377722
1.002024527080606,0.1303669711588208,0.03967554181987656,0.07896421651578898,0.05672310049469883,0.07792122869712904
1.0020716091057364,0.17464242099810953,0.03514009607170638,0.08832693698111686,0.06230865494394549,0.08721509537581082
1.0021186911308668,0.22917237164395338,0.03544489367044817,0.11355266104308831,0.06677866149838875,0.11243512182254826
1.0021657731559972,0.2864808872447173,0.039296955459213044,0.14880372324738836,0.07164864232019705,0.1477249568016243
1.0022128551811276,0.335488571803669,0.04323005546285728,0.17945522269565434,0.07618827627586339,0.17843447218259342
1.002259937206258,0.3667004160945303,0.04527429823573004,0.20044309409803335,0.07902331517131957,0.19947893274426562
1.0023070192313883,0.37630521047742305,0.0452925772235674,0.20989430295355302,0.07956376044775058,0.2089617904456396
1.0023541012565187,0.3658732131217113,0.04376714254100103,0.20800353236518512,0.07802691938690069,0.2070696635861059
1.002401183281649,0.3393357840705059,0.04248133448995026,0.19716291122807472,0.0750289986990325,0.19620615783272286
1.0024482653067794,0.30043566038503033,0.04109204057100297,0.1783931936762516,0.06739265626533793,0.17743208823914774
1.0024953473319098,0.25183659939415354,0.03748501718407641,0.15384153094853617,0.05390903379047913,0.1529616719910019
1.0025424293570402,0.1956066522565673,0.030571250442635037,0.12081929242955049,0.03693091614181456,0.12013499217921769
1.0025895113821706,0.13475970805500284,0.02447296905583829,0.07564140824241966,0.01693187789895843,0.07529248769112985
1.002636593407301,0.07582916802294695,0.021504855369460056,0.025728531183742454,0.0011981936963918664,0.025698635596034775
1.0026836754324313,0.03145358980808763,0.01950258795231515,-0.0040036080406334615,0.0008430285386166265,-0.004020037536161238
1.0027307574575617,0.01779891286180085,0.021549402629477816,-0.006351274616742859,0.01655796449389512,-0.006690008877173939
1.002777839482692,0.04358985242398123,0.024243028175813162,0.006591376950054447,0.03787681462521256,0.005818349805791483
1.0028249215078224,0.1037077589167159,0.035298766330574216,0.04281328660270074,0.05508359224527859,0.04174227855042891
1.0028720035329528,0.18101238562213362,0.05043118479292878,0.0979436666785688,0.06442349317775262,0.09682160894047309
1.0029190855580832,0.25636899888384335,0.06332534847973047,0.15380629462607742,0.06821662321618181,0.1527738908749297
1.0029661675832136,0.31832235074100634,0.0701737632195716,0.19704252226634572,0.06944287124346663,0.1961170676947386
1.003013249608344,0.36361141655314383,0.07437779927610862,0.228525784613192,0.06950041763768217,0.2276882116911582
1.0030603316334743,0.39341420767750745,0.07511254337632321,0.24979870354304085,0.06679047581513728,0.24902850335223217
1.0031074136586047,0.4102870696014962,0.0735141938858993,0.26258314989231946,0.0637420423365408,0.2618543175296363
1.003154495683735,0.41662904201390033,0.07093824418581048,0.266777273312063,0.0599214556342086,0.26607030416900174
1.0032015777088654,0.41405085665469693,0.06720683642682534,0.26326150551395927,0.0550678432627314,0.26256783230481334
1.0032486597339958,0.4030953535584088,0.06228186118402035,0.251751202986526,0.04905998855854954,0.25107373435820723
1.0032957417591262,0.38301151602067063,0.05609191707818239,0.2324239377319079,0.04196296433844498,0.2317798911308375
1.0033428237842565,0.3514583105172215,0.048411139538117036,0.2047530276495091,0.0336792717307496,0.20417576585240546
1.003389905809387,0.3042863356687068,0.03895698623857477,0.16911475512504195,0.024600599756653865,0.16864735246172677
1.0034369878345173,0.2364892670841809,0.02839735637461722,0.12615890065588273,0.01503024947377424,0.12584626497115728
1.0034840698596477,0.14805992805189566,0.018067897557896714,0.07745804013496241,0.005655870233651844,0.0773283000098598
1.003531151884778,0.05937981673678241,0.011723379885823077,0.035632586371168055,-0.0010390817736760562,0.03564638266366574
1.0035782339099084,0.016571701488668728,0.012469003328715748,0.012038086514572617,-0.002587430612203878,0.012088590596384601
1.0036253159350388,0.04141534161646615,0.022100999065142443,0.014399178728297872,0.004417660616436386,0.014305834864502981
1.0036723979601692,0.0978579156313711,0.03743383814786803,0.03595348541122598,0.019066230473190296,0.03556260600239406
1.0037194799852995,0.14599333246590304,0.05618689400003766,0.06503465797160808,0.03359493748474763,0.06437341581585183
1.00376656201043,0.17300879075255565,0.0696699218333085,0.0922030709843016,0.046277272898306895,0.09134493603188484
1.0038136440355603,0.18229222765708752,0.0788721795795122,0.11374971918924169,0.05405727663661064,0.11280291015259199
1.0038607260606907,0.18262972424027749,0.08293659119538624,0.12736778710133306,0.0587988845443032,0.12638115215002882
1.003907808085821,0.18292620727983336,0.08563841280380509,0.13485525602086357,0.06311714704885582,0.13383143767214062
1.0039548901109514,0.18798821740501145,0.08785378092653681,0.13913083302593265,0.06699825688902449,0.13807342726369282
1.0040019721360818,0.19658928748535154,0.08677459259174494,0.1397247738744464,0.06895618647075238,0.1386479866575149
1.0040490541612122,0.20361099360789395,0.08162421201554444,0.1356935801867525,0.06988789389119039,0.13459616481652764
1.0040961361863425,0.20356945018764083,0.0733727254437101,0.1287855413388881,0.06773298481463219,0.12769402096921292
1.004143218211473,0.19261735903368254,0.06476980493974185,0.11776025800915435,0.06547516415485374,0.11666914110086833
1.0041903002366033,0.1692114287165738,0.054076452560706555,0.09836742477706704,0.059469324649079655,0.09731685049829257
1.0042373822617336,0.13469585530973552,0.042111007308984226,0.07519967777083232,0.04929905967774672,0.07427240324872486
1.004284464286864,0.094068350002802,0.029703277725371884,0.051842634052145065,0.03767828230166165,0.051099240575625794
1.0043315463119944,0.0558705414627791,0.01881362341095709,0.03082107495389939,0.024524220435434937,0.030322078334227554
1.0043786283371248,0.029785725493520713,0.012085147721328094,0.019809015244991575,0.011974078607558837,0.019561129397105873
1.0044257103622551,0.022326134922130727,0.009276265502233974,0.01684685304795892,0.0024698703989354527,0.016792799445158664
1.0044727923873855,0.03362727707623793,0.009950170069221685,0.01768087969631584,-0.0018943060542391992,0.017715987397250412
1.004519874412516,0.057935866130881315,0.01363549871693578,0.0238553638180855,-0.0013600781124723275,0.023878219364307028
1.0045669564376463,0.08691312585069338,0.019577075382633646,0.038233159934289905,0.004859078343649658,0.03812628388007019
1.0046140384627766,0.11302745450084833,0.026201810051354503,0.05542672474865837,0.01650558241173726,0.0550860608291511
1.004661120487907,0.13143773576861661,0.032821604759810996,0.07126698378066398,0.030221481392168043,0.07066984040102185
1.0047082025130374,0.140315951549541,0.038327358306228604,0.0817840112464661,0.043769803121825435,0.08095634789603018
1.0047552845381678,0.14016084842095028,0.039155435683941114,0.0846685751900148,0.055019932524755774,0.0836616910097385
1.0048023665632981,0.13271042804166153,0.03730072538105111,0.08028160564993014,0.06304043019578516,0.07914225175408267
1.0048494485884285,0.1199532079956697,0.03309308757759407,0.06958311394397716,0.06860264308148005,0.0683335637287254
1.0048965306135589,0.10352759540252561,0.030526232309663198,0.05738407400153901,0.071363672908527,0.05605978365147937
1.0049436126386893,0.08458770500586026,0.02660664635518875,0.04469505929439128,0.06964920503788857,0.043368271572202924
1.0049906946638196,0.06411017510052013,0.02344530592113095,0.03435472552873721,0.06411269131492262,0.033104517743868356
1.00503777668895,0.043500849939608656,0.01917386367658783,0.022887706523455283,0.05707206977728353,0.02175015621981645
1.0050848587140804,0.02497562650004661,0.014943193944511692,0.013888116903115118,0.04865056784693417,0.012904197035835617
1.0051319407392107,0.011013597455985432,0.010780758056691845,0.011624969459267675,0.03890702686529666,0.010833916636293505
1.0051790227643411,0.003334338693202587,0.009182332779275174,0.009001101837417943,0.02686934389134649,0.008451939213681191
1.0052261047894715,0.0027948227754708652,0.005698975903700913,0.005716764128480125,0.014173190670009016,0.005425801275160864
1.0052731868146019,0.010164673003053454,0.00452244013507257,0.005314070387151807,0.004391007853119423,0.00522306466360316
1.0053202688397322,0.026566180290056158,0.005925185355361677,0.008193549268036414,-0.0017368142562848934,0.008227415743892795
1.0053673508648626,0.05291846997433676,0.008868486719452747,0.011498759854167706,-0.004396724055424022,0.01158650348396655
1.005414432889993,0.08828034555015178,0.010937280347495608,0.017065936640710815,-0.0035618511438197304,0.017135394161118273
1.0054615149151234,0.12763762777320273,0.013786362459371246,0.025647230237824777,0.0008771518246908897,0.02562391264550189
1.0055085969402537,0.16155770115500132,0.01652155321466663,0.038076850744054896,0.00946634520700732,0.037877079658341445
1.0055556789653841,0.18078890709766565,0.019924602750764527,0.05135766337998839,0.019803584548576572,0.050952818949933414
1.0056027609905145,0.18307418566708303,0.02107706398247539,0.06056084021799014,0.03063785430530238,0.05995205401138281
1.0056498430156449,0.1741533504439713,0.022827743508785914,0.06655908741414072,0.040587550467197066,0.06577320568080931
1.0056969250407752,0.16242605985016223,0.022876443155601126,0.07063087442771013,0.049192795898259305,0.06969986772315545
1.0057440070659056,0.15418810481596457,0.020927768878497652,0.07107575192890922,0.05415198580504798,0.0700622322857607
1.005791089091036,0.1523552110015489,0.01720875183809315,0.0660360559428213,0.05533841510099375,0.06499516878254961
1.0058381711161664,0.15691036178882456,0.015359652075465033,0.06130313889977103,0.0543194826576463,0.060272465879224454
1.0058852531412967,0.16538784679386007,0.01459606514556198,0.06307528196508604,0.051133392829899496,0.06210175641284091
1.005932335166427,0.17322460684996496,0.013376622884726953,0.06323184659303546,0.04605384619559932,0.06234673325609201
1.0059794171915575,0.17475929729964576,0.010179822077855949,0.05880087400333982,0.03886784960813498,0.05804019347949847
1.0060264992166879,0.16548577922015562,0.006603255654210374,0.05204155960234529,0.031890022839564755,0.05140613343081863
1.0060735812418182,0.1445721481217929,0.0035292711071507115,0.04234591607178599,0.024448559361571583,0.04185006339993136
1.0061206632669486,0.11538472372115638,0.0006289663550102094,0.03266210113426135,0.0174079457996962,0.03230412710282466
1.006167745292079,0.08342022676517998,-0.0002972669035427128,0.0259645785337829,0.011474831860517464,0.025726013383877505
1.0062148273172093,0.053714935068683495,0.0015397840456812472,0.01794830890199036,0.008186541955933728,0.01777752790986422
1.0062619093423397,0.029620632829972474,0.004832379214844113,0.006428025048282717,0.00743124064360941,0.006274638225956254
1.00630899136747,0.012907514843990737,0.008410262800579053,-0.004503164505502606,0.008035900119630714,-0.004666971581537111
1.0063560733926005,0.004292560353454192,0.013414421360175302,-0.010519166817943732,0.010391136026635274,-0.010730353957004673
1.0064031554177308,0.0038095921685766332,0.01910415524871862,-0.007972360122875525,0.012555169708206726,-0.008228489275887025
1.0064502374428612,0.010924293923755681,0.02705393700364937,0.0013341291502741227,0.01715733626398055,0.0009825457811285967
1.0064973194679916,0.02453035587728399,0.034727033161939834,0.011333716656649779,0.02336122230261386,0.010855861179896427
1.006544401493122,0.042966387475684646,0.04100227419995852,0.020787738978896356,0.029038147374653003,0.02019745352022168
1.0065914835182523,0.06411092062196938,0.045443560225976565,0.03329944681240632,0.03376977213713389,0.03262044360797623
1.0066385655433827,0.08556714248621351,0.05068862038032058,0.049462130528264495,0.0377604646608414,0.048715749559488125
1.006685647568513,0.10493697207975199,0.052860459455893356,0.06485229624100503,0.04053109304670951,0.06406610494988531
1.0067327295936435,0.12014720761669652,0.0528155171256036,0.07640706666955516,0.041415816663296315,0.07561461325683684
1.0067798116187738,0.12974860817624662,0.04914642924857602,0.08294186479002422,0.040012272854387854,0.08217869843087557
1.0068268936439042,0.1331160769266914,0.0453340068222723,0.08436945777741765,0.036496695754308715,0.08366753469021453
1.0068739756690346,0.13051634907150206,0.04012634539747277,0.08386978816652868,0.032479050940596686,0.08323757812057031
1.006921057694165,0.12301693370584733,0.033611973991540846,0.08185258015702256,0.025809015482002155,0.08133903604248906
1.0069681397192953,0.11219272060745543,0.025622890206780893,0.07585112215539112,0.018223024092913345,0.07547768237715431
1.0070152217444257,0.09964098937742749,0.01722454037417016,0.06985230351433948,0.011258766140302618,0.06961316612877175
1.007062303769556,0.08648287672211809,0.01059800724454195,0.06302251331950957,0.006183096482123317,0.0628846381791226
1.0071093857946865,0.07315337862299943,0.005813230270186697,0.053521194673379444,0.002839329849227374,0.05345230090097016
1.0071564678198168,0.05967551136841471,0.001238878146409713,0.042771215350936226,8.915532129658021e-05,0.0427604365794448
1.0072035498449472,0.046352747241279996,-0.0017365344067208671,0.029687677967592516,-0.00044294726892914806,0.02969051868363511
1.0072506318700776,0.03458526276589038,-0.0032678018965874747,0.01916866027493343,0.0008607000426988453,0.019147026166061697
1.007297713895208,0.02727830692374265,-0.0027410681851790875,0.01473006896934623,0.002031658355794945,0.014685406584907508
1.0073447959203383,0.0280866607277734,-0.0009811979469228707,0.01711698325886342,0.004245645925298958,0.017026617009618314
1.0073918779454687,0.03925806445151868,0.003883320001791925,0.028584290137595406,0.008964646818681055,0.028396030442861864
1.007438959970599,0.059562255279517966,0.010943343778026051,0.043832242766228824,0.014855034140277668,0.04352443855771429
1.0074860419957294,0.08449757331606145,0.01720290673323713,0.058037587268334905,0.02227602972668012,0.057585678183210615
1.0075331240208598,0.10858230355013457,0.02210121532476966,0.06858033205585247,0.02829854460040305,0.06801750926051167
1.0075802060459902,0.12742598805780986,0.02521118405647445,0.07621925524513734,0.032474885098477804,0.07558351927749703
1.0076272880711206,0.13840784538629322,0.02684989746639591,0.07904744927672683,0.03515575124032239,0.07836566181388861
1.007674370096251,0.14057521646913557,0.026104324320966592,0.0769603579802706,0.036150748902278394,0.07625986037324302
1.0077214521213813,0.1345761316442056,0.023203485866025615,0.07084930100861353,0.034780900965688095,0.07016961110795834
