freq,gls,usurper,pdc_unbiased,shape_periodogram,shift_periodogram
1.0,0.02176245538732735,0.026478877399832044,-0.007335655112181927,0.010318964866081429,-0.007756369753772471
1.0000470820251304,0.05134779247241603,0.0412855641130175,0.016081221596065367,0.01756117741390356,0.015344091687786684
1.0000941640502607,0.09689124580742478,0.058415694675205285,0.05094334186944231,0.03310380113650052,0.04956358636233998
1.0001412460753911,0.14848755125694818,0.077148257169504,0.08456655871201842,0.053033842603026675,0.08244030734328563
1.0001883281005215,0.19664060203551523,0.09541966280950032,0.10917973127593883,0.0759840131250172,0.10630435482784448
1.0002354101256519,0.23592916525893703,0.10920198738504446,0.12678225514793529,0.0943145715730564,0.12340890748803186
1.0002824921507822,0.26363730657080775,0.11730921540375527,0.13936052532630389,0.10622543873241548,0.13572926851269607
1.0003295741759126,0.2780607972143743,0.12268071023316873,0.14663287491158739,0.11402856273950183,0.1428552839918037
1.000376656201043,0.27778293516045677,0.12467588135717053,0.14742341655727248,0.11820837368446732,0.1435522387425401
1.0004237382261734,0.2619162710265795,0.1216095909643723,0.139633635428265,0.11907133577424815,0.13567978529973404
1.0004708202513037,0.23107843684954268,0.11389687394503302,0.12167319492364326,0.11554653067035402,0.11767262748921221
1.0005179022764341,0.1884924826566669,0.10332155053920401,0.09811663264576473,0.1094243374856156,0.09413213993359013
1.0005649843015645,0.1401213853463462,0.0944141296639908,0.07552593926328457,0.10292475658766902,0.07161932183446434
1.0006120663266949,0.09311329616242185,0.08695463362558728,0.056936636782797936,0.09490939990698122,0.05322167334114991
1.0006591483518252,0.05338098213176131,0.08158843959764067,0.04656239048066332,0.08388002556534932,0.04321733512066799
1.0007062303769556,0.024158292773911582,0.07432841826121041,0.0379052596807291,0.06929429003882999,0.03509808669510188
1.000753312402086,0.006389706849983347,0.06569807524002796,0.024925530867037873,0.0519783083355622,0.022787952469938474
1.0008003944272164,4.4957735270936574e-05,0.05974325406512205,0.013623927240606612,0.036841899728757864,0.012097743296985276
1.0008474764523467,0.004476680458159687,0.054801290986374325,0.005279248516488982,0.03072730485371483,0.004006331531086352
1.000894558477477,0.016631009383087918,0.05747371295854824,0.00604487589630294,0.03277931609495556,0.004687114068043045
1.0009416405026075,0.030279800796216314,0.06770175328302493,0.01614856324889533,0.042197164301484257,0.014403670739274654
1.0009887225277379,0.04019506929021177,0.08258664370803243,0.031662352407458065,0.058294844492070404,0.029278365078323706
1.0010358045528682,0.045271217739530065,0.09501844588796171,0.049643587368788454,0.07745071136012854,0.046549852448136836
1.0010828865779986,0.04665854735345898,0.10362334072485652,0.06394396252727896,0.09500869087461529,0.06025581691098549
1.001129968603129,0.04557434040645729,0.10835334877702107,0.06951556918541625,0.10736807272394697,0.06542426483619643
1.0011770506282593,0.04281463251624272,0.10657376793192334,0.06676401531502141,0.11193473836530074,0.06249958589580482
1.0012241326533897,0.03911406922799136,0.09919042359597469,0.05756222886158259,0.11012191615292283,0.05330460939497344
1.00127121467852,0.035734840091298535,0.08887922419849362,0.04469056838221148,0.10493595659541874,0.040549407167662296
1.0013182967036505,0.034632288517627896,0.08050143955155473,0.03354469161607427,0.10068434903883662,0.02950952876391272
1.0013653787287808,0.03686446430802818,0.07903347397018219,0.03235087082016887,0.0990077274326763,0.02837497763792345
1.0014124607539112,0.040499198873267514,0.08388069311066683,0.04235422606047071,0.10108408289942121,0.03834530895578704
1.0014595427790416,0.04245011553894062,0.09045132507118613,0.05148956578485458,0.10492009002704107,0.04738478133341138
1.001506624804172,0.04142424671447975,0.09409700292082052,0.057489670337512934,0.10460023313893187,0.05342835288704568
1.0015537068293023,0.03772147907862947,0.09394155216470772,0.05838903434484734,0.09804540809722297,0.05456727576074741
1.0016007888544327,0.032149333674356434,0.08850558224106443,0.05286952532393206,0.08512269733505741,0.04949826714120833
1.001647870879563,0.025799799790141527,0.07731444677318555,0.040386054375886556,0.06604460752672808,0.03770959018696352
1.0016949529046935,0.020580986012262138,0.06159773175152285,0.02276083148008517,0.04507336164067765,0.020900509466387007
1.0017420349298238,0.01993155776046648,0.051292261196287305,0.008396000375120035,0.029700028324783762,0.007164227866300208
1.0017891169549542,0.027489951613850306,0.05022621526189871,0.00883020356959996,0.02842561111577112,0.007650686493918666
1.0018361989800846,0.042074300128446054,0.05411242276074807,0.022145335055818467,0.037098247030234996,0.020607915174473364
1.001883281005215,0.05845891480384451,0.06535054659082604,0.04104344236602053,0.05354208877045253,0.03885579684105632
1.0019303630303453,0.07582159493280267,0.07902799374713881,0.05832937685591873,0.07272222667365372,0.05543403512586951
1.0019774450554757,0.09824195100672209,0.08903228095432228,0.07041397317164165,0.0927358229663912,0.06683380729548936
1.002024527080606,0.1303669711588208,0.09086120663233364,0.07896421651578898,0.10645301975305423,0.07495848307423462
1.0020716091057364,0.17464242099810953,0.08907443437898667,0.08832693698111686,0.11515342973900558,0.08409944709420059
1.0021186911308668,0.22917237164395338,0.09346574177663662,0.11355266104308831,0.12188859698735817,0.10931595993061502
1.0021657731559972,0.2864808872447173,0.10181859147134961,0.14880372324738836,0.12848175829372635,0.14471135940930716
1.0022128551811276,0.335488571803669,0.1093642764804857,0.17945522269565434,0.1339099026964586,0.17556085444572592
1.002259937206258,0.3667004160945303,0.11336896342703828,0.20044309409803335,0.13610457782692253,0.19673901058095597
1.0023070192313883,0.37630521047742305,0.1132435053908141,0.20989430295355302,0.13414582854590762,0.20631633155832327
1.0023541012565187,0.3658732131217113,0.10927897384140305,0.20800353236518512,0.12832541188369456,0.2044809122518873
1.002401183281649,0.3393357840705059,0.10323616831326052,0.19716291122807472,0.11922740522444682,0.1936795420071151
1.0024482653067794,0.30043566038503033,0.09524519036099607,0.1783931936762516,0.10465310082783474,0.1750508334027397
1.0024953473319098,0.25183659939415354,0.08362336426973317,0.15384153094853617,0.08336469499315068,0.15089882018359738
1.0025424293570402,0.1956066522565673,0.06580846492453507,0.12081929242955049,0.057085838633904165,0.11859855955061564
1.0025895113821706,0.13475970805500284,0.04439077072011861,0.07564140824241966,0.0260837167848465,0.07453306198390951
1.002636593407301,0.07582916802294695,0.027021697763751015,0.025728531183742454,0.0014046569238855095,0.025648559934709755
1.0026836754324313,0.03145358980808763,0.02195134839701755,-0.0040036080406334615,-0.002860950113047738,-0.0038819256468234217
1.0027307574575617,0.01779891286180085,0.03189537312454852,-0.006351274616742859,0.017038715437310267,-0.00705124010084349
1.002777839482692,0.04358985242398123,0.04609705911078618,0.006591376950054447,0.04975520778774217,0.004534460972033211
1.0028249215078224,0.1037077589167159,0.06868476651512721,0.04281328660270074,0.08091471074535914,0.039569578134695554
1.0028720035329528,0.18101238562213362,0.09505573033970754,0.0979436666785688,0.10279114540959555,0.09416384856432819
1.0029190855580832,0.25636899888384335,0.1173178143046536,0.15380629462607742,0.11584471590496627,0.1500399329538053
1.0029661675832136,0.31832235074100634,0.1325487583556383,0.19704252226634572,0.12103708662641424,0.19352806019117583
1.003013249608344,0.36361141655314383,0.1406494479807452,0.228525784613192,0.12301488961746894,0.22526452469475378
1.0030603316334743,0.39341420767750745,0.1442849877811431,0.24979870354304085,0.12232997943582066,0.24673934737525646
1.0031074136586047,0.4102870696014962,0.14418696134607806,0.26258314989231946,0.11994939068728222,0.2596595376919173
1.003154495683735,0.41662904201390033,0.1417458565272816,0.266777273312063,0.11577054174865528,0.26392445761698946
1.0032015777088654,0.41405085665469693,0.13701396952926365,0.26326150551395927,0.1096355339674642,0.2604390237260798
1.0032486597339958,0.4030953535584088,0.129947197116475,0.251751202986526,0.10134230130682521,0.24894821534265923
1.0032957417591262,0.38301151602067063,0.12030861976848294,0.2324239377319079,0.0908177419473208,0.22967592764048594
1.0033428237842565,0.3514583105172215,0.10771131550569907,0.2047530276495091,0.07785481277670175,0.20215227574971104
1.003389905809387,0.3042863356687068,0.09167723219765976,0.16911475512504195,0.06273341231559589,0.1668088803677088
1.0034369878345173,0.2364892670841809,0.07293190969963316,0.12615890065588273,0.04585229582629437,0.1243302107218666
1.0034840698596477,0.14805992805189566,0.05317666631243501,0.07745804013496241,0.028612890553541267,0.07625078201089412
1.003531151884778,0.05937981673678241,0.03891562137910801,0.035632586371168055,0.015334218140320188,0.034973499915306024
1.0035782339099084,0.016571701488668728,0.03551847042213688,0.012038086514572617,0.010092675457729568,0.011611220566876619
1.0036253159350388,0.04141534161646615,0.04599081028701512,0.014399178728297872,0.01731687219191666,0.01367321303734875
1.0036723979601692,0.0978579156313711,0.06557556931936467,0.03595348541122598,0.03477440825719047,0.03450865211043145
1.0037194799852995,0.14599333246590304,0.09018250973154308,0.06503465797160808,0.05533310457560751,0.0628015042964889
1.00376656201043,0.17300879075255565,0.10902386783365367,0.0922030709843016,0.07435601418634448,0.08933397735268371
1.0038136440355603,0.18229222765708752,0.12118446863262591,0.11374971918924169,0.08614476995366559,0.11056501409337184
1.0038607260606907,0.18262972424027749,0.1263065143905929,0.12736778710133306,0.09436391542130607,0.1239958874872237
1.003907808085821,0.18292620727983336,0.1279323032205814,0.13485525602086357,0.10132757120217187,0.13132747660546004
1.0039548901109514,0.18798821740501145,0.12877438259499094,0.13913083302593265,0.10563561195127684,0.13551355928626735
1.0040019721360818,0.19658928748535154,0.12661423834056137,0.1397247738744464,0.1068832429529183,0.13607871141944514
1.0040490541612122,0.20361099360789395,0.12228445672179544,0.1356935801867525,0.10688169900846485,0.13202163900548153
1.0040961361863425,0.20356945018764083,0.11469676171970944,0.1287855413388881,0.10483527738093971,0.1251256436716194
1.004143218211473,0.19261735903368254,0.10456409955412531,0.11776025800915435,0.10096456246825139,0.11414603096668863
1.0041903002366033,0.1692114287165738,0.09116564641334425,0.09836742477706704,0.09283036688529976,0.09490583174662894
1.0042373822617336,0.13469585530973552,0.07545538113167208,0.07519967777083232,0.08021341432645039,0.07207743119409343
1.004284464286864,0.094068350002802,0.059095711776358834,0.051842634052145065,0.06462740592590596,0.04923947769702714
1.0043315463119944,0.0558705414627791,0.04388059521942682,0.03082107495389939,0.04679760584301966,0.02889424274579921
1.0043786283371248,0.029785725493520713,0.03370800902929107,0.019809015244991575,0.03007881840762019,0.018557638916024015
1.0044257103622551,0.022326134922130727,0.029070911013195422,0.01684685304795892,0.01765374605501185,0.01610541394427053
1.0044727923873855,0.03362727707623793,0.029512906273918824,0.01768087969631584,0.011947484755882965,0.017173282018871715
1.004519874412516,0.057935866130881315,0.034495335333983,0.0238553638180855,0.012892991581971183,0.023304334577549612
1.0045669564376463,0.08691312585069338,0.043988031909620855,0.038233159934289905,0.021730931225188033,0.03731283289682396
1.0046140384627766,0.11302745450084833,0.0568117884793265,0.05542672474865837,0.03852520812922034,0.05383372591604424
1.004661120487907,0.13143773576861661,0.06966662098968816,0.07126698378066398,0.05822157031300152,0.06893340662995286
1.0047082025130374,0.140315951549541,0.08152967806436312,0.0817840112464661,0.07786794524099461,0.0787639463899239
1.0047552845381678,0.14016084842095028,0.08752690033249873,0.0846685751900148,0.09399986432192094,0.08110709746130093
1.0048023665632981,0.13271042804166153,0.08812571153574639,0.08028160564993014,0.10512483160360371,0.07632746859898784
1.0048494485884285,0.1199532079956697,0.08522997904534464,0.06958311394397716,0.11290316601346995,0.06530362587808028
1.0048965306135589,0.10352759540252561,0.08270853503507788,0.05738407400153901,0.11622670764193099,0.052909442994515596
1.0049436126386893,0.08458770500586026,0.07820853345435588,0.04469505929439128,0.11471303965069954,0.040192053549957064
1.0049906946638196,0.06411017510052013,0.07388834562774539,0.03435472552873721,0.10902565871741025,0.03000367975655971
1.00503777668895,0.043500849939608656,0.06717835357098301,0.022887706523455283,0.09977955587681202,0.018839707689839728
1.0050848587140804,0.02497562650004661,0.058126632212285125,0.013888116903115118,0.08678652162949806,0.01032804922699802
1.0051319407392107,0.011013597455985432,0.04963329620157121,0.011624969459267675,0.07191994435887619,0.00866459496127395
1.0051790227643411,0.003334338693202587,0.04085811336870597,0.009001101837417943,0.05420034900178227,0.00676279138784983
1.0052261047894715,0.0027948227754708652,0.028911980969700574,0.005716764128480125,0.03451461372344261,0.004287572510003545
1.0052731868146019,0.010164673003053454,0.01861740258154746,0.005314070387151807,0.01733933390865064,0.004593396705114282
1.0053202688397322,0.026566180290056158,0.01177658788987956,0.008193549268036414,0.004184895687279663,0.008013618704399194
1.0053673508648626,0.05291846997433676,0.008885967331124112,0.011498759854167706,-0.0025556554556439614,0.011594603555430507
1.005414432889993,0.08828034555015178,0.008808272137044654,0.017065936640710815,-0.004270363565713057,0.017227976020054166
1.0054615149151234,0.12763762777320273,0.011166625881305832,0.025647230237824777,-0.0013995423629906997,0.025683145645166078
1.0055085969402537,0.16155770115500132,0.01667184305608643,0.038076850744054896,0.00901796740697831,0.03767385153427438
1.0055556789653841,0.18078890709766565,0.024587638222445807,0.05135766337998839,0.02446466372215245,0.05032138330966426
1.0056027609905145,0.18307418566708303,0.031038675011536516,0.06056084021799014,0.0415814856849846,0.05885007109404526
1.0056498430156449,0.1741533504439713,0.03767104975195913,0.06655908741414072,0.05693402332475009,0.06426752411599276
1.0056969250407752,0.16242605985016223,0.04292255330372024,0.07063087442771013,0.07014109680845772,0.06785812493346449
1.0057440070659056,0.15418810481596457,0.04441816811216278,0.07107575192890922,0.07838057364105917,0.068006510188439
1.005791089091036,0.1523552110015489,0.04259038517841514,0.0660360559428213,0.08133910594638753,0.06284536486657641
1.0058381711161664,0.15691036178882456,0.04181612950458916,0.06130313889977103,0.08113291168919319,0.058105469024078184
1.0058852531412967,0.16538784679386007,0.04295733535087666,0.06307528196508604,0.0785846141717685,0.05997588045342216
1.005932335166427,0.17322460684996496,0.04198851810459276,0.06323184659303546,0.07308199287163226,0.06033460662799332
1.0059794171915575,0.17475929729964576,0.03806731002074379,0.05880087400333982,0.06452249040670588,0.05621321970483297
1.0060264992166879,0.16548577922015562,0.03320694959888098,0.05204155960234529,0.05516788720947912,0.049800921187078115
1.0060735812418182,0.1445721481217929,0.028022649104444537,0.04234591607178599,0.04424309953404161,0.04052498465220602
1.0061206632669486,0.11538472372115638,0.023653748353172528,0.03266210113426135,0.03352268001586457,0.03126798008891373
1.006167745292079,0.08342022676517998,0.021827842363256952,0.0259645785337829,0.025302694458815386,0.024905306739738654
1.0062148273172093,0.053714935068683495,0.02303200118511062,0.01794830890199036,0.019973599751369697,0.01711100757660993
1.0062619093423397,0.029620632829972474,0.024999936952034136,0.006428025048282717,0.017428632986242452,0.005702896257658644
1.00630899136747,0.012907514843990737,0.026312851979328863,-0.004503164505502606,0.016546978500588158,-0.005184089902117662
1.0063560733926005,0.004292560353454192,0.02858835926133152,-0.010519166817943732,0.017649084180776053,-0.011241448844873405
1.0064031554177308,0.0038095921685766332,0.03132445937898231,-0.007972360122875525,0.018666525288764592,-0.00873870277142706
1.0064502374428612,0.010924293923755681,0.038077445850909046,0.0013341291502741227,0.024669038439378337,0.00031321092110009064
1.0064973194679916,0.02453035587728399,0.04495048304810696,0.011333716656649779,0.03333259822709379,0.009951746328516826
1.006544401493122,0.042966387475684646,0.050701042185276185,0.020787738978896356,0.042371223755500495,0.019036381619095082
1.0065914835182523,0.06411092062196938,0.0546009478506816,0.03329944681240632,0.04916023202666423,0.03127956830814247
1.0066385655433827,0.08556714248621351,0.05980992495272032,0.049462130528264495,0.05446187523463675,0.04724620768112369
1.006685647568513,0.10493697207975199,0.062495000485758984,0.06485229624100503,0.05755004253918941,0.06253550397609356
1.0067327295936435,0.12014720761669652,0.06256509766335892,0.07640706666955516,0.05827772137969298,0.074078384946588
1.0067798116187738,0.12974860817624662,0.05970093497476563,0.08294186479002422,0.055990839317355635,0.08070558709182002
1.0068268936439042,0.1331160769266914,0.05699424268001508,0.08436945777741765,0.05135813796421052,0.08230449365685587
1.0068739756690346,0.13051634907150206,0.05231765737783117,0.08386978816652868,0.04616896707586049,0.08199632877302775
1.006921057694165,0.12301693370584733,0.04555600574566858,0.08185258015702256,0.039338320500349834,0.08023440975723183
1.0069681397192953,0.11219272060745543,0.037231576868820775,0.07585112215539112,0.031535404595396575,0.07453078948309891
1.0070152217444257,0.09964098937742749,0.029208612854568227,0.06985230351433948,0.024259814962457958,0.06881729129936169
1.007062303769556,0.08648287672211809,0.023479879933551797,0.06302251331950957,0.019058661246797184,0.06219679414105395
1.0071093857946865,0.07315337862299943,0.01995111969752501,0.053521194673379444,0.015217150716459842,0.05285522372146713
1.0071564678198168,0.05967551136841471,0.01730731966837034,0.042771215350936226,0.012118887735770202,0.04223814443047116
1.0072035498449472,0.046352747241279996,0.015455337170502334,0.029687677967592516,0.011027834590296165,0.02920876989368101
1.0072506318700776,0.03458526276589038,0.015509672616339896,0.01916866027493343,0.01200086879968456,0.018657743810870122
1.007297713895208,0.02727830692374265,0.017633812390052336,0.01473006896934623,0.013248784477205877,0.014171158222422136
1.0073447959203383,0.0280866607277734,0.022955304274379015,0.01711698325886342,0.01706877230957957,0.016399376864904728
1.0073918779454687,0.03925806445151868,0.0340232657352841,0.028584290137595406,0.02573838895741863,0.027506147615183867
1.007438959970599,0.059562255279517966,0.04805205007648016,0.043832242766228824,0.0364499985654018,0.04232017299882781
1.0074860419957294,0.08449757331606145,0.061315237337785745,0.058037587268334905,0.048899607290441044,0.05604318729148112
1.0075331240208598,0.10858230355013457,0.07218962695446347,0.06858033205585247,0.060685086217076654,0.0661515182064669
1.0075802060459902,0.12742598805780986,0.07928022889453555,0.07621925524513734,0.06908776087951468,0.07349679430835342
1.0076272880711206,0.13840784538629322,0.08194255859564337,0.07904744927672683,0.0736914575719102,0.07616700068878476
1.007674370096251,0.14057521646913557,0.07882479499937649,0.0769603579802706,0.07449054122435808,0.07404614518647845
1.0077214521213813,0.1345761316442056,0.07207752891564456,0.07084930100861353,0.07132270222495565,0.06803408738817704
1.0077685341465117,0.12269802495893224,0.06225085742250027,0.062425783036096825,0.0637700597944132,0.05987238130032581
