freq,gls,usurper,pdc_unbiased,shape_periodogram,shift_periodogram
1.0,0.02176245538732735,0.02002722290491355,-0.007335655112181927,0.005880640623928697,-0.007520388674195319
1.0000470820251304,0.05134779247241603,0.028626333584566704,0.016081221596065367,0.009415873692166005,0.01577215036266664
1.0000941640502607,0.09689124580742478,0.0390308135971535,0.05094334186944231,0.019188614061391066,0.05031416500403739
1.0001412460753911,0.14848755125694818,0.05011040466745615,0.08456655871201842,0.03317208438404929,0.08351768221553016
1.0001883281005215,0.19664060203551523,0.061334821393831535,0.10917973127593883,0.05030199759053828,0.10767597890393082
1.0002354101256519,0.23592916525893703,0.07042859649053577,0.12678225514793529,0.0637862093982719,0.12497365567930893
1.0002824921507822,0.26363730657080775,0.07499285991488458,0.13936052532630389,0.07162205098982387,0.1374076479674412
1.0003295741759126,0.2780607972143743,0.07812056432384065,0.14663287491158739,0.07625574417964438,0.14460572828356008
1.000376656201043,0.27778293516045677,0.07947720914103545,0.14742341655727248,0.07875323090634231,0.14534888473801985
1.0004237382261734,0.2619162710265795,0.07686101447622543,0.139633635428265,0.07902068184776641,0.13752623870117742
1.0004708202513037,0.23107843684954268,0.07081341429653144,0.12167319492364326,0.07602994674525555,0.11957003538355963
1.0005179022764341,0.1884924826566669,0.06265801050715947,0.09811663264576473,0.07110526487941042,0.09606188413198145
1.0005649843015645,0.1401213853463462,0.056055962900315684,0.07552593926328457,0.06579151819133956,0.07355579715882486
1.0006120663266949,0.09311329616242185,0.051078277796890566,0.056936636782797936,0.059278681849086357,0.05511408225337253
1.0006591483518252,0.05338098213176131,0.04844633390634582,0.04656239048066332,0.05030764461055445,0.044988865877223304
1.0007062303769556,0.024158292773911582,0.04490958825553349,0.0379052596807291,0.0390408856494836,0.036665694661422485
1.000753312402086,0.006389706849983347,0.04120266924851321,0.024925530867037873,0.025807185081539116,0.024094788375424208
1.0008003944272164,4.4957735270936574e-05,0.03940745596977238,0.013623927240606612,0.014094246279620932,0.013166862011660995
1.0008474764523467,0.004476680458159687,0.037207419162456415,0.005279248516488982,0.010180808960757064,0.004950670489148206
1.000894558477477,0.016631009383087918,0.04055607905753698,0.00604487589630294,0.012801950627811344,0.005632150916125689
1.0009416405026075,0.030279800796216314,0.04975725686191043,0.01614856324889533,0.02124951756756342,0.015463303598853518
1.0009887225277379,0.04019506929021177,0.062268456504636374,0.031662352407458065,0.03626042475502371,0.0305062552340912
1.0010358045528682,0.045271217739530065,0.07284881040314711,0.049643587368788454,0.054604010561337506,0.04794655425379235
1.0010828865779986,0.04665854735345898,0.07976036793513346,0.06394396252727896,0.07232033256533857,0.061769333365697586
1.001129968603129,0.04557434040645729,0.08445508031491392,0.06951556918541625,0.08584240071277405,0.0669954508402049
1.0011770506282593,0.04281463251624272,0.08428730545856623,0.06676401531502141,0.09262576869242894,0.06405586449208961
1.0012241326533897,0.03911406922799136,0.07889092980479585,0.05756222886158259,0.09371202694030081,0.05478526357284814
1.00127121467852,0.035734840091298535,0.07036043729472213,0.04469056838221148,0.0912715065261308,0.041926715203054556
1.0013182967036505,0.034632288517627896,0.062477132484817954,0.03354469161607427,0.0886667802113824,0.03081273207717179
1.0013653787287808,0.03686446430802818,0.059689565495356055,0.03235087082016887,0.08700275883006296,0.02966357582989065
1.0014124607539112,0.040499198873267514,0.06208192048627947,0.04235422606047071,0.08763482055972358,0.039684678701693274
1.0014595427790416,0.04245011553894062,0.06642437947740261,0.05148956578485458,0.08922099855861,0.048809983615852905
1.001506624804172,0.04142424671447975,0.06794664666215156,0.057489670337512934,0.08590388317357597,0.05492376678605648
1.0015537068293023,0.03772147907862947,0.06697543016620305,0.05838903434484734,0.07744164628829568,0.056058316295280824
1.0016007888544327,0.032149333674356434,0.0626368514643338,0.05286952532393206,0.06413116813820716,0.05090083162145873
1.001647870879563,0.025799799790141527,0.055093558657749925,0.040386054375886556,0.04591308444192908,0.03893901974385691
1.0016949529046935,0.020580986012262138,0.04349364080188319,0.02276083148008517,0.026854209338226485,0.021897428542542244
1.0017420349298238,0.01993155776046648,0.03613837590008566,0.008396000375120035,0.01244903929814191,0.007993551321080258
1.0017891169549542,0.027489951613850306,0.035094672766669596,0.00883020356959996,0.009819732420934282,0.008511546716721623
1.0018361989800846,0.042074300128446054,0.03685758450072647,0.022145335055818467,0.015619219252741498,0.0216366172036493
1.001883281005215,0.05845891480384451,0.044727370789523484,0.04104344236602053,0.028163367580129783,0.04013833381857919
1.0019303630303453,0.07582159493280267,0.05453843373725477,0.05832937685591873,0.043247374515436,0.05697415450631764
1.0019774450554757,0.09824195100672209,0.06228681011373108,0.07041397317164165,0.05982628012961445,0.06859763911444662
1.002024527080606,0.1303669711588208,0.06255141772491522,0.07896421651578898,0.07224622110308919,0.07683012427644673
1.0020716091057364,0.17464242099810953,0.0593537247387468,0.08832693698111686,0.08090036376121452,0.08599953431715474
1.0021186911308668,0.22917237164395338,0.062146928141674156,0.11355266104308831,0.08760696814148249,0.11116359303355075
1.0021657731559972,0.2864808872447173,0.0688506334443219,0.14880372324738836,0.09416385411405774,0.14644698674116027
1.0022128551811276,0.335488571803669,0.07544710827186603,0.17945522269565434,0.09994850651817981,0.17717450275360522
1.002259937206258,0.3667004160945303,0.07949047343154116,0.20044309409803335,0.10326536096351152,0.1982489604376537
1.0023070192313883,0.37630521047742305,0.08049314560379692,0.20989430295355302,0.10335454627851506,0.2077583962908049
1.0023541012565187,0.3658732131217113,0.07863473175013733,0.20800353236518512,0.10041292535487496,0.2058848305041707
1.002401183281649,0.3393357840705059,0.07590857156971674,0.19716291122807472,0.09462081895638264,0.19504889014047244
1.0024482653067794,0.30043566038503033,0.0722448874794259,0.1783931936762516,0.0839452520629528,0.17634398068182028
1.0024953473319098,0.25183659939415354,0.06552286161844516,0.15384153094853617,0.06752613151003234,0.15201549011655463
1.0025424293570402,0.1956066522565673,0.053221803315163095,0.12081929242955049,0.046536305855165376,0.11942706183605145
1.0025895113821706,0.13475970805500284,0.03811738683744069,0.07564140824241966,0.02208601855416008,0.07491946538151646
1.002636593407301,0.07582916802294695,0.0258813097191075,0.025728531183742454,0.002769129502377127,0.02562681299533729
1.0026836754324313,0.03145358980808763,0.022678004214203972,-0.0040036080406334615,-0.0007367887434973912,-0.00397795219078777
1.0027307574575617,0.01779891286180085,0.029709378065387603,-0.006351274616742859,0.014391580502110415,-0.006809718548274172
1.002777839482692,0.04358985242398123,0.0362288143182738,0.006591376950054447,0.04086400695364377,0.005283415237621842
1.0028249215078224,0.1037077589167159,0.049357876659807516,0.04281328660270074,0.0640566855986571,0.04082840443459607
1.0028720035329528,0.18101238562213362,0.06764206498780435,0.0979436666785688,0.07948063259442745,0.09568328180900382
1.0029190855580832,0.25636899888384335,0.08640955748447539,0.15380629462607742,0.0875599406284494,0.15159031380121846
1.0029661675832136,0.31832235074100634,0.09985363523102798,0.19704252226634572,0.08958269165973926,0.19499302310718714
1.003013249608344,0.36361141655314383,0.10658455431568738,0.228525784613192,0.09057391415646246,0.22661852442828445
1.0030603316334743,0.39341420767750745,0.10924130255992062,0.24979870354304085,0.08946561069863512,0.24800728020798213
1.0031074136586047,0.4102870696014962,0.10868408582155666,0.26258314989231946,0.08680988265166924,0.26087460934311624
1.003154495683735,0.41662904201390033,0.10642456497794175,0.266777273312063,0.08284184271211545,0.2651193525443337
1.0032015777088654,0.41405085665469693,0.10237218527972079,0.26326150551395927,0.07737416148480751,0.26163881850721227
1.0032486597339958,0.4030953535584088,0.09653493939839823,0.251751202986526,0.07019503553242984,0.25016859934738417
1.0032957417591262,0.38301151602067063,0.08875477509156893,0.2324239377319079,0.06131351603514629,0.23091392087540002
1.0033428237842565,0.3514583105172215,0.07869667817027781,0.2047530276495091,0.050529993541742146,0.20338260497233582
1.003389905809387,0.3042863356687068,0.06598456193413932,0.16911475512504195,0.03818902493653404,0.1679778465999073
1.0034369878345173,0.2364892670841809,0.051217740431133064,0.12615890065588273,0.024598720554302806,0.12536311492760713
1.0034840698596477,0.14805992805189566,0.035803487900327106,0.07745804013496241,0.010903552099567665,0.07707690951399493
1.003531151884778,0.05937981673678241,0.024938756435310076,0.035632586371168055,0.0006090997671815164,0.03559485297407036
1.0035782339099084,0.016571701488668728,0.02306697160019586,0.012038086514572617,-0.002777316033829322,0.012120906428443946
1.0036253159350388,0.04141534161646615,0.032728506601052976,0.014399178728297872,0.004644237522798408,0.014243213157198002
1.0036723979601692,0.0978579156313711,0.04979618195066577,0.03595348541122598,0.020695260809226526,0.0352808994685995
1.0037194799852995,0.14599333246590304,0.07087071640170947,0.06503465797160808,0.03920076752126093,0.06380228142947408
1.00376656201043,0.17300879075255565,0.08673524175846557,0.0922030709843016,0.0572508812595592,0.09049221335930734
1.0038136440355603,0.18229222765708752,0.09741753280135058,0.11374971918924169,0.06870529932689103,0.11179376203732412
1.0038607260606907,0.18262972424027749,0.10302138582941342,0.12736778710133306,0.07669334348716884,0.12526819428940372
1.003907808085821,0.18292620727983336,0.10504063971193515,0.13485525602086357,0.08470949776173238,0.13261417243514662
1.0039548901109514,0.18798821740501145,0.10657838023914744,0.13913083302593265,0.09005001057862744,0.1368031622877782
1.0040019721360818,0.19658928748535154,0.10563747062684163,0.1397247738744464,0.09259030486214802,0.13735192020642523
1.0040490541612122,0.20361099360789395,0.10186823666376632,0.1356935801867525,0.09236001652286455,0.13330578736436854
1.0040961361863425,0.20356945018764083,0.09436280480905797,0.1287855413388881,0.09003977624978877,0.12641130408200896
1.004143218211473,0.19261735903368254,0.0841633563566012,0.11776025800915435,0.08606228379518407,0.11542205276907956
1.0041903002366033,0.1692114287165738,0.07147855955701728,0.09836742477706704,0.07765083025049264,0.09615265731277135
1.0042373822617336,0.13469585530973552,0.05703807930030768,0.07519967777083232,0.06518099592608528,0.07324536804464261
1.004284464286864,0.094068350002802,0.04244273395877325,0.051842634052145065,0.05023357833996895,0.05027647866678861
1.0043315463119944,0.0558705414627791,0.029366862914081825,0.03082107495389939,0.03321987924236127,0.029758959705465198
1.0043786283371248,0.029785725493520713,0.020723171663554404,0.019809015244991575,0.016985918028022334,0.019257804233019333
1.0044257103622551,0.022326134922130727,0.01677907847256788,0.01684685304795892,0.004481552470111682,0.016694872524136973
1.0044727923873855,0.03362727707623793,0.017320924626096988,0.01768087969631584,-0.0015799027377924255,0.017722417874929047
1.004519874412516,0.057935866130881315,0.021724011436709587,0.0238553638180855,-0.0013073865697455574,0.0238849934899585
1.0045669564376463,0.08691312585069338,0.029658800697147495,0.038233159934289905,0.00612869901874612,0.038018376212924594
1.0046140384627766,0.11302745450084833,0.039819000332389935,0.05542672474865837,0.020420709052817714,0.0547585542621626
1.004661120487907,0.13143773576861661,0.04966398381232665,0.07126698378066398,0.0370522020996326,0.07010041396762387
1.0047082025130374,0.140315951549541,0.05830814263630226,0.0817840112464661,0.05396935880035122,0.08014642860475048
1.0047552845381678,0.14016084842095028,0.06174136995451648,0.0846685751900148,0.06811796431317824,0.08265679070554284
1.0048023665632981,0.13271042804166153,0.06123835603212149,0.08028160564993014,0.07788654165735624,0.07800445482246054
1.0048494485884285,0.1199532079956697,0.058230204456529135,0.06958311394397716,0.08532400279307381,0.06707681757141457
1.0048965306135589,0.10352759540252561,0.05520073986056083,0.05738407400153901,0.08904095185829443,0.05473246045106277
1.0049436126386893,0.08458770500586026,0.04978852868135294,0.04469505929439128,0.08820944943893491,0.04201784590637331
1.0049906946638196,0.06411017510052013,0.045515382866282476,0.03435472552873721,0.08342161403098232,0.03177976714125945
1.00503777668895,0.043500849939608656,0.040039636891088234,0.022887706523455283,0.07619349301405459,0.02049641504826221
1.0050848587140804,0.02497562650004661,0.03385923966335173,0.013888116903115118,0.06570197264894187,0.011802273670724131
1.0051319407392107,0.011013597455985432,0.028520900519402998,0.011624969459267675,0.05284109017734625,0.009940443054066682
1.0051790227643411,0.003334338693202587,0.02455892359905808,0.009001101837417943,0.03826325874333099,0.0077765589741419176
1.0052261047894715,0.0027948227754708652,0.01712223131229949,0.005716764128480125,0.02325165229307688,0.004970348880339772
1.0052731868146019,0.010164673003053454,0.010718685633170195,0.005314070387151807,0.010644719230952594,0.004970639091960749
1.0053202688397322,0.026566180290056158,0.007408347971815422,0.008193549268036414,8.182197183366206e-05,0.008186723460365381
1.0053673508648626,0.05291846997433676,0.0072926540685140035,0.011498759854167706,-0.0048939287133108345,0.01164974198329896
1.005414432889993,0.08828034555015178,0.009237810167007622,0.017065936640710815,-0.005174140871911143,0.017223089164175334
1.0054615149151234,0.12763762777320273,0.012346308818134531,0.025647230237824777,-0.0015697945282657454,0.02568434541340111
1.0055085969402537,0.16155770115500132,0.016327649790498527,0.038076850744054896,0.007837665746940996,0.03780796150345838
1.0055556789653841,0.18078890709766565,0.02162663642844718,0.05135766337998839,0.020775429646205726,0.050679346995997354
1.0056027609905145,0.18307418566708303,0.025107513960298353,0.06056084021799014,0.034560767645865034,0.05946409991986169
1.0056498430156449,0.1741533504439713,0.028652343729787196,0.06655908741414072,0.04651963872967927,0.06511470089886114
1.0056969250407752,0.16242605985016223,0.03081408919687678,0.07063087442771013,0.05671035933199999,0.06890169276750079
1.0057440070659056,0.15418810481596457,0.030539347613334916,0.07107575192890922,0.06221772133037165,0.06919440923302521
1.005791089091036,0.1523552110015489,0.028292380529108013,0.0660360559428213,0.0635358547645441,0.06410884731505449
1.0058381711161664,0.15691036178882456,0.027079110032075963,0.06130313889977103,0.06281111029617745,0.059387473497067245
1.0058852531412967,0.16538784679386007,0.02742291849365834,0.06307528196508604,0.06019185123203495,0.06123657312051973
1.005932335166427,0.17322460684996496,0.0259212302127423,0.06323184659303546,0.054882318592131434,0.06154403278266986
1.0059794171915575,0.17475929729964576,0.022531287551672063,0.05880087400333982,0.047114250148576176,0.05733258772416063
1.0060264992166879,0.16548577922015562,0.018772217548470665,0.05204155960234529,0.03886540355567128,0.05081310780701498
1.0060735812418182,0.1445721481217929,0.014979166104211794,0.04234591607178599,0.02931743922033756,0.04140528411317587
1.0061206632669486,0.11538472372115638,0.011482775281276836,0.03266210113426135,0.019584350750002505,0.03202509845980625
1.006167745292079,0.08342022676517998,0.009460013188671467,0.0259645785337829,0.011522519922577945,0.02558420726481937
1.0062148273172093,0.053714935068683495,0.010347066247020274,0.01794830890199036,0.006604263706004745,0.017728022693355598
1.0062619093423397,0.029620632829972474,0.012373373765717566,0.006428025048282717,0.004506983186254189,0.006280419278627911
1.00630899136747,0.012907514843990737,0.014905276458927277,-0.004503164505502606,0.005190347209341877,-0.0046671815751226885
1.0063560733926005,0.004292560353454192,0.018449184955437882,-0.010519166817943732,0.007897258340421062,-0.010767046686638006
1.0064031554177308,0.0038095921685766332,0.02350397203223729,-0.007972360122875525,0.010549447445029976,-0.008306644423800547
1.0064502374428612,0.010924293923755681,0.03242627908228648,0.0013341291502741227,0.018436452762314072,0.0007429676451967405
1.0064973194679916,0.02453035587728399,0.04033931936278409,0.011333716656649779,0.028226913717061413,0.010427978336594635
1.006544401493122,0.042966387475684646,0.04678243432434147,0.020787738978896356,0.03759923709310635,0.019587179062677963
1.0065914835182523,0.06411092062196938,0.05029859841298018,0.03329944681240632,0.04429598251283635,0.03189690674301362
1.0066385655433827,0.08556714248621351,0.05499023864212397,0.049462130528264495,0.04903742081303206,0.04792901781033699
1.006685647568513,0.10493697207975199,0.05762513850271718,0.06485229624100503,0.051255512773896825,0.06327011361939387
1.0067327295936435,0.12014720761669652,0.0580194561649067,0.07640706666955516,0.051278128619996796,0.07483735779048886
1.0067798116187738,0.12974860817624662,0.05488715187963967,0.08294186479002422,0.04909247979249037,0.08144036140628909
1.0068268936439042,0.1331160769266914,0.05220704561441973,0.08436945777741765,0.04464426620142326,0.08299345731032189
1.0068739756690346,0.13051634907150206,0.0467711433639065,0.08386978816652868,0.03974651630603223,0.08263183041220686
1.006921057694165,0.12301693370584733,0.039198249037074605,0.08185258015702256,0.033027383902178326,0.08080709921891142
1.0069681397192953,0.11219272060745543,0.030150944588612606,0.07585112215539112,0.02497625136175349,0.07504240685312781
1.0070152217444257,0.09964098937742749,0.021477691214009796,0.06985230351433948,0.01724883541731226,0.06927832896109777
1.007062303769556,0.08648287672211809,0.014775048836168857,0.06302251331950957,0.011251517916114903,0.06263593866755392
1.0071093857946865,0.07315337862299943,0.010761454303835204,0.053521194673379444,0.006808410570624443,0.053277862630370446
1.0071564678198168,0.05967551136841471,0.007553480612597028,0.042771215350936226,0.003020320463983652,0.0426530076308812
1.0072035498449472,0.046352747241279996,0.005015616143041775,0.029687677967592516,0.0012469646647389773,0.029632584216216784
1.0072506318700776,0.03458526276589038,0.004289664176589489,0.01916866027493343,0.0015839598842580598,0.019108136116933613
1.007297713895208,0.02727830692374265,0.005276605047932551,0.01473006896934623,0.0022141532532102405,0.014651639948450042
1.0073447959203383,0.0280866607277734,0.008439333620503529,0.01711698325886342,0.004618403616605476,0.016960497324518205
1.0073918779454687,0.03925806445151868,0.01623789436247729,0.028584290137595406,0.010901312738376403,0.02822251051371278
1.007438959970599,0.059562255279517966,0.02635176287329417,0.043832242766228824,0.01910699355180926,0.04320731491246515
1.0074860419957294,0.08449757331606145,0.03588096454185652,0.058037587268334905,0.028715066092224763,0.05711606730121926
1.0075331240208598,0.10858230355013457,0.04349583897157876,0.06858033205585247,0.03778108355151038,0.06739126603941194
1.0075802060459902,0.12742598805780986,0.048849843276951875,0.07621925524513734,0.044164598183898056,0.07485026787144888
1.0076272880711206,0.13840784538629322,0.05149872035187091,0.07904744927672683,0.047801756549217256,0.07757801699680954
1.007674370096251,0.14057521646913557,0.05034899011847016,0.0769603579802706,0.04894218762416481,0.07545677870904971
1.0077214521213813,0.1345761316442056,0.046613798200955604,0.07084930100861353,0.04719456254335598,0.06938932936140765
1.0077685341465117,0.12269802495893224,0.040425316631081835,0.062425783036096825,0.0420246402733793,0.061109097306723356
