freq,gls,usurper,pdc_unbiased,shape_periodogram,shift_periodogram
1.0,0.02176245538732735,0.020860220162865827,-0.007335655112181927,0.00041772885807340223,-0.007343456019517263
1.0000470820251304,0.05134779247241603,0.026100278015745396,0.016081221596065367,0.002990851418323788,0.016006455795236102
1.0000941640502607,0.09689124580742478,0.030338031557268566,0.05094334186944231,0.010097700276073677,0.05069504357015303
1.0001412460753911,0.14848755125694818,0.03416338931399634,0.08456655871201842,0.018288070565668932,0.08413131698883454
1.0001883281005215,0.19664060203551523,0.037803241962948535,0.10917973127593883,0.027882669939747685,0.10854676760591442
1.0002354101256519,0.23592916525893703,0.04038805232046212,0.12678225514793529,0.03471875797680237,0.12602461894469077
1.0002824921507822,0.26363730657080775,0.039740154276242966,0.13936052532630389,0.03753279298583309,0.13856027877226082
1.0003295741759126,0.2780607972143743,0.03979377163761426,0.14663287491158739,0.039187016619606684,0.14580960795750522
1.000376656201043,0.27778293516045677,0.04053070182852325,0.14742341655727248,0.03993966522246892,0.1465879449309356
1.0004237382261734,0.2619162710265795,0.03892384995765534,0.139633635428265,0.04029238011768074,0.13878509543006073
1.0004708202513037,0.23107843684954268,0.0354235985068156,0.12167319492364326,0.039085065881176585,0.12083103279540254
1.0005179022764341,0.1884924826566669,0.030789790033007147,0.09811663264576473,0.03671700762011591,0.09730265849503535
1.0005649843015645,0.1401213853463462,0.02759095466763721,0.07552593926328457,0.03381103206889763,0.07475839795377213
1.0006120663266949,0.09311329616242185,0.025858737092881112,0.056936636782797936,0.02968336088046189,0.05625017949662546
1.0006591483518252,0.05338098213176131,0.026783218104536807,0.04656239048066332,0.023512221843347177,0.0460104720173615
1.0007062303769556,0.024158292773911582,0.027184275091478426,0.0379052596807291,0.015932147703045883,0.03752525975360074
1.000753312402086,0.006389706849983347,0.027602530279814606,0.024925530867037873,0.0073010583786102335,0.024747567996059955
1.0008003944272164,4.4957735270936574e-05,0.029584625121634785,0.013623927240606612,-0.0003651947126116427,0.013628747956609188
1.0008474764523467,0.004476680458159687,0.02934410306075704,0.005279248516488982,-0.0018955838034976995,0.005322417947672261
1.000894558477477,0.016631009383087918,0.032198616360770836,0.00604487589630294,0.0010792873027907796,0.006017797593748971
1.0009416405026075,0.030279800796216314,0.038965662351865736,0.01614856324889533,0.007529865039007351,0.015967346185345385
1.0009887225277379,0.04019506929021177,0.047883407293798856,0.031662352407458065,0.019273776427952156,0.031206316888748146
1.0010358045528682,0.045271217739530065,0.054486722061436024,0.049643587368788454,0.033507646561159427,0.04887128896898307
1.0010828865779986,0.04665854735345898,0.056360621790324375,0.06394396252727896,0.047780979427693764,0.06287978398952873
1.001129968603129,0.04557434040645729,0.057622142063600126,0.06951556918541625,0.059429528321796675,0.06822729383274759
1.0011770506282593,0.04281463251624272,0.05550715233648076,0.06676401531502141,0.06659571355514657,0.06533247642449866
1.0012241326533897,0.03911406922799136,0.050246194649574284,0.05756222886158259,0.06991587657236335,0.0560450660836379
1.00127121467852,0.035734840091298535,0.04362893255698171,0.04469056838221148,0.07032343919589815,0.04313405724139627
1.0013182967036505,0.034632288517627896,0.03739161625272443,0.03354469161607427,0.0700232815142434,0.0319679919711855
1.0013653787287808,0.03686446430802818,0.03596440075049764,0.03235087082016887,0.0690045114868698,0.03079320172226603
1.0014124607539112,0.040499198873267514,0.038477649913576,0.04235422606047071,0.06833420728887475,0.04083327521389245
1.0014595427790416,0.04245011553894062,0.04119854409928157,0.05148956578485458,0.06683115030260998,0.0500196426326589
1.001506624804172,0.04142424671447975,0.04130755525884899,0.057489670337512934,0.06071370998484089,0.056154671356892054
1.0015537068293023,0.03772147907862947,0.039910528062288605,0.05838903434484734,0.051631206343491186,0.05723960912741859
1.0016007888544327,0.032149333674356434,0.037943561088350806,0.05286952532393206,0.03965926157207887,0.05196589215716745
1.001647870879563,0.025799799790141527,0.03577285690387649,0.040386054375886556,0.024983854875661213,0.03980054460558593
1.0016949529046935,0.020580986012262138,0.03046147330264765,0.02276083148008517,0.010718020003577144,0.02250369484329295
1.0017420349298238,0.01993155776046648,0.02730641890551659,0.008396000375120035,-6.685210144264187e-05,0.00839524733335031
1.0017891169549542,0.027489951613850306,0.027430700808808443,0.00883020356959996,-0.0017464771299387392,0.008868879872412664
1.0018361989800846,0.042074300128446054,0.027253688417721994,0.022145335055818467,0.0027787988880356375,0.022073916919820653
1.001883281005215,0.05845891480384451,0.03035652635852629,0.04104344236602053,0.01189912186944872,0.04075554714472574
1.0019303630303453,0.07582159493280267,0.0362034272771912,0.05832937685591873,0.02191829588000847,0.05781372710160124
1.0019774450554757,0.09824195100672209,0.041488908527374795,0.07041397317164165,0.03316939304846427,0.06965757698433937
1.002024527080606,0.1303669711588208,0.04004642340583236,0.07896421651578898,0.04270918625957854,0.078017053276476
1.0020716091057364,0.17464242099810953,0.0349237405464854,0.08832693698111686,0.049527222496255845,0.08725640977196018
1.0021186911308668,0.22917237164395338,0.035445572618799215,0.11355266104308831,0.05449074086972936,0.11242818150630009
1.0021657731559972,0.2864808872447173,0.03917463169188593,0.14880372324738836,0.05855033873496091,0.14767797090190618
1.0022128551811276,0.335488571803669,0.04309859963081944,0.17945522269565434,0.06199573223686698,0.17834916609561463
1.002259937206258,0.3667004160945303,0.045726598588865214,0.20044309409803335,0.06391871051480444,0.19936565509877877
1.0023070192313883,0.37630521047742305,0.046776724989794245,0.20989430295355302,0.06389836265330846,0.2088402614786176
1.0023541012565187,0.3658732131217113,0.04607347996054355,0.20800353236518512,0.062083460731825225,0.20696218922090512
1.002401183281649,0.3393357840705059,0.04496235595135845,0.19716291122807472,0.05821955954989727,0.19613832435926468
1.0024482653067794,0.30043566038503033,0.0438386045842672,0.1783931936762516,0.051456109715424095,0.17741859040439353
1.0024953473319098,0.25183659939415354,0.04152292958188807,0.15384153094853617,0.040572196677610334,0.15300129818654382
1.0025424293570402,0.1956066522565673,0.035855638556035664,0.12081929242955049,0.026932079757056086,0.12020900487468826
1.0025895113821706,0.13475970805500284,0.027962428613616336,0.07564140824241966,0.012361428639375883,0.07533776570167294
1.002636593407301,0.07582916802294695,0.02118606780766352,0.025728531183742454,0.0011955276780198235,0.02569330732937122
1.0026836754324313,0.03145358980808763,0.02221077852048603,-0.0040036080406334615,-0.001441518476029647,-0.003968568002258501
1.0027307574575617,0.01779891286180085,0.02922533043158301,-0.006351274616742859,0.007316058195731656,-0.0065219089581937
1.002777839482692,0.04358985242398123,0.02755542981895154,0.006591376950054447,0.023980076127832,0.006026791280687416
1.0028249215078224,0.1037077589167159,0.02778693055486972,0.04281328660270074,0.03641193597126182,0.04197434676299533
1.0028720035329528,0.18101238562213362,0.03384437602586731,0.0979436666785688,0.045078254535816376,0.09696828582180948
1.0029190855580832,0.25636899888384335,0.045622729891820445,0.15380629462607742,0.047780417449356634,0.15284973796380102
1.0029661675832136,0.31832235074100634,0.05722953681835531,0.19704252226634572,0.044699229668694246,0.19618665395886198
1.003013249608344,0.36361141655314383,0.06206701311543998,0.228525784613192,0.0433803245538812,0.22772637823220726
1.0030603316334743,0.39341420767750745,0.0641322743833167,0.24979870354304085,0.04197886800940144,0.24904215403649174
1.0031074136586047,0.4102870696014962,0.06367115496622125,0.26258314989231946,0.039569738843667095,0.2618692277520334
1.003154495683735,0.41662904201390033,0.06255473068026716,0.266777273312063,0.03680596713974677,0.26610020847297033
1.0032015777088654,0.41405085665469693,0.06043932193663128,0.26326150551395927,0.03323992737910519,0.2626258833365135
1.0032486597339958,0.4030953535584088,0.057326741499844056,0.251751202986526,0.028660415965430168,0.25117075238110365
1.0032957417591262,0.38301151602067063,0.05317425631946355,0.2324239377319079,0.023153405348132233,0.23192021740328347
1.0033428237842565,0.3514583105172215,0.047792848744486714,0.2047530276495091,0.016667115026663463,0.20435785168968656
1.003389905809387,0.3042863356687068,0.04099651685630085,0.16911475512504195,0.009594602283010033,0.16886050972051514
1.0034369878345173,0.2364892670841809,0.03324661975507532,0.12615890065588273,0.0021903742076753597,0.12607445148082513
1.0034840698596477,0.14805992805189566,0.024995270115018783,0.07745804013496241,-0.004928412400467473,0.07755261688689125
1.003531151884778,0.05937981673678241,0.019435800236338598,0.035632586371168055,-0.010011891612060382,0.03585976171889201
1.0035782339099084,0.016571701488668728,0.01925766688844496,0.012038086514572617,-0.010693812880230469,0.012287145276532678
1.0036253159350388,0.04141534161646615,0.026132198720332022,0.014399178728297872,-0.004370034709284545,0.014498172147370852
1.0036723979601692,0.0978579156313711,0.036442296017081904,0.03595348541122598,0.0068910891170178385,0.03578246935907319
1.0037194799852995,0.14599333246590304,0.0484676012987952,0.06503465797160808,0.02051178711952254,0.06455039355864664
1.00376656201043,0.17300879075255565,0.05653418167520123,0.0922030709843016,0.03484577494845734,0.09142281397931061
1.0038136440355603,0.18229222765708752,0.06253550592862217,0.11374971918924169,0.04419442774845425,0.11280695602169061
1.0038607260606907,0.18262972424027749,0.06576496550664344,0.12736778710133306,0.05168517420216467,0.12631165219105353
1.003907808085821,0.18292620727983336,0.06564248351039707,0.13485525602086357,0.06015354807854387,0.13367826206030795
1.0039548901109514,0.18798821740501145,0.06580263801783978,0.13913083302593265,0.06476227252835111,0.13789598219360694
1.0040019721360818,0.19658928748535154,0.06539020923804366,0.1397247738744464,0.06595663936900252,0.13847459733391407
1.0040490541612122,0.20361099360789395,0.06421429387763161,0.1356935801867525,0.0637931007342687,0.1344646553754961
1.0040961361863425,0.20356945018764083,0.059711560523521355,0.1287855413388881,0.06094339334583779,0.1275841889132524
1.004143218211473,0.19261735903368254,0.0518688264904395,0.11776025800915435,0.05701822725380732,0.11660040361303144
1.0041903002366033,0.1692114287165738,0.042976871699382205,0.09836742477706704,0.05028785065911858,0.09729544621277049
1.0042373822617336,0.13469585530973552,0.03347489984976017,0.07519967777083232,0.04139072152974062,0.07427600201319766
1.004284464286864,0.094068350002802,0.024729406025369466,0.051842634052145065,0.030497897360302565,0.05113691674984203
1.0043315463119944,0.0558705414627791,0.01764170510407634,0.03082107495389939,0.017988829324283077,0.03039456662000523
1.0043786283371248,0.029785725493520713,0.013687092038004464,0.019809015244991575,0.005576147912952809,0.019672639388692816
1.0044257103622551,0.022326134922130727,0.012368986645717759,0.01684685304795892,-0.004533337520941636,0.016949035219308854
1.0044727923873855,0.03362727707623793,0.013661272386275678,0.01768087969631584,-0.009947605958211014,0.017910936965852796
1.004519874412516,0.057935866130881315,0.01709543411606091,0.0238553638180855,-0.010713129834514999,0.024102123885350043
1.0045669564376463,0.08691312585069338,0.02247644182577735,0.038233159934289905,-0.005826377489179582,0.03836008951236202
1.0046140384627766,0.11302745450084833,0.02880398178844187,0.05542672474865837,0.004142092062790042,0.05531482123361095
1.004661120487907,0.13143773576861661,0.03415756760388403,0.07126698378066398,0.015952913927031614,0.07088359460532288
1.0047082025130374,0.140315951549541,0.03805802495960617,0.0817840112464661,0.02858274916790238,0.08112822780412157
1.0047552845381678,0.14016084842095028,0.03825676456739652,0.0846685751900148,0.03977824972236354,0.08378462534121066
1.0048023665632981,0.13271042804166153,0.03580814404378989,0.08028160564993014,0.047630548937396364,0.07923824585099357
1.0048494485884285,0.1199532079956697,0.03247437989457365,0.06958311394397716,0.05501472405609697,0.06838109109623446
1.0048965306135589,0.10352759540252561,0.029053847106410048,0.05738407400153901,0.05982834076540087,0.05606667470439003
1.0049436126386893,0.08458770500586026,0.023656396484152676,0.04469505929439128,0.06115536983856009,0.04332813102642405
1.0049906946638196,0.06411017510052013,0.02007497375861579,0.03435472552873721,0.059486779263804364,0.03300557470920923
1.00503777668895,0.043500849939608656,0.016762693142425168,0.022887706523455283,0.05545212878833589,0.021610146048501054
1.0050848587140804,0.02497562650004661,0.01403735401533768,0.013888116903115118,0.048079864126540646,0.012767463578376485
1.0051319407392107,0.011013597455985432,0.012858369594471838,0.011624969459267675,0.03870064307810572,0.010718878544706064
1.0051790227643411,0.003334338693202587,0.012850984937163083,0.009001101837417943,0.028358123946082767,0.008334443010765667
1.0052261047894715,0.0027948227754708652,0.009851944332129575,0.005716764128480125,0.018676976225528583,0.00527643701955415
1.0052731868146019,0.010164673003053454,0.0065865210648646,0.005314070387151807,0.00988630207671061,0.005080117503061053
1.0053202688397322,0.026566180290056158,0.005082902572010674,0.008193549268036414,5.839351666009427e-06,0.008191141221027941
1.0053673508648626,0.05291846997433676,0.005629689069804617,0.011498759854167706,-0.005852606091506132,0.0116335239380037
1.005414432889993,0.08828034555015178,0.009079625830057586,0.017065936640710815,-0.007448015095700281,0.01723694608140182
1.0054615149151234,0.12763762777320273,0.012353242103498668,0.025647230237824777,-0.005957004017097329,0.025780681691914737
1.0055085969402537,0.16155770115500132,0.014764945821525361,0.038076850744054896,-0.00010026445075632266,0.03806866891518149
1.0055556789653841,0.18078890709766565,0.017175339070841067,0.05135766337998839,0.00907604655296069,0.051132745816634545
1.0056027609905145,0.18307418566708303,0.018092980021835074,0.06056084021799014,0.01940235492012696,0.06010112161617095
1.0056498430156449,0.1741533504439713,0.018547534086702653,0.06655908741414072,0.02782268889963677,0.06591544633540218
1.0056969250407752,0.16242605985016223,0.01802339521706464,0.07063087442771013,0.03510125935076181,0.0698339888172258
1.0057440070659056,0.15418810481596457,0.01629494879578567,0.07107575192890922,0.03871845713612899,0.07020385462288015
1.005791089091036,0.1523552110015489,0.013860925601086168,0.0660360559428213,0.03922832484106613,0.06515022566826323
1.0058381711161664,0.15691036178882456,0.012856799718863717,0.06130313889977103,0.03911942376864698,0.06041646958968228
1.0058852531412967,0.16538784679386007,0.013556501889552625,0.06307528196508604,0.038099627817610615,0.062211213704851616
1.005932335166427,0.17322460684996496,0.012412663605901288,0.06323184659303546,0.03484256040266313,0.06243676005408459
1.0059794171915575,0.17475929729964576,0.010552890533917558,0.05880087400333982,0.02975579943264478,0.058113370591780254
1.0060264992166879,0.16548577922015562,0.009118359545204386,0.05204155960234529,0.024165055470527403,0.05147557065630092
1.0060735812418182,0.1445721481217929,0.008236715721098771,0.04234591607178599,0.01742351878495023,0.0419314721489659
1.0061206632669486,0.11538472372115638,0.007355812274217784,0.03266210113426135,0.009464278970489981,0.032432060856092085
1.006167745292079,0.08342022676517998,0.00603763070595902,0.0259645785337829,0.002352358976601097,0.025902137121077213
1.0062148273172093,0.053714935068683495,0.0064619123257405485,0.01794830890199036,-0.0022972375432556195,0.01799743792061758
1.0062619093423397,0.029620632829972474,0.007327550769417155,0.006428025048282717,-0.004868129353232506,0.00654091676844699
1.00630899136747,0.012907514843990737,0.009249581806427534,-0.004503164505502606,-0.004174899690672142,-0.004403674640309245
1.0063560733926005,0.004292560353454192,0.011688099892903508,-0.010519166817943732,-0.001449751574111282,-0.0104821392797679
1.0064031554177308,0.0038095921685766332,0.016042828929831703,-0.007972360122875525,0.0017940573422296235,-0.008012394375439132
1.0064502374428612,0.010924293923755681,0.023615098511932664,0.0013341291502741227,0.009782519996546927,0.0011035180278646788
1.0064973194679916,0.02453035587728399,0.028960095562635766,0.011333716656649779,0.01868034083973285,0.010892795677158949
1.006544401493122,0.042966387475684646,0.032864776861989915,0.020787738978896356,0.027046894743289935,0.020153026898195675
1.0065914835182523,0.06411092062196938,0.03365605297367384,0.03329944681240632,0.03203972860805492,0.032553887796095554
1.0066385655433827,0.08556714248621351,0.035459008443153105,0.049462130528264495,0.034165188349449656,0.048675408239675186
1.006685647568513,0.10493697207975199,0.03658775857760251,0.06485229624100503,0.03405757228573345,0.06407464136343874
1.0067327295936435,0.12014720761669652,0.03656213586284347,0.07640706666955516,0.03263213812437634,0.07566452031561292
1.0067798116187738,0.12974860817624662,0.03437873474375175,0.08294186479002422,0.03022282933097833,0.08225213044886386
1.0068268936439042,0.1331160769266914,0.03416205610432983,0.08436945777741765,0.026766534847189855,0.08375257919802037
1.0068739756690346,0.13051634907150206,0.030691361016279645,0.08386978816652868,0.023228910951717578,0.08332791345622308
1.006921057694165,0.12301693370584733,0.025109295832855778,0.08185258015702256,0.019492821716608287,0.0813910964623571
1.0069681397192953,0.11219272060745543,0.018585166804217877,0.07585112215539112,0.014537639609560131,0.0754988522213312
1.0070152217444257,0.09964098937742749,0.012908602066008348,0.06985230351433948,0.00963282116072598,0.06961113415466888
1.007062303769556,0.08648287672211809,0.008243623363237133,0.06302251331950957,0.005470586686561777,0.06287803287360537
1.0071093857946865,0.07315337862299943,0.00600409066092902,0.053521194673379444,0.0017681980935833736,0.05346504025689207
1.0071564678198168,0.05967551136841471,0.004184215244615568,0.042771215350936226,-0.0018501731866753714,0.04280289284798952
1.0072035498449472,0.046352747241279996,0.00155381130461117,0.029687677967592516,-0.004517874737783248,0.02978597765614114
1.0072506318700776,0.03458526276589038,0.0004339591731190794,0.01916866027493343,-0.005437862261943486,0.01929157915927332
1.007297713895208,0.02727830692374265,0.0004084389094519672,0.01473006896934623,-0.005765374501862791,0.014861915256448316
1.0073447959203383,0.0280866607277734,0.002120186658396028,0.01711698325886342,-0.004853393196157379,0.017226649101278788
1.0073918779454687,0.03925806445151868,0.006782735457849014,0.028584290137595406,-0.0013458522242089856,0.028608045161093106
1.007438959970599,0.059562255279517966,0.012459864789246258,0.043832242766228824,0.003698792036628523,0.04373359234958324
1.0074860419957294,0.08449757331606145,0.017015490839112024,0.058037587268334905,0.009257634060471495,0.05780718328605716
1.0075331240208598,0.10858230355013457,0.020266887591652162,0.06858033205585247,0.015220849385494575,0.06821347014982036
1.0075802060459902,0.12742598805780986,0.022957081666207052,0.07621925524513734,0.01923951589295659,0.07576318735952943
1.0076272880711206,0.13840784538629322,0.024142629152629734,0.07904744927672683,0.02180932503652141,0.07853559176954082
1.007674370096251,0.14057521646913557,0.0231948714772398,0.0769603579802706,0.02371736069913096,0.07640709708229794
1.0077214521213813,0.1345761316442056,0.02186158388574686,0.07084930100861353,0.023954545269868458,0.07029011498129874
