freq,gls,usurper,pdc_unbiased,shape_periodogram,shift_periodogram
1.0,0.02176245538732735,0.030557548463109974,-0.007335655112181927,0.009727726784973103,-0.007871094889846397
1.0000470820251304,0.05134779247241603,0.05591740271575134,0.016081221596065367,0.031609734561441595,0.014287063255297754
1.0000941640502607,0.09689124580742478,0.08125719964214678,0.05094334186944231,0.05830231523813277,0.047679211682221105
1.0001412460753911,0.14848755125694818,0.10678651733577715,0.08456655871201842,0.08175263585518769,0.08015230794819798
1.0001883281005215,0.19664060203551523,0.12674548252678597,0.10917973127593883,0.10090371370887266,0.10395895324723181
1.0002354101256519,0.23592916525893703,0.13981929976959062,0.12678225514793529,0.11483664320929944,0.12106742066503712
1.0002824921507822,0.26363730657080775,0.14839026529760502,0.13936052532630389,0.12314278065279058,0.13341185483118695
1.0003295741759126,0.2780607972143743,0.15361902280805295,0.14663287491158739,0.12884561159927105,0.14053408284052074
1.000376656201043,0.27778293516045677,0.1560786974292359,0.14742341655727248,0.13304530027860162,0.14117862373436224
1.0004237382261734,0.2619162710265795,0.15409754417152627,0.139633635428265,0.13427820796102835,0.13326408179783636
1.0004708202513037,0.23107843684954268,0.14603409179111831,0.12167319492364326,0.13199082382667365,0.1152145758724499
1.0005179022764341,0.1884924826566669,0.13453618966353859,0.09811663264576473,0.12731719322249857,0.09164283054966779
1.0005649843015645,0.1401213853463462,0.12634166900763485,0.07552593926328457,0.12452536737268428,0.06899760916836271
1.0006120663266949,0.09311329616242185,0.12341923443413509,0.056936636782797936,0.1241305677205027,0.05028846761428078
1.0006591483518252,0.05338098213176131,0.12699456125325548,0.04656239048066332,0.12512251614303263,0.039788661865723746
1.0007062303769556,0.024158292773911582,0.1314217087152431,0.0379052596807291,0.12489186178480807,0.031081968543386344
1.000753312402086,0.006389706849983347,0.1291607449781854,0.024925530867037873,0.12087673313088972,0.018231143260404172
1.0008003944272164,4.4957735270936574e-05,0.12808758963970623,0.013623927240606612,0.11518588978187605,0.0071776819357412605
1.0008474764523467,0.004476680458159687,0.12650034275643032,0.005279248516488982,0.11456371003310886,-0.0011753589358822708
1.000894558477477,0.016631009383087918,0.13106815742414593,0.00604487589630294,0.12013657041045916,-0.0007215935275930663
1.0009416405026075,0.030279800796216314,0.1459317649331129,0.01614856324889533,0.13201387210193774,0.008782355043902915
1.0009887225277379,0.04019506929021177,0.16752887128596103,0.031662352407458065,0.14952422756458644,0.023482333322855133
1.0010358045528682,0.045271217739530065,0.1904458030618149,0.049643587368788454,0.16795369675102081,0.040732398941397
1.0010828865779986,0.04665854735345898,0.20209800785791118,0.06394396252727896,0.18375495107566003,0.05449481921105397
1.001129968603129,0.04557434040645729,0.20445451327215067,0.06951556918541625,0.19329912347679384,0.05973212065136443
1.0011770506282593,0.04281463251624272,0.19659744231989326,0.06676401531502141,0.19501669946857333,0.05684859575117487
1.0012241326533897,0.03911406922799136,0.18266004369275535,0.05756222886158259,0.19091181691058146,0.047660645331288665
1.00127121467852,0.035734840091298535,0.16568207537720805,0.04469056838221148,0.18266209434153186,0.03496600233276693
1.0013182967036505,0.034632288517627896,0.15302410371122963,0.03354469161607427,0.17664501827911006,0.02395280023997246
1.0013653787287808,0.03686446430802818,0.15557569880748173,0.03235087082016887,0.17782894818457792,0.022678201403731713
1.0014124607539112,0.040499198873267514,0.16894091638282888,0.04235422606047071,0.1852907674869041,0.03245695131754278
1.0014595427790416,0.04245011553894062,0.18444239322968206,0.05148956578485458,0.19398706924380538,0.041324530790282483
1.001506624804172,0.04142424671447975,0.19570311425593345,0.057489670337512934,0.19833289881580604,0.047233967011913375
1.0015537068293023,0.03772147907862947,0.19810188384422872,0.05838903434484734,0.19642016621548836,0.048241985390852796
1.0016007888544327,0.032149333674356434,0.19249647401027672,0.05286952532393206,0.18596259535452977,0.04312132790083876
1.001647870879563,0.025799799790141527,0.1781446224383133,0.040386054375886556,0.16802880855084848,0.031342187965442296
1.0016949529046935,0.020580986012262138,0.15705338454729598,0.02276083148008517,0.1450995365276861,0.014730310438095952
1.0017420349298238,0.01993155776046648,0.13751798676145582,0.008396000375120035,0.12548406332667936,0.0013412924196911046
1.0017891169549542,0.027489951613850306,0.12930708594930426,0.00883020356959996,0.1180635648933242,0.0021966544740796763
1.0018361989800846,0.042074300128446054,0.1292028357994262,0.022145335055818467,0.12184860862008341,0.015380538564915619
1.001883281005215,0.05845891480384451,0.13610262643154958,0.04104344236602053,0.13212295863964338,0.033865304394985314
1.0019303630303453,0.07582159493280267,0.14630883593727786,0.05832937685591873,0.14216308807737685,0.05079773758213725
1.0019774450554757,0.09824195100672209,0.15379390444080052,0.07041397317164165,0.14494448682552655,0.06287221358738075
1.002024527080606,0.1303669711588208,0.14890655758027024,0.07896421651578898,0.1403430857872586,0.07172542825117581
1.0020716091057364,0.17464242099810953,0.13626756946300467,0.08832693698111686,0.13193464369861138,0.08156121402080177
1.0021186911308668,0.22917237164395338,0.13685885576024362,0.11355266104308831,0.1281038925867889,0.10717892606749575
1.0021657731559972,0.2864808872447173,0.14826502155926352,0.14880372324738836,0.1297954916376494,0.1426908902753581
1.0022128551811276,0.335488571803669,0.16004502396505452,0.17945522269565434,0.13202514284691522,0.17357572122699538
1.002259937206258,0.3667004160945303,0.16689924757192226,0.20044309409803335,0.1311103118893715,0.1948124749722822
1.0023070192313883,0.37630521047742305,0.16755067925246328,0.20989430295355302,0.12620814828438462,0.20449954952025706
1.0023541012565187,0.3658732131217113,0.16211543434015732,0.20800353236518512,0.11767928422994364,0.2028381495815022
1.002401183281649,0.3393357840705059,0.15092654046053106,0.19716291122807472,0.1061409637759316,0.19227823920047593
1.0024482653067794,0.30043566038503033,0.13552155216767875,0.1783931936762516,0.09206950077689313,0.1738998499317891
1.0024953473319098,0.25183659939415354,0.11727499932439123,0.15384153094853617,0.07546281746602951,0.14992625103551452
1.0025424293570402,0.1956066522565673,0.0948639376093191,0.12081929242955049,0.0579877913522937,0.11763638255334187
1.0025895113821706,0.13475970805500284,0.06586792247431195,0.07564140824241966,0.03798171737821206,0.07345837579744284
1.002636593407301,0.07582916802294695,0.03646981972106946,0.025728531183742454,0.020892744889013888,0.024520158268725036
1.0026836754324313,0.03145358980808763,0.02488625337921145,-0.0040036080406334615,0.012786373875095281,-0.004716252807566646
1.0027307574575617,0.01779891286180085,0.03347211319699398,-0.006351274616742859,0.0191102721344137,-0.0074165316711802855
1.002777839482692,0.04358985242398123,0.04333374336894757,0.006591376950054447,0.036467957278932706,0.004534534811980811
1.0028249215078224,0.1037077589167159,0.0607311786194087,0.04281328660270074,0.05773306382483342,0.03957522418304987
1.0028720035329528,0.18101238562213362,0.08936575334888643,0.0979436666785688,0.08337487032367717,0.09349121583025498
1.0029190855580832,0.25636899888384335,0.12345736612992998,0.15380629462607742,0.10424587940030275,0.14870120096948244
1.0029661675832136,0.31832235074100634,0.1551139705862448,0.19704252226634572,0.11241174665992985,0.19195016666220674
1.003013249608344,0.36361141655314383,0.1719465709826374,0.228525784613192,0.11682961476666398,0.2235655850541659
1.0030603316334743,0.39341420767750745,0.18300551663401307,0.24979870354304085,0.12016755468587802,0.24494994484874064
1.0031074136586047,0.4102870696014962,0.1882307413312947,0.26258314989231946,0.12108121577121223,0.2578378062332318
1.003154495683735,0.41662904201390033,0.18937450534479217,0.266777273312063,0.12046846010195196,0.2620860646974334
1.0032015777088654,0.41405085665469693,0.18699203418849508,0.26326150551395927,0.11791277493505414,0.2585918281627421
1.0032486597339958,0.4030953535584088,0.18109994521437656,0.251751202986526,0.11319477658405112,0.2470888616984507
1.0032957417591262,0.38301151602067063,0.17167173147199924,0.2324239377319079,0.10650505555145855,0.22778552938268729
1.0033428237842565,0.3514583105172215,0.15815817004667665,0.2047530276495091,0.09750801457130448,0.20021053136402076
1.003389905809387,0.3042863356687068,0.14017075674335158,0.16911475512504195,0.08639483614023144,0.16479974092881894
1.0034369878345173,0.2364892670841809,0.11827994385294147,0.12615890065588273,0.07357327488758096,0.12224908242586935
1.0034840698596477,0.14805992805189566,0.09396811881813744,0.07745804013496241,0.06083691290952389,0.07408302967872542
1.003531151884778,0.05937981673678241,0.07642118650781045,0.035632586371168055,0.054133499207164655,0.032587007634539505
1.0035782339099084,0.016571701488668728,0.07416778709883165,0.012038086514572617,0.058679326216334544,0.008736813766035573
1.0036253159350388,0.04141534161646615,0.0922799638588474,0.014399178728297872,0.07822178358575062,0.010011942349410325
1.0036723979601692,0.0978579156313711,0.12055752990990057,0.03595348541122598,0.10518833022349265,0.03016186593964967
1.0037194799852995,0.14599333246590304,0.15117660510190284,0.06503465797160808,0.13561168937894277,0.0578865248807607
1.00376656201043,0.17300879075255565,0.17769869566596225,0.0922030709843016,0.16222073792863198,0.08415324070629979
1.0038136440355603,0.18229222765708752,0.1965540832753593,0.11374971918924169,0.18165987323930677,0.1052755578241775
1.0038607260606907,0.18262972424027749,0.20944465947760835,0.12736778710133306,0.19627294988464902,0.11866007830312875
1.003907808085821,0.18292620727983336,0.2163495571174879,0.13485525602086357,0.20541885656972378,0.12603491534804834
1.0039548901109514,0.18798821740501145,0.2201119113026807,0.13913083302593265,0.20774609641153746,0.13034635215832524
1.0040019721360818,0.19658928748535154,0.21936955136828967,0.1397247738744464,0.20684860346535242,0.13097999574594932
1.0040490541612122,0.20361099360789395,0.21720106751629997,0.1356935801867525,0.20150951196052538,0.1270085273527657
1.0040961361863425,0.20356945018764083,0.21081591034786082,0.1287855413388881,0.19226604040293221,0.12023721000794015
1.004143218211473,0.19261735903368254,0.19620404835404873,0.11776025800915435,0.17875372217586352,0.10946372770757047
1.0041903002366033,0.1692114287165738,0.17461715976339767,0.09836742477706704,0.16140060671606063,0.09043818674263705
1.0042373822617336,0.13469585530973552,0.1495277728126444,0.07519967777083232,0.14175952439822034,0.06785708101121113
1.004284464286864,0.094068350002802,0.12609671734814887,0.051842634052145065,0.12137030668601595,0.04529792968109104
1.0043315463119944,0.0558705414627791,0.1059472392816283,0.03082107495389939,0.1019259670988476,0.025181843899822646
1.0043786283371248,0.029785725493520713,0.09356118762964591,0.019809015244991575,0.08739217579048968,0.014925506173932294
1.0044257103622551,0.022326134922130727,0.08892168780330267,0.01684685304795892,0.07863263748042368,0.012440939447217981
1.0044727923873855,0.03362727707623793,0.08989638099472651,0.01768087969631584,0.07608530563215803,0.013417309819934399
1.004519874412516,0.057935866130881315,0.09597028382773057,0.0238553638180855,0.07939440085845004,0.019420044352737593
1.0045669564376463,0.08691312585069338,0.10760005484872139,0.038233159934289905,0.08851911353129452,0.03333819672111299
1.0046140384627766,0.11302745450084833,0.12221590951406358,0.05542672474865837,0.10243266416813865,0.04986801345287026
1.004661120487907,0.13143773576861661,0.13367802683130414,0.07126698378066398,0.11636686068796129,0.06510061657710466
1.0047082025130374,0.140315951549541,0.14178621206771372,0.0817840112464661,0.12774893232976847,0.07515395868312963
1.0047552845381678,0.14016084842095028,0.14370671271269903,0.0846685751900148,0.13530731222122325,0.07771609445001267
1.0048023665632981,0.13271042804166153,0.13928970121767162,0.08028160564993014,0.13618901422625926,0.07324732071426497
1.0048494485884285,0.1199532079956697,0.1300504947912426,0.06958311394397716,0.1335770594837166,0.062573764353148
1.0048965306135589,0.10352759540252561,0.11556478685255134,0.05738407400153901,0.12579207839996714,0.050656076422649535
1.0049436126386893,0.08458770500586026,0.0982587785886006,0.04469505929439128,0.11449872234127509,0.038458751682268644
1.0049906946638196,0.06411017510052013,0.08126929556216853,0.03435472552873721,0.1024576471744966,0.02870174014695166
1.00503777668895,0.043500849939608656,0.0666451429560414,0.022887706523455283,0.08951824023688608,0.01789549431557294
1.0050848587140804,0.02497562650004661,0.053437305398602905,0.013888116903115118,0.07537773514148918,0.009658225031940464
1.0051319407392107,0.011013597455985432,0.04456203188042388,0.011624969459267675,0.0625985664400683,0.008104905768905744
1.0051790227643411,0.003334338693202587,0.03685571281426451,0.009001101837417943,0.05117368145377079,0.006119128644359995
1.0052261047894715,0.0027948227754708652,0.02950525242872044,0.005716764128480125,0.04091879644914114,0.00341098015380472
1.0052731868146019,0.010164673003053454,0.023921857205654613,0.005314070387151807,0.029578018583173476,0.0036450015997119595
1.0053202688397322,0.026566180290056158,0.021505556810882787,0.008193549268036414,0.02118320145990294,0.006991753925639594
1.0053673508648626,0.05291846997433676,0.020816281196986974,0.011498759854167706,0.01600159982798786,0.010582800718651923
1.005414432889993,0.08828034555015178,0.023155536166716853,0.017065936640710815,0.012485028051019552,0.016338866079325054
1.0054615149151234,0.12763762777320273,0.027037338423872053,0.025647230237824777,0.010867158357146849,0.024998036753851864
1.0055085969402537,0.16155770115500132,0.03300766368370074,0.038076850744054896,0.013637906791538793,0.03725537963008539
1.0055556789653841,0.18078890709766565,0.038736069245883166,0.05135766337998839,0.020257187073641426,0.050152883997218047
1.0056027609905145,0.18307418566708303,0.041280630365007766,0.06056084021799014,0.028332285803277145,0.058905231584108465
1.0056498430156449,0.1741533504439713,0.04186352065830075,0.06655908741414072,0.03345406284848402,0.06462231680853367
1.0056969250407752,0.16242605985016223,0.042135958136251435,0.07063087442771013,0.037696830586935244,0.06846494932316248
1.0057440070659056,0.15418810481596457,0.04260539614698398,0.07107575192890922,0.04059194775153721,0.06875574010303856
1.005791089091036,0.1523552110015489,0.04213745685757379,0.0660360559428213,0.04156892938526585,0.06366541653498435
1.0058381711161664,0.15691036178882456,0.04115514396757972,0.06130313889977103,0.041913925690559135,0.058915324073462415
1.0058852531412967,0.16538784679386007,0.043741105942210035,0.06307528196508604,0.042685798591469315,0.060645796917169106
1.005932335166427,0.17322460684996496,0.043830561412434806,0.06323184659303546,0.04271721303311865,0.060800651679846635
1.0059794171915575,0.17475929729964576,0.04132424286669801,0.05880087400333982,0.04100344940310218,0.056462600664831254
1.0060264992166879,0.16548577922015562,0.03786961769946201,0.05204155960234529,0.037593912536526095,0.049890100687039904
1.0060735812418182,0.1445721481217929,0.032975392224122095,0.04234591607178599,0.03216771657794899,0.04049681293635916
1.0061206632669486,0.11538472372115638,0.029576184737797565,0.03266210113426135,0.02584305162109176,0.031170741795119236
1.006167745292079,0.08342022676517998,0.02549970470834909,0.0259645785337829,0.02009679331519323,0.024800202963508863
1.0062148273172093,0.053714935068683495,0.02287999920891066,0.01794830890199036,0.015970829252997927,0.01702495490026857
1.0062619093423397,0.029620632829972474,0.020352332577630625,0.006428025048282717,0.013472565045089,0.005661248975761227
1.00630899136747,0.012907514843990737,0.018271242265734896,-0.004503164505502606,0.013972304235030594,-0.005281792600037023
1.0063560733926005,0.004292560353454192,0.019147318541119854,-0.010519166817943732,0.01810040762574491,-0.011521506598930495
1.0064031554177308,0.0038095921685766332,0.023947725629442633,-0.007972360122875525,0.02621713731312389,-0.009436266311313767
1.0064502374428612,0.010924293923755681,0.03497890651755272,0.0013341291502741227,0.04044970052995975,-0.0009420639033270962
1.0064973194679916,0.02453035587728399,0.04755044957166196,0.011333716656649779,0.05569951673687967,0.008198612368772418
1.006544401493122,0.042966387475684646,0.05898386477977271,0.020787738978896356,0.07038371729258347,0.01684311890335492
1.0065914835182523,0.06411092062196938,0.06908760049379344,0.03329944681240632,0.0806781603994015,0.028813064376758093
1.0066385655433827,0.08556714248621351,0.07869448088387075,0.049462130528264495,0.08649752069987775,0.04470620478717536
1.006685647568513,0.10493697207975199,0.0871553911206053,0.06485229624100503,0.08890033266096843,0.06001977488966455
1.0067327295936435,0.12014720761669652,0.0920070581804986,0.07640706666955516,0.0878481844655848,0.07166583919348965
1.0067798116187738,0.12974860817624662,0.09410500382582905,0.08294186479002422,0.08287808238148572,0.07846735799367564
1.0068268936439042,0.1331160769266914,0.09340852443245443,0.08436945777741765,0.07528638332044893,0.08027500788412904
1.0068739756690346,0.13051634907150206,0.08876273751348278,0.08386978816652868,0.06555326252721859,0.08026255428358471
1.006921057694165,0.12301693370584733,0.07988745420887745,0.08185258015702256,0.056181456045065636,0.07872057166716208
1.0069681397192953,0.11219272060745543,0.06834336355519234,0.07585112215539112,0.0469586279673012,0.07319501472618764
1.0070152217444257,0.09964098937742749,0.05728316071715369,0.06985230351433948,0.03775469334823125,0.0676836201089859
1.007062303769556,0.08648287672211809,0.04782944371264281,0.06302251331950957,0.02984970630545189,0.0612826120850283
1.0071093857946865,0.07315337862299943,0.040527671466104795,0.053521194673379444,0.023208855162821142,0.05215194098614794
1.0071564678198168,0.05967551136841471,0.03592851158920678,0.042771215350936226,0.01866598197160616,0.04166473518606548
1.0072035498449472,0.046352747241279996,0.029926977096868583,0.029687677967592516,0.015094694581829443,0.02879682384223619
1.0072506318700776,0.03458526276589038,0.025667746577752552,0.01916866027493343,0.014036238096136282,0.01835174672358998
1.007297713895208,0.02727830692374265,0.02345428347362855,0.01473006896934623,0.014507237416354398,0.013893182872218445
1.0073447959203383,0.0280866607277734,0.02573290590672129,0.01711698325886342,0.016975399913085623,0.016138622164609883
1.0073918779454687,0.03925806445151868,0.03440497367906661,0.028584290137595406,0.02276858290038425,0.027268088545910587
1.007438959970599,0.059562255279517966,0.046265742165230495,0.043832242766228824,0.02990544202845835,0.042105823618186995
1.0074860419957294,0.08449757331606145,0.057614343303894554,0.058037587268334905,0.03720928264364388,0.05590370876310761
1.0075331240208598,0.10858230355013457,0.06567535733510976,0.06858033205585247,0.04462345703868778,0.06604705173321716
1.0075802060459902,0.12742598805780986,0.07036907229750076,0.07621925524513734,0.04914331177995469,0.07344895604692217
1.0076272880711206,0.13840784538629322,0.07080123551530554,0.07904744927672683,0.05062760366593274,0.07620072901633661
1.007674370096251,0.14057521646913557,0.06748131158496991,0.0769603579802706,0.051335279677823906,0.0740760565266155
1.0077214521213813,0.1345761316442056,0.062174883362426485,0.07084930100861353,0.049272818627182954,0.06807096215883876
1.0077685341465117,0.12269802495893224,0.054089087270773384,0.062425783036096825,0.044112143688132356,0.059920340457867774
1.007815616171642,0.10844877640211482,0.04583775090639781,0.054884533548136764,0.03789518630362891,0.052715278132124434
