freq,gls,usurper,pdc_unbiased,shape_periodogram,shift_periodogram
1.0,0.02176245538732735,0.02283755455655001,-0.007335655112181927,-0.005924280369981285,-0.0071675642754392066
1.0000470820251304,0.05134779247241603,0.04072600665782395,0.016081221596065367,0.002543299823277407,0.01600404182848049
1.0000941640502607,0.09689124580742478,0.05753479045954911,0.05094334186944231,0.01916135033352973,0.05039995632222388
1.0001412460753911,0.14848755125694818,0.07553517660672078,0.08456655871201842,0.03415921378033589,0.08363887457690419
1.0001883281005215,0.19664060203551523,0.09001189451115515,0.10917973127593883,0.04764530922196681,0.10795229770753194
1.0002354101256519,0.23592916525893703,0.09799968998454281,0.12678225514793529,0.05772259728314334,0.1253663051506542
1.0002824921507822,0.26363730657080775,0.10143928162820257,0.13936052532630389,0.0633881208858776,0.13786046894117351
1.0003295741759126,0.2780607972143743,0.1027331223789506,0.14663287491158739,0.06705310878008901,0.14508416822856543
1.000376656201043,0.27778293516045677,0.10241915736743631,0.14742341655727248,0.06881216432954743,0.14584621843684342
1.0004237382261734,0.2619162710265795,0.09852931996512919,0.139633635428265,0.06917638306065779,0.13802907070161932
1.0004708202513037,0.23107843684954268,0.09002378898875801,0.12167319492364326,0.06783779035874526,0.12004665190074294
1.0005179022764341,0.1884924826566669,0.07889710376920367,0.09811663264576473,0.06507822551122862,0.09649048417822205
1.0005649843015645,0.1401213853463462,0.06955223543920985,0.07552593926328457,0.061575072191440594,0.07393173043266414
1.0006120663266949,0.09311329616242185,0.06314651043787203,0.056936636782797936,0.056203153519689984,0.0554404312172302
1.0006591483518252,0.05338098213176131,0.06123614631951034,0.04656239048066332,0.04779351945228358,0.04526600276319526
1.0007062303769556,0.024158292773911582,0.059270153274016704,0.0379052596807291,0.03669650783397109,0.036893119732314565
1.000753312402086,0.006389706849983347,0.053596516265657555,0.024925530867037873,0.023866033153123942,0.02425713293439409
1.0008003944272164,4.4957735270936574e-05,0.05028813008728686,0.013623927240606612,0.011938576190449916,0.013286401227963575
1.0008474764523467,0.004476680458159687,0.04602681912041694,0.005279248516488982,0.006763153415540911,0.005088527650522964
1.000894558477477,0.016631009383087918,0.04559886044826306,0.00604487589630294,0.006902703620899576,0.005849986890371619
1.0009416405026075,0.030279800796216314,0.0533804650190941,0.01614856324889533,0.011327296053853976,0.01582721662170165
1.0009887225277379,0.04019506929021177,0.06616068771204234,0.031662352407458065,0.020665848941775884,0.03108063914019014
1.0010358045528682,0.045271217739530065,0.0784334789568395,0.049643587368788454,0.03218847358349896,0.04875423720043254
1.0010828865779986,0.04665854735345898,0.08193518653170935,0.06394396252727896,0.043882044280421244,0.06276179370244879
1.001129968603129,0.04557434040645729,0.08079623933312718,0.06951556918541625,0.053614983840085145,0.06810008811358984
1.0011770506282593,0.04281463251624272,0.07364108109394561,0.06676401531502141,0.05997982010044486,0.06519160058565317
1.0012241326533897,0.03911406922799136,0.06399914462344795,0.05756222886158259,0.06410196922292172,0.055873682314181106
1.00127121467852,0.035734840091298535,0.05374678671165634,0.04469056838221148,0.06622471321225396,0.04292394401448182
1.0013182967036505,0.034632288517627896,0.04587647911881629,0.03354469161607427,0.06835978308416123,0.03170054908249682
1.0013653787287808,0.03686446430802818,0.04949224121128591,0.03235087082016887,0.07050195004707165,0.030448875664170785
1.0014124607539112,0.040499198873267514,0.06027333571413066,0.04235422606047071,0.07255000580653971,0.04042411965023989
1.0014595427790416,0.04245011553894062,0.07008669525508145,0.05148956578485458,0.07265346749627016,0.049579943171809596
1.001506624804172,0.04142424671447975,0.07635003075703835,0.057489670337512934,0.06905092906176108,0.0556815632200576
1.0015537068293023,0.03772147907862947,0.07670312768734895,0.05838903434484734,0.062115898539495125,0.056750276155528585
1.0016007888544327,0.032149333674356434,0.07336868764133163,0.05286952532393206,0.05070841964025215,0.05150535390887575
1.001647870879563,0.025799799790141527,0.06614246563411756,0.040386054375886556,0.03635475945629871,0.039383942914902506
1.0016949529046935,0.020580986012262138,0.054963062622633334,0.02276083148008517,0.02097884129781769,0.022171680318522066
1.0017420349298238,0.01993155776046648,0.04460290790348813,0.008396000375120035,0.008969835276294573,0.008142696750498741
1.0017891169549542,0.027489951613850306,0.04145020423024221,0.00883020356959996,0.0058568261020896135,0.008663441905316602
1.0018361989800846,0.042074300128446054,0.04243998075799716,0.022145335055818467,0.010348022772081921,0.021849232316896564
1.001883281005215,0.05845891480384451,0.04824068569068196,0.04104344236602053,0.01969405542645049,0.04048694118680541
1.0019303630303453,0.07582159493280267,0.05822975479030089,0.05832937685591873,0.030351706439680236,0.05749013648755298
1.0019774450554757,0.09824195100672209,0.06720821599871757,0.07041397317164165,0.04130571587273295,0.06930093692809931
1.002024527080606,0.1303669711588208,0.06805587966343817,0.07896421651578898,0.05063398403083493,0.07763217105730004
1.0020716091057364,0.17464242099810953,0.06380473083733201,0.08832693698111686,0.05678488969265652,0.08686496477223835
1.0021186911308668,0.22917237164395338,0.06957472398400644,0.11355266104308831,0.059869613613128043,0.11206801481917439
1.0021657731559972,0.2864808872447173,0.08161270662265811,0.14880372324738836,0.06139992665723363,0.14736104982620318
1.0022128551811276,0.335488571803669,0.09261068263425176,0.17945522269565434,0.06175096308907218,0.17807469538298984
1.002259937206258,0.3667004160945303,0.09989308315453257,0.20044309409803335,0.060499785747447736,0.19912954578246844
1.0023070192313883,0.37630521047742305,0.10261955246264197,0.20989430295355302,0.05727506240928361,0.20864863293444333
1.0023541012565187,0.3658732131217113,0.10059672317215983,0.20800353236518512,0.05222478264999998,0.2068312768927044
1.002401183281649,0.3393357840705059,0.09392247517291465,0.19716291122807472,0.04499758581073596,0.19609603752376048
1.0024482653067794,0.30043566038503033,0.08416956493169889,0.1783931936762516,0.0354077349165689,0.17749182986761833
1.0024953473319098,0.25183659939415354,0.0722450865352169,0.15384153094853617,0.02351067407422547,0.15319111889329548
1.0025424293570402,0.1956066522565673,0.057076220019048024,0.12081929242955049,0.01231461394271398,0.1204456202511205
1.0025895113821706,0.13475970805500284,0.03704700143479391,0.07564140824241966,0.0015182813935553654,0.07557016895328605
1.002636593407301,0.07582916802294695,0.01670261012758933,0.025728531183742454,-0.005095893335966789,0.025860953247756068
1.0026836754324313,0.03145358980808763,0.011989668972738498,-0.0040036080406334615,-0.0036436235767237242,-0.0039003675573370446
1.0027307574575617,0.01779891286180085,0.023262899077290962,-0.006351274616742859,0.009248676727376724,-0.006607235093576049
1.002777839482692,0.04358985242398123,0.031438009593512006,0.006591376950054447,0.028481752044315058,0.005796161665384452
1.0028249215078224,0.1037077589167159,0.04351436242074738,0.04281328660270074,0.04434561011275549,0.04160292202009199
1.0028720035329528,0.18101238562213362,0.06384191517686282,0.0979436666785688,0.05628929992065565,0.09650837443101348
1.0029190855580832,0.25636899888384335,0.08878418403306088,0.15380629462607742,0.0628150822444791,0.15234937620079667
1.0029661675832136,0.31832235074100634,0.11278011269130081,0.19704252226634572,0.06040680362014911,0.19572267530199852
1.003013249608344,0.36361141655314383,0.12509525059752277,0.228525784613192,0.05866593436644552,0.22730075934392233
1.0030603316334743,0.39341420767750745,0.13286119401077595,0.24979870354304085,0.057817923277667674,0.24863148687484157
1.0031074136586047,0.4102870696014962,0.13610995054279076,0.26258314989231946,0.05578721403167323,0.26146734732147014
1.003154495683735,0.41662904201390033,0.13606526488303744,0.266777273312063,0.05325632499882768,0.26569957247687415
1.0032015777088654,0.41405085665469693,0.13305823270653674,0.26326150551395927,0.04976540884691213,0.26222059693172667
1.0032486597339958,0.4030953535584088,0.12716747952514473,0.251751202986526,0.0452444668739733,0.2507545499427498
1.0032957417591262,0.38301151602067063,0.11832531752790917,0.2324239377319079,0.03981225884751503,0.23148901352460394
1.0033428237842565,0.3514583105172215,0.10595192700832431,0.2047530276495091,0.03305032240344679,0.203917907695565
1.003389905809387,0.3042863356687068,0.08966967107521671,0.16911475512504195,0.025117476438819057,0.16843096017182982
1.0034369878345173,0.2364892670841809,0.07016621648820638,0.12615890065588273,0.01627151187515201,0.1256834469821216
1.0034840698596477,0.14805992805189566,0.048403308521865404,0.07745804013496241,0.0077778204552672635,0.07721519203929439
1.003531151884778,0.05937981673678241,0.031266483709688216,0.035632586371168055,0.0015603199989752438,0.03557528982668523
1.0035782339099084,0.016571701488668728,0.024440794733548103,0.012038086514572617,-0.0006757829000179535,0.01205225879761621
1.0036253159350388,0.04141534161646615,0.031133914305159143,0.014399178728297872,0.0032197116933268886,0.014303795228506036
1.0036723979601692,0.0978579156313711,0.04401814993551539,0.03595348541122598,0.010120630509905578,0.0356593513244293
1.0037194799852995,0.14599333246590304,0.05916340314408198,0.06503465797160808,0.020138143705769603,0.06446383126079668
1.00376656201043,0.17300879075255565,0.07278062028332516,0.0922030709843016,0.030614402679111488,0.09136610771754516
1.0038136440355603,0.18229222765708752,0.08429172906277915,0.11374971918924169,0.039156124231155116,0.11271923428491122
1.0038607260606907,0.18262972424027749,0.09219423534782012,0.12736778710133306,0.049379700897997085,0.12612501613995244
1.003907808085821,0.18292620727983336,0.09579735375725085,0.13485525602086357,0.05966224890825756,0.13341633637717512
1.0039548901109514,0.18798821740501145,0.0981028765553928,0.13913083302593265,0.06511773064763196,0.13759831042848475
1.0040019721360818,0.19658928748535154,0.09741353131014584,0.1397247738744464,0.06734271818970744,0.1381532586961837
1.0040490541612122,0.20361099360789395,0.0971104680049187,0.1356935801867525,0.06741781518274136,0.13411042578152937
1.0040961361863425,0.20356945018764083,0.09431492731263867,0.1287855413388881,0.06632251127597728,0.12720560571646333
1.004143218211473,0.19261735903368254,0.0853882746635241,0.11776025800915435,0.062443274117944904,0.11623130729346173
1.0041903002366033,0.1692114287165738,0.07239686621076315,0.09836742477706704,0.05707746975324594,0.09691539639080163
1.0042373822617336,0.13469585530973552,0.05725981222978615,0.07519967777083232,0.050059204602131965,0.07387690874730128
1.004284464286864,0.094068350002802,0.043360858504787034,0.051842634052145065,0.03979694309065324,0.050756071931694326
1.0043315463119944,0.0558705414627791,0.03197173173891962,0.03082107495389939,0.027645253078245648,0.030049928308907327
1.0043786283371248,0.029785725493520713,0.0252587235532658,0.019809015244991575,0.015552240230226414,0.019369763056929144
1.0044257103622551,0.022326134922130727,0.02338737850459639,0.01684685304795892,0.0056301879566705605,0.01668345874373909
1.0044727923873855,0.03362727707623793,0.025167910939647847,0.01768087969631584,0.0004699926251432189,0.017660880681117343
1.004519874412516,0.057935866130881315,0.030206643908713762,0.0238553638180855,-0.00012464678033634837,0.023849549870843503
1.0045669564376463,0.08691312585069338,0.03846686111986248,0.038233159934289905,0.004071498910888855,0.03810519426730842
1.0046140384627766,0.11302745450084833,0.04844709735652216,0.05542672474865837,0.013007207156338555,0.055048409964874666
1.004661120487907,0.13143773576861661,0.056406728398542244,0.07126698378066398,0.022729017287242703,0.07062782854782222
1.0047082025130374,0.140315951549541,0.06208371203191615,0.0817840112464661,0.03197010182119589,0.08090986082432298
1.0047552845381678,0.14016084842095028,0.06362601580922118,0.0846685751900148,0.03985541671245284,0.08360102718629697
1.0048023665632981,0.13271042804166153,0.06076363968580382,0.08028160564993014,0.044795849133328756,0.07909085877663295
1.0048494485884285,0.1199532079956697,0.055628473668593956,0.06958311394397716,0.04957400628686425,0.06826569298542541
1.0048965306135589,0.10352759540252561,0.04799814748081128,0.05738407400153901,0.05192609511777118,0.055994587570968875
1.0049436126386893,0.08458770500586026,0.03855784070583661,0.04469505929439128,0.05258308574788977,0.04327387074845856
1.0049906946638196,0.06411017510052013,0.030080585500546132,0.03435472552873721,0.05140176980976716,0.03295246443495234
1.00503777668895,0.043500849939608656,0.023055355144746676,0.022887706523455283,0.047692722053567095,0.0215730134661714
1.0050848587140804,0.02497562650004661,0.017308801131739552,0.013888116903115118,0.0419819878879465,0.012722339992277612
1.0051319407392107,0.011013597455985432,0.015071172502937083,0.011624969459267675,0.034864059961716126,0.010653896577086952
1.0051790227643411,0.003334338693202587,0.011873633622868642,0.009001101837417943,0.026493540764474455,0.0082610320017733
1.0052261047894715,0.0027948227754708652,0.00801278684433361,0.005716764128480125,0.01919511646418267,0.0051796992335587065
1.0052731868146019,0.010164673003053454,0.004668342092675361,0.005314070387151807,0.010891850895922114,0.005008272092593442
1.0053202688397322,0.026566180290056158,0.0035144901670679596,0.008193549268036414,0.003942865480502488,0.008080368629820256
1.0053673508648626,0.05291846997433676,0.004351464950500187,0.011498759854167706,0.00046145928739502884,0.011481402182698263
1.005414432889993,0.08828034555015178,0.008821755968704572,0.017065936640710815,-0.0009896443583564758,0.0170869097642306
1.0054615149151234,0.12763762777320273,0.013679920194927711,0.025647230237824777,-0.0003443907545262373,0.025646848116378514
1.0055085969402537,0.16155770115500132,0.01942588489117429,0.038076850744054896,0.004809541744419783,0.03792850898226272
1.0055556789653841,0.18078890709766565,0.02504460706322625,0.05135766337998839,0.013706191343350889,0.050961381490829294
1.0056027609905145,0.18307418566708303,0.028682272344601557,0.06056084021799014,0.02450267125256647,0.059874982884078304
1.0056498430156449,0.1741533504439713,0.030748853183860437,0.06655908741414072,0.03196917460909089,0.06568014114524134
1.0056969250407752,0.16242605985016223,0.032261381443513475,0.07063087442771013,0.03746951347482959,0.06961390375445839
1.0057440070659056,0.15418810481596457,0.03255160147274998,0.07107575192890922,0.03988907492725252,0.06999845374668184
1.005791089091036,0.1523552110015489,0.03129994495075991,0.0660360559428213,0.03931629116953839,0.06497002421975913
1.0058381711161664,0.15691036178882456,0.03051015861096712,0.06130313889977103,0.03750763805778969,0.060280401599282676
1.0058852531412967,0.16538784679386007,0.03271745469420002,0.06307528196508604,0.03554632300355383,0.062103470624017915
1.005932335166427,0.17322460684996496,0.03119498391039984,0.06323184659303546,0.0322805501140173,0.06234390393659372
1.0059794171915575,0.17475929729964576,0.02746552805950582,0.05880087400333982,0.02765964461576778,0.05803201848435675
1.0060264992166879,0.16548577922015562,0.023132979475503634,0.05204155960234529,0.02218188212881183,0.05141724650652962
1.0060735812418182,0.1445721481217929,0.018101488524532833,0.04234591607178599,0.015621450023872697,0.041899648081259934
1.0061206632669486,0.11538472372115638,0.014419840066147957,0.03266210113426135,0.00790843134316924,0.032429993499740975
1.006167745292079,0.08342022676517998,0.010501410504835317,0.0259645785337829,0.0015161149931724681,0.025912218959189805
1.0062148273172093,0.053714935068683495,0.008415335236497647,0.01794830890199036,-0.0027169154093996946,0.018017187232005648
1.0062619093423397,0.029620632829972474,0.006220666745205408,0.006428025048282717,-0.004056347799277688,0.006538796479409768
1.00630899136747,0.012907514843990737,0.005074325570868551,-0.004503164505502606,-0.00139260025200674,-0.004462542006328208
1.0063560733926005,0.004292560353454192,0.0054401851999301325,-0.010519166817943732,0.003933640401028938,-0.010624936242720607
1.0064031554177308,0.0038095921685766332,0.008110989580245335,-0.007972360122875525,0.010348785530651846,-0.008258544967160022
1.0064502374428612,0.010924293923755681,0.014915830002951205,0.0013341291502741227,0.02007038264543968,0.0007735182791866284
1.0064973194679916,0.02453035587728399,0.021904556786367962,0.011333716656649779,0.03029245126528694,0.010488676488081407
1.006544401493122,0.042966387475684646,0.02795684553399019,0.020787738978896356,0.0402296900519324,0.019673273092411462
1.0065914835182523,0.06411092062196938,0.0334151926944261,0.03329944681240632,0.04528969122839064,0.03205714391360255
1.0066385655433827,0.08556714248621351,0.03879696644867633,0.049462130528264495,0.045622333169488806,0.04822403914296949
1.006685647568513,0.10493697207975199,0.04340771078605346,0.06485229624100503,0.042681026321692496,0.0637009050410498
1.0067327295936435,0.12014720761669652,0.045790273651205714,0.07640706666955516,0.03767321009764057,0.07538812766518836
1.0067798116187738,0.12974860817624662,0.0468091972633016,0.08294186479002422,0.031010509686358177,0.0820921686651189
1.0068268936439042,0.1331160769266914,0.047877965482657193,0.08436945777741765,0.02409650749577406,0.08369542048551748
1.0068739756690346,0.13051634907150206,0.0457482028150455,0.08386978816652868,0.017178218947662277,0.08337505566247334
1.006921057694165,0.12301693370584733,0.04009724343291657,0.08185258015702256,0.012384570572499554,0.08148485195723419
1.0069681397192953,0.11219272060745543,0.0325649480580266,0.07585112215539112,0.008175064954835023,0.07559800568765565
1.0070152217444257,0.09964098937742749,0.02583550827886796,0.06985230351433948,0.004574884566665625,0.06969916941722107
1.007062303769556,0.08648287672211809,0.020361841169694368,0.06302251331950957,0.0015951039516419597,0.06295387086139309
1.0071093857946865,0.07315337862299943,0.016893172242373175,0.053521194673379444,-0.0009918719236717275,0.053527993130981236
1.0071564678198168,0.05967551136841471,0.015118725963605101,0.042771215350936226,-0.0028385121856484277,0.04283376826207752
1.0072035498449472,0.046352747241279996,0.011544782574096121,0.029687677967592516,-0.004305086941997433,0.02979640896462809
1.0072506318700776,0.03458526276589038,0.009247724498739654,0.01916866027493343,-0.004294195589407863,0.019281173576616458
1.007297713895208,0.02727830692374265,0.00854784298930961,0.01473006896934623,-0.003752976783980242,0.014829161534143572
1.0073447959203383,0.0280866607277734,0.010897599839508429,0.01711698325886342,-0.0025624990559316814,0.017181869983602983
1.0073918779454687,0.03925806445151868,0.018358266512990978,0.028584290137595406,0.000342951988196828,0.028563600804460347
1.007438959970599,0.059562255279517966,0.028005070600004955,0.043832242766228824,0.003921713926688752,0.04370637362762909
1.0074860419957294,0.08449757331606145,0.03705322668616284,0.058037587268334905,0.007985656679882453,0.05779509155448439
1.0075331240208598,0.10858230355013457,0.04376140880565961,0.06858033205585247,0.013375649804846798,0.06818905008388967
1.0075802060459902,0.12742598805780986,0.04836487801648253,0.07621925524513734,0.01764770003986077,0.07571308550473364
1.0076272880711206,0.13840784538629322,0.04896752153259625,0.07904744927672683,0.020435137036175388,0.07846798995214646
1.007674370096251,0.14057521646913557,0.04607286312921142,0.0769603579802706,0.02294101925290549,0.07631576447506905
1.0077214521213813,0.1345761316442056,0.04205726731782928,0.07084930100861353,0.023395547382386663,0.07019274491333911
