freq,gls,usurper,pdc_unbiased,shape_periodogram,shift_periodogram
1.0,0.02176245538732735,0.022514888895101382,-0.007335655112181927,-0.004671105010864423,-0.007187053658507893
1.0000470820251304,0.05134779247241603,0.038845068600801724,0.016081221596065367,0.0036348904865988944,0.015960656797452098
1.0000941640502607,0.09689124580742478,0.05339017560661241,0.05094334186944231,0.01985312220897763,0.050314152700195645
1.0001412460753911,0.14848755125694818,0.0688545100711585,0.08456655871201842,0.035067661702578835,0.0834988349666299
1.0001883281005215,0.19664060203551523,0.08101700774038288,0.10917973127593883,0.04835325296381873,0.10777612007200842
1.0002354101256519,0.23592916525893703,0.08751599881218691,0.12678225514793529,0.05823527225331618,0.12516433413996242
1.0002824921507822,0.26363730657080775,0.09034070471862496,0.13936052532630389,0.06362565509095129,0.1376475492296869
1.0003295741759126,0.2780607972143743,0.09151351027357545,0.14663287491158739,0.06697785623070056,0.14486661880720814
1.000376656201043,0.27778293516045677,0.09142718047410806,0.14742341655727248,0.06853183307461488,0.14562739475549452
1.0004237382261734,0.2619162710265795,0.08825745661539602,0.139633635428265,0.06868216229351522,0.13781371853184915
1.0004708202513037,0.23107843684954268,0.08102254102917691,0.12167319492364326,0.06696742563967925,0.11984478688505934
1.0005179022764341,0.1884924826566669,0.07143741232339369,0.09811663264576473,0.06350343318019946,0.09631685974353751
1.0005649843015645,0.1401213853463462,0.06353834493946868,0.07552593926328457,0.05934594499931453,0.07379028399262338
1.0006120663266949,0.09311329616242185,0.05823249148868569,0.056936636782797936,0.05363924171322202,0.05532972227891939
1.0006591483518252,0.05338098213176131,0.05706527586494972,0.04656239048066332,0.045530609774180705,0.0451763552223963
1.0007062303769556,0.024158292773911582,0.05564438334689162,0.0379052596807291,0.03499802883339091,0.036824261780321964
1.000753312402086,0.006389706849983347,0.051204242494478455,0.024925530867037873,0.02309981045813538,0.024202805787773826
1.0008003944272164,4.4957735270936574e-05,0.0493175980297612,0.013623927240606612,0.012885446064424677,0.01321815463797049
1.0008474764523467,0.004476680458159687,0.04514051062767625,0.005279248516488982,0.008786886255520142,0.0050038610670847875
1.000894558477477,0.016631009383087918,0.04536760380691062,0.00604487589630294,0.009738065617472752,0.005739645879445474
1.0009416405026075,0.030279800796216314,0.05288085087723003,0.01614856324889533,0.015270478180915118,0.01566826142307856
1.0009887225277379,0.04019506929021177,0.06570032867234159,0.031662352407458065,0.025559517176771927,0.030864082755411287
1.0010358045528682,0.045271217739530065,0.07755893329892184,0.049643587368788454,0.037777043613290824,0.048484554815191226
1.0010828865779986,0.04665854735345898,0.08091312630857929,0.06394396252727896,0.05029395093867786,0.06243843120692547
1.001129968603129,0.04557434040645729,0.08014607053568931,0.06951556918541625,0.06066158394631327,0.06773461491732344
1.0011770506282593,0.04281463251624272,0.0734019130753488,0.06676401531502141,0.06717314411800401,0.06480384889090106
1.0012241326533897,0.03911406922799136,0.06444515448539875,0.05756222886158259,0.0709243284134334,0.055480444631041445
1.00127121467852,0.035734840091298535,0.05524583079912245,0.04469056838221148,0.07242987042712923,0.04253627753202573
1.0013182967036505,0.034632288517627896,0.04819336257807742,0.03354469161607427,0.07383242003487261,0.031323273177250976
1.0013653787287808,0.03686446430802818,0.05142865475637661,0.03235087082016887,0.07513172767144022,0.030089004296768855
1.0014124607539112,0.040499198873267514,0.060740546213389195,0.04235422606047071,0.07680088186277936,0.04007153570201851
1.0014595427790416,0.04245011553894062,0.06884486951385627,0.05148956578485458,0.07687865507980005,0.049230254101235674
1.001506624804172,0.04142424671447975,0.07375697193862561,0.057489670337512934,0.07305635623928826,0.05535011294798115
1.0015537068293023,0.03772147907862947,0.07361517588973668,0.05838903434484734,0.06581424856972634,0.056447910246732035
1.0016007888544327,0.032149333674356434,0.0703582295521996,0.05286952532393206,0.05405657694138117,0.051245863739374814
1.001647870879563,0.025799799790141527,0.0633989502643393,0.040386054375886556,0.03918020558074535,0.03918203008113911
1.0016949529046935,0.020580986012262138,0.052881803439644263,0.02276083148008517,0.02319517644332162,0.022035550659313678
1.0017420349298238,0.01993155776046648,0.04398827724819676,0.008396000375120035,0.011012662798916582,0.00805026350216379
1.0017891169549542,0.027489951613850306,0.04139743751275262,0.00883020356959996,0.008137520696932413,0.008573388424038094
1.0018361989800846,0.042074300128446054,0.04182475313941011,0.022145335055818467,0.013053997797233537,0.02173115198023402
1.001883281005215,0.05845891480384451,0.047164263032166524,0.04104344236602053,0.02317180359202434,0.040316211768449295
1.0019303630303453,0.07582159493280267,0.056510131561367194,0.05832937685591873,0.03420607003421061,0.05727711744923987
1.0019774450554757,0.09824195100672209,0.06485290398441347,0.07041397317164165,0.04394751661671673,0.06909089585917974
1.002024527080606,0.1303669711588208,0.06535266144800225,0.07896421651578898,0.05180215237100448,0.07743469172929884
1.0020716091057364,0.17464242099810953,0.06071938718387996,0.08832693698111686,0.05679634201041415,0.0866787958444993
1.0021186911308668,0.22917237164395338,0.06497099877001782,0.11355266104308831,0.059837129787837055,0.11187236161272472
1.0021657731559972,0.2864808872447173,0.07478577724104421,0.14880372324738836,0.062301790859864134,0.1471402569073924
1.0022128551811276,0.335488571803669,0.08396872659164119,0.17945522269565434,0.06382486297518929,0.1778331708280997
1.002259937206258,0.3667004160945303,0.08996719680379153,0.20044309409803335,0.06368814418072266,0.1988758493436059
1.0023070192313883,0.37630521047742305,0.09208104646547867,0.20989430295355302,0.061427198992531885,0.20838869280244213
1.0023541012565187,0.3658732131217113,0.09010755114436342,0.20800353236518512,0.05713700142042045,0.20656802540072164
1.002401183281649,0.3393357840705059,0.08387482121969049,0.19716291122807472,0.050545213016978854,0.19583143221485355
1.0024482653067794,0.30043566038503033,0.07507251960603621,0.1783931936762516,0.04124195397474432,0.17723452257495648
1.0024953473319098,0.25183659939415354,0.06479522597483126,0.15384153094853617,0.029340529361617868,0.1529535472777943
1.0025424293570402,0.1956066522565673,0.05175762358240775,0.12081929242955049,0.017640744650558524,0.12024396885957267
1.0025895113821706,0.13475970805500284,0.03384726181857218,0.07564140824241966,0.005951763268981655,0.07542305317693912
1.002636593407301,0.07582916802294695,0.01579501700286698,0.025728531183742454,-0.0015738280003114126,0.025765003034877887
1.0026836754324313,0.03145358980808763,0.013038668158822694,-0.0040036080406334615,-0.0014313706445929827,-0.003957201654146183
1.0027307574575617,0.01779891286180085,0.025780029505007906,-0.006351274616742859,0.010303615754586494,-0.0066687140035199466
1.002777839482692,0.04358985242398123,0.03310831428459193,0.006591376950054447,0.028620715182064785,0.005701225004085782
1.0028249215078224,0.1037077589167159,0.043124800476913194,0.04281328660270074,0.045155569575730435,0.041435414472125884
1.0028720035329528,0.18101238562213362,0.060255347106045194,0.0979436666785688,0.057845189267255764,0.09628439749671522
1.0029190855580832,0.25636899888384335,0.08199969579326308,0.15380629462607742,0.066359001817951,0.15207095138657495
1.0029661675832136,0.31832235074100634,0.10305571718394382,0.19704252226634572,0.06544934125325609,0.19543643301153713
1.003013249608344,0.36361141655314383,0.11329341338468572,0.228525784613192,0.06358021443408651,0.22703263800802784
1.0030603316334743,0.39341420767750745,0.11975498993183369,0.24979870354304085,0.06261868288313277,0.24837508723086155
1.0031074136586047,0.4102870696014962,0.12195312760590017,0.26258314989231946,0.06056681026007833,0.26121984278662036
1.003154495683735,0.41662904201390033,0.12153106110638158,0.266777273312063,0.05793086559736946,0.26545937433626
1.0032015777088654,0.41405085665469693,0.11869564380407546,0.26326150551395927,0.05410895031246771,0.2619899369580872
1.0032486597339958,0.4030953535584088,0.11342278280427608,0.251751202986526,0.04907653076706594,0.25053706976479806
1.0032957417591262,0.38301151602067063,0.1056206424043671,0.2324239377319079,0.04290752725351359,0.23129200232197786
1.0033428237842565,0.3514583105172215,0.09477297914583806,0.2047530276495091,0.03529801473721418,0.2037510006950902
1.003389905809387,0.3042863356687068,0.08057792373300106,0.16911475512504195,0.02638795059964525,0.16830712760250713
1.0034369878345173,0.2364892670841809,0.0636554227782016,0.12615890065588273,0.0165594815607287,0.1256135080381697
1.0034840698596477,0.14805992805189566,0.04481650568555997,0.07745804013496241,0.007009623654318041,0.07720687901159654
1.003531151884778,0.05937981673678241,0.0301443854619783,0.035632586371168055,2.4609097838819028e-05,0.03561463771728889
1.0035782339099084,0.016571701488668728,0.02463709601837112,0.012038086514572617,-0.0019382574545112538,0.012092512701975167
1.0036253159350388,0.04141534161646615,0.031595698162704175,0.014399178728297872,0.003605602431854609,0.01428031419674342
1.0036723979601692,0.0978579156313711,0.04451024407199854,0.03595348541122598,0.012820594235736695,0.03554144110468805
1.0037194799852995,0.14599333246590304,0.05966562580712286,0.06503465797160808,0.025713514624150207,0.06423051535588656
1.00376656201043,0.17300879075255565,0.07276698890634285,0.0922030709843016,0.039111790938270885,0.09102789587650924
1.0038136440355603,0.18229222765708752,0.08350590348626283,0.11374971918924169,0.05009171609758491,0.11230785434000347
1.0038607260606907,0.18262972424027749,0.09056977845508529,0.12736778710133306,0.06167563006364524,0.12567198681978048
1.003907808085821,0.18292620727983336,0.09424175565139696,0.13485525602086357,0.07242691462908038,0.13294380975259876
1.0039548901109514,0.18798821740501145,0.09639219809870052,0.13913083302593265,0.07798549709902776,0.1371202057441584
1.0040019721360818,0.19658928748535154,0.09603116584880196,0.1397247738744464,0.07971797080009614,0.13768227570245495
1.0040490541612122,0.20361099360789395,0.0969200822267448,0.1356935801867525,0.07839040584399858,0.13366311671356124
1.0040961361863425,0.20356945018764083,0.09501639052129056,0.1287855413388881,0.07551995114362096,0.1267910311771745
1.004143218211473,0.19261735903368254,0.0861618440045769,0.11776025800915435,0.06954473498732049,0.11586388726207052
1.0041903002366033,0.1692114287165738,0.07355181754886767,0.09836742477706704,0.06198621803404619,0.09660560525166248
1.0042373822617336,0.13469585530973552,0.058892276918342285,0.07519967777083232,0.052733486050744655,0.07364041425548862
1.004284464286864,0.094068350002802,0.04556761530709605,0.051842634052145065,0.040634351854839545,0.050601647205730155
1.0043315463119944,0.0558705414627791,0.03464906209528546,0.03082107495389939,0.02702901334919475,0.02997841652517113
1.0043786283371248,0.029785725493520713,0.027991883456031878,0.019809015244991575,0.014084917834157076,0.01936395268992307
1.0044257103622551,0.022326134922130727,0.02590578113751302,0.01684685304795892,0.0038827282884059907,0.016718245605968435
1.0044727923873855,0.03362727707623793,0.027331003807479652,0.01768087969631584,-0.0012439435003097155,0.017710993758797245
1.004519874412516,0.057935866130881315,0.031846409824371875,0.0238553638180855,-0.001548742443612071,0.023891963292771108
1.0045669564376463,0.08691312585069338,0.039633567279918784,0.038233159934289905,0.0032714163609723905,0.0381134940719598
1.0046140384627766,0.11302745450084833,0.04922426131283033,0.05542672474865837,0.012816947519453675,0.05500809317971733
1.004661120487907,0.13143773576861661,0.056922273407928714,0.07126698378066398,0.023345287716819197,0.07053190170707663
1.0047082025130374,0.140315951549541,0.06243260037021355,0.0817840112464661,0.033604837999437455,0.0807561822017793
1.0047552845381678,0.14016084842095028,0.06383968567236088,0.0846685751900148,0.04255117678848764,0.08339472167140248
1.0048023665632981,0.13271042804166153,0.06090738264821198,0.08028160564993014,0.04843881018844119,0.0788441312166429
1.0048494485884285,0.1199532079956697,0.055761234075793135,0.06958311394397716,0.053888667519384884,0.06798532576950247
1.0048965306135589,0.10352759540252561,0.04909476866194447,0.05738407400153901,0.05638918201654601,0.05570095983609005
1.0049436126386893,0.08458770500586026,0.04114170118269633,0.04469505929439128,0.05650523418598788,0.042991296224462225
1.0049906946638196,0.06411017510052013,0.033641833157603634,0.03435472552873721,0.05467729330301809,0.0326908315566329
1.00503777668895,0.043500849939608656,0.02723612391995711,0.022887706523455283,0.05072686397781315,0.021328983447079404
1.0050848587140804,0.02497562650004661,0.02168628104751516,0.013888116903115118,0.04467605077757422,0.012506003361955976
1.0051319407392107,0.011013597455985432,0.01925656553980361,0.011624969459267675,0.03758239467761742,0.010459129602641113
1.0051790227643411,0.003334338693202587,0.01612022670717062,0.009001101837417943,0.029050326728461112,0.00809756717437997
1.0052261047894715,0.0027948227754708652,0.012299814998386333,0.005716764128480125,0.02136164649028178,0.0050513970894614894
1.0052731868146019,0.010164673003053454,0.009087100662109993,0.005314070387151807,0.01268786013947843,0.0049176552757534886
1.0053202688397322,0.026566180290056158,0.007735148937028695,0.008193549268036414,0.004460777371030531,0.00805107321773165
1.0053673508648626,0.05291846997433676,0.00857194843645422,0.011498759854167706,-9.620147087441578e-05,0.011496196555480292
1.005414432889993,0.08828034555015178,0.012776613564022559,0.017065936640710815,-0.0021353316933848837,0.01712406063776869
1.0054615149151234,0.12763762777320273,0.017370983708818358,0.025647230237824777,-0.0020745862460584286,0.025699310026021896
1.0055085969402537,0.16155770115500132,0.022622170228364977,0.038076850744054896,0.00267414013592554,0.037975709695847
1.0055556789653841,0.18078890709766565,0.02749002955820824,0.05135766337998839,0.011360155622115519,0.050984590554400154
1.0056027609905145,0.18307418566708303,0.030602948136535323,0.06056084021799014,0.021851772488253277,0.05987061578386214
1.0056498430156449,0.1741533504439713,0.032365180582811445,0.06655908741414072,0.029148227666919713,0.06565504326767715
1.0056969250407752,0.16242605985016223,0.03340252181710415,0.07063087442771013,0.03503242434408141,0.069558839895127
1.0057440070659056,0.15418810481596457,0.03331613589911877,0.07107575192890922,0.038344113271701674,0.06991012513407804
1.005791089091036,0.1523552110015489,0.03170360565700709,0.0660360559428213,0.038766985350257716,0.06485593801665557
1.0058381711161664,0.15691036178882456,0.030412885887295134,0.06130313889977103,0.03809347819066774,0.06013996250526519
1.0058852531412967,0.16538784679386007,0.03224309832737155,0.06307528196508604,0.037169826607279875,0.06193932821578714
1.005932335166427,0.17322460684996496,0.03096077992200858,0.06323184659303546,0.034772275123137644,0.06216473261285343
1.0059794171915575,0.17475929729964576,0.02797908408320286,0.05880087400333982,0.030946164423740336,0.05784347011085649
1.0060264992166879,0.16548577922015562,0.024377721396854745,0.05204155960234529,0.026189997826950695,0.05122344707413249
1.0060735812418182,0.1445721481217929,0.02009153986388387,0.04234591607178599,0.019892380557891616,0.041717247865462784
1.0061206632669486,0.11538472372115638,0.017083993263867975,0.03266210113426135,0.011954266367984197,0.03227777141542407
1.006167745292079,0.08342022676517998,0.013626491465685156,0.0259645785337829,0.004974809995992612,0.02579793637392886
1.0062148273172093,0.053714935068683495,0.011916184468193394,0.01794830890199036,-3.95877935960464e-05,0.017940873878695286
1.0062619093423397,0.029620632829972474,0.010168702125701423,0.006428025048282717,-0.002307599886518074,0.006496639784715447
1.00630899136747,0.012907514843990737,0.009240619352613694,-0.004503164505502606,-0.0002611744200430287,-0.004492874648880239
1.0063560733926005,0.004292560353454192,0.009997587440696927,-0.010519166817943732,0.004864263831728732,-0.010665339591098645
1.0064031554177308,0.0038095921685766332,0.013132587495049345,-0.007972360122875525,0.011343883469914167,-0.008321508571637605
1.0064502374428612,0.010924293923755681,0.02042885555792581,0.0013341291502741227,0.022186327316198164,0.0006442305668087606
1.0064973194679916,0.02453035587728399,0.027702068933371585,0.011333716656649779,0.03327539109777388,0.010300135508703057
1.006544401493122,0.042966387475684646,0.03370912907475798,0.020787738978896356,0.043895692035772434,0.019433248689580157
1.0065914835182523,0.06411092062196938,0.03882657310853396,0.03329944681240632,0.04932649384407579,0.0317917132280936
1.0066385655433827,0.08556714248621351,0.04360429157103833,0.049462130528264495,0.04992782046063899,0.04795203097090009
1.006685647568513,0.10493697207975199,0.04719107313483592,0.06485229624100503,0.04781026001382979,0.06341683530249159
1.0067327295936435,0.12014720761669652,0.04886837118189115,0.07640706666955516,0.04392442294982974,0.07508926247652975
1.0067798116187738,0.12974860817624662,0.04937698212041434,0.08294186479002422,0.038311011555748564,0.08178333492125084
1.0068268936439042,0.1331160769266914,0.050094524425994866,0.08436945777741765,0.032064357802631685,0.08338570735148453
1.0068739756690346,0.13051634907150206,0.047715914936586154,0.08386978816652868,0.025218841920407385,0.08308033679996367
1.006921057694165,0.12301693370584733,0.04201843252019236,0.08185258015702256,0.020129389123159286,0.08121038890958403
1.0069681397192953,0.11219272060745543,0.03479435357229192,0.07585112215539112,0.015277760232208878,0.07535277183055977
1.0070152217444257,0.09964098937742749,0.028591547446713772,0.06985230351433948,0.010730242554094402,0.06949171105301787
1.007062303769556,0.08648287672211809,0.023447365165715918,0.06302251331950957,0.006987141922836744,0.06277789584075218
1.0071093857946865,0.07315337862299943,0.020360188839582866,0.053521194673379444,0.0035736286473250643,0.05338519183418828
1.0071564678198168,0.05967551136841471,0.01854783798159502,0.042771215350936226,0.0007997219853675992,0.04272582983222922
1.0072035498449472,0.046352747241279996,0.014606588820300455,0.029687677967592516,-0.001587064134609821,0.029722642500444037
1.0072506318700776,0.03458526276589038,0.012013921463971736,0.01916866027493343,-0.0020570093781302834,0.01922333146404997
1.007297713895208,0.02727830692374265,0.011096960866765902,0.01473006896934623,-0.0018922240710562098,0.014781763141742054
1.0073447959203383,0.0280866607277734,0.013194538965804392,0.01711698325886342,-0.0008675841162268852,0.017135673500572476
1.0073918779454687,0.03925806445151868,0.019935681114903122,0.028584290137595406,0.0021589254655860913,0.028503560074912337
1.007438959970599,0.059562255279517966,0.028482529594524162,0.043832242766228824,0.005609370531691418,0.043637996751943124
1.0074860419957294,0.08449757331606145,0.036368226822585566,0.058037587268334905,0.009604644631232295,0.05771535263429066
1.0075331240208598,0.10858230355013457,0.04217318600782803,0.06858033205585247,0.015219787748779842,0.06808558908800046
1.0075802060459902,0.12742598805780986,0.046259967272021814,0.07621925524513734,0.019550052109786845,0.07559477181960032
1.0076272880711206,0.13840784538629322,0.0467315895781037,0.07904744927672683,0.022525853418803827,0.0783357924871688
1.007674370096251,0.14057521646913557,0.04402007182218704,0.0769603579802706,0.025399997007283365,0.07616549347261944
1.0077214521213813,0.1345761316442056,0.04043711390553058,0.07084930100861353,0.02630882247292033,0.0700279355571057
1.0077685341465117,0.12269802495893224,0.035148534534220656,0.062425783036096825,0.025159967566641635,0.06163788104919641
