freq,gls,usurper,pdc_unbiased,shape_periodogram,shift_periodogram
1.0,0.02176245538732735,0.015565137261228249,-0.007335655112181927,0.006570216607009844,-0.007465036117706418
1.0000470820251304,0.05134779247241603,0.019459094356540977,0.016081221596065367,0.005694887358282569,0.015965072157093925
1.0000941640502607,0.09689124580742478,0.025232762292937312,0.05094334186944231,0.008918689650731273,0.05075859823993706
1.0001412460753911,0.14848755125694818,0.030353186558432096,0.08456655871201842,0.01715787536862833,0.08422462731059759
1.0001883281005215,0.19664060203551523,0.03599086406679317,0.10917973127593883,0.02931213586685448,0.10863183414475319
1.0002354101256519,0.23592916525893703,0.04195858316246973,0.12678225514793529,0.03962422220796543,0.12608570381092468
1.0002824921507822,0.26363730657080775,0.04576506482668114,0.13936052532630389,0.04569979415224858,0.13859271907121476
1.0003295741759126,0.2780607972143743,0.048376783270443646,0.14663287491158739,0.04880831101082405,0.14583474446552772
1.000376656201043,0.27778293516045677,0.04913796617058723,0.14742341655727248,0.05092005005790682,0.14660079469818982
1.0004237382261734,0.2619162710265795,0.047223977390496774,0.139633635428265,0.051331123672230354,0.13879452304256606
1.0004708202513037,0.23107843684954268,0.04299642645160285,0.12167319492364326,0.049271701781548716,0.12083559625447558
1.0005179022764341,0.1884924826566669,0.03743563434827988,0.09811663264576473,0.045883434614507,0.0972993158259715
1.0005649843015645,0.1401213853463462,0.033526654296733883,0.07552593926328457,0.04247549983394844,0.07474045719579883
1.0006120663266949,0.09311329616242185,0.031333596328312056,0.056936636782797936,0.03822442342083296,0.05620971856317912
1.0006591483518252,0.05338098213176131,0.031447362068969906,0.04656239048066332,0.03214669789808423,0.04593954319114744
1.0007062303769556,0.024158292773911582,0.031579980755982416,0.0379052596807291,0.024898149302407902,0.03741518257552177
1.000753312402086,0.006389706849983347,0.03222940671152281,0.024925530867037873,0.016223079790582136,0.024601457999941418
1.0008003944272164,4.4957735270936574e-05,0.03325314501145679,0.013623927240606612,0.009129844506336913,0.013440249728524038
1.0008474764523467,0.004476680458159687,0.03230351718807518,0.005279248516488982,0.006838392312531126,0.005142314200625594
1.000894558477477,0.016631009383087918,0.036661397982052264,0.00604487589630294,0.009387139270353973,0.005857237716520852
1.0009416405026075,0.030279800796216314,0.04457975305566881,0.01614856324889533,0.016019168581805698,0.015828900638500905
1.0009887225277379,0.04019506929021177,0.054111877177589175,0.031662352407458065,0.027673398296726073,0.031118389798724413
1.0010358045528682,0.045271217739530065,0.06034769099553397,0.049643587368788454,0.04221580375397541,0.04884060355584624
1.0010828865779986,0.04665854735345898,0.06579695724914884,0.06394396252727896,0.0565607615916448,0.06291345707249356
1.001129968603129,0.04557434040645729,0.06978778162293094,0.06951556918541625,0.06790616254595971,0.06831777997407693
1.0011770506282593,0.04281463251624272,0.0705680591304594,0.06676401531502141,0.0738586137608878,0.06546946414116614
1.0012241326533897,0.03911406922799136,0.06708683484793489,0.05756222886158259,0.07462318549603571,0.05623009027585042
1.00127121467852,0.035734840091298535,0.060937958779909845,0.04469056838221148,0.07240139183018317,0.043359433988112824
1.0013182967036505,0.034632288517627896,0.05502085492038427,0.03354469161607427,0.07013651054688624,0.03222457734658258
1.0013653787287808,0.03686446430802818,0.05116747096055377,0.03235087082016887,0.06855310246924962,0.03105599560246362
1.0014124607539112,0.040499198873267514,0.05122615183961025,0.04235422606047071,0.06892426447722849,0.04107604444311362
1.0014595427790416,0.04245011553894062,0.05341723300975096,0.05148956578485458,0.07073175043529836,0.05020341426729525
1.001506624804172,0.04142424671447975,0.05414351147974088,0.057489670337512934,0.0682763407601677,0.05625775121734618
1.0015537068293023,0.03772147907862947,0.054380673978651956,0.05838903434484734,0.061191321478626076,0.05727349106654356
1.0016007888544327,0.032149333674356434,0.05163640484582961,0.05286952532393206,0.05062683210069294,0.051922669324574025
1.001647870879563,0.025799799790141527,0.04595691222504903,0.040386054375886556,0.03629476707931204,0.03968401345721222
1.0016949529046935,0.020580986012262138,0.037333542054434544,0.02276083148008517,0.021428155609752052,0.022335575494418804
1.0017420349298238,0.01993155776046648,0.03302458872073659,0.008396000375120035,0.010482940065070077,0.008186304961264674
1.0017891169549542,0.027489951613850306,0.03188525998857458,0.00883020356959996,0.008079481387776434,0.008668057179979994
1.0018361989800846,0.042074300128446054,0.032162882162349665,0.022145335055818467,0.01174822963276734,0.02190896505729806
1.001883281005215,0.05845891480384451,0.03757132612347906,0.04104344236602053,0.02038574126987696,0.04063930884338017
1.0019303630303453,0.07582159493280267,0.043010166646233035,0.05832937685591873,0.031077356191381824,0.05773065752332027
1.0019774450554757,0.09824195100672209,0.04513597696016237,0.07041397317164165,0.04326106064134852,0.06961081525386752
1.002024527080606,0.1303669711588208,0.0413663234344005,0.07896421651578898,0.05193556915071404,0.07802987814386753
1.0020716091057364,0.17464242099810953,0.036297287826984215,0.08832693698111686,0.05799900957031055,0.08731515909285714
1.0021186911308668,0.22917237164395338,0.03676017858744339,0.11355266104308831,0.06331201092940437,0.11251810203233803
1.0021657731559972,0.2864808872447173,0.0408318748675742,0.14880372324738836,0.06839660483652399,0.1477976265607482
1.0022128551811276,0.335488571803669,0.04489066770272993,0.17945522269565434,0.07304209149241189,0.17849877330691527
1.002259937206258,0.3667004160945303,0.04710314927642713,0.20044309409803335,0.0759622521997692,0.19953727859274245
1.0023070192313883,0.37630521047742305,0.047245285486913396,0.20989430295355302,0.07657325312379834,0.2090173794582407
1.0023541012565187,0.3658732131217113,0.045689094472233266,0.20800353236518512,0.07507403658504644,0.2071256615443787
1.002401183281649,0.3393357840705059,0.04435627327337928,0.19716291122807472,0.07206526713161325,0.19626493640363463
1.0024482653067794,0.30043566038503033,0.043200999367392676,0.1783931936762516,0.06459080153916134,0.17749370916789337
1.0024953473319098,0.25183659939415354,0.040001721190763326,0.15384153094853617,0.051376765390037625,0.15302311976030433
1.0025424293570402,0.1956066522565673,0.033295839830061576,0.12081929242955049,0.034562176568225175,0.12019397948495054
1.0025895113821706,0.13475970805500284,0.02672357380613978,0.07564140824241966,0.014884731233244929,0.07534129809163022
1.002636593407301,0.07582916802294695,0.02298040308443506,0.025728531183742454,-0.00048527181216966297,0.02573309029107446
1.0026836754324313,0.03145358980808763,0.020404029605522088,-0.0040036080406334615,-0.0013008289092373859,-0.0039769465078517054
1.0027307574575617,0.01779891286180085,0.022383031844664007,-0.006351274616742859,0.013080050684519152,-0.006610729781428318
1.002777839482692,0.04358985242398123,0.024370641812740578,0.006591376950054447,0.033463561225461236,0.005927841194689602
1.0028249215078224,0.1037077589167159,0.0354428515218229,0.04281328660270074,0.05069802919442184,0.041852880976541766
1.0028720035329528,0.18101238562213362,0.05039584609076582,0.0979436666785688,0.06143262080380509,0.0969012098796232
1.0029190855580832,0.25636899888384335,0.06411886453088438,0.15380629462607742,0.0660861918508296,0.1528344302669309
1.0029661675832136,0.31832235074100634,0.07244713484486222,0.19704252226634572,0.06681739612969535,0.19617377641694708
1.003013249608344,0.36361141655314383,0.07764240531726596,0.228525784613192,0.06681712407838032,0.2277387278556139
1.0030603316334743,0.39341420767750745,0.0792795243081219,0.24979870354304085,0.06508865903438567,0.24907191744739843
1.0031074136586047,0.4102870696014962,0.07837756810551494,0.26258314989231946,0.06274227245682261,0.2618937794939812
1.003154495683735,0.41662904201390033,0.0764387291918533,0.266777273312063,0.059532856543946584,0.2661063891155627
1.0032015777088654,0.41405085665469693,0.07328956691831538,0.26326150551395927,0.05517681956541156,0.2625997232555451
1.0032486597339958,0.4030953535584088,0.06887014176306779,0.251751202986526,0.04956719524204791,0.2510997603098418
1.0032957417591262,0.38301151602067063,0.06307951733276766,0.2324239377319079,0.04273492956918932,0.23179852769515816
1.0033428237842565,0.3514583105172215,0.0556152755592031,0.2047530276495091,0.03462762747314903,0.2041855334930835
1.003389905809387,0.3042863356687068,0.04616341001445858,0.16911475512504195,0.025568374812795044,0.16864885894163642
1.0034369878345173,0.2364892670841809,0.03540762298976644,0.12615890065588273,0.015778864706576107,0.1258433589140155
1.0034840698596477,0.14805992805189566,0.024562335045611353,0.07745804013496241,0.005967884717316374,0.07732654092072995
1.003531151884778,0.05937981673678241,0.017227292831172768,0.035632586371168055,-0.0011632527372873777,0.035648663411453216
1.0035782339099084,0.016571701488668728,0.0170116428613119,0.012038086514572617,-0.0029618062418929887,0.012094655971326805
1.0036253159350388,0.04141534161646615,0.025973449968832676,0.014399178728297872,0.00418583075615349,0.014313225637476203
1.0036723979601692,0.0978579156313711,0.04138690178674169,0.03595348541122598,0.018663879440456214,0.035582059095372244
1.0037194799852995,0.14599333246590304,0.060743549423528956,0.06503465797160808,0.03365424793880016,0.06439298585216689
1.00376656201043,0.17300879075255565,0.07515466576416523,0.0922030709843016,0.04721669990502576,0.09135871729070137
1.0038136440355603,0.18229222765708752,0.08521064998717101,0.11374971918924169,0.055839309499372776,0.11281191388584197
1.0038607260606907,0.18262972424027749,0.08989415502603781,0.12736778710133306,0.061579042710761166,0.1263836150766279
1.003907808085821,0.18292620727983336,0.09245223072860309,0.13485525602086357,0.06716602657574676,0.13382585493296487
1.0039548901109514,0.18798821740501145,0.09464288676802107,0.13913083302593265,0.07159484892055447,0.13806812717117925
1.0040019721360818,0.19658928748535154,0.09417791850161704,0.1397247738744464,0.07349786648519337,0.13864575865125509
1.0040490541612122,0.20361099360789395,0.0893836946797097,0.1356935801867525,0.07363534652237978,0.13460126905125266
1.0040961361863425,0.20356945018764083,0.0810423747497579,0.1287855413388881,0.0711423515986922,0.12769844417657394
1.004143218211473,0.19261735903368254,0.07202563269225637,0.11776025800915435,0.06858219339427846,0.11667211244721115
1.0041903002366033,0.1692114287165738,0.06094732432535938,0.09836742477706704,0.0622165903903099,0.09731510531952399
1.0042373822617336,0.13469585530973552,0.04856098370499853,0.07519967777083232,0.05173299010821211,0.07426340513657151
1.004284464286864,0.094068350002802,0.035829260424145054,0.051842634052145065,0.03988543713189376,0.051082772855140596
1.0043315463119944,0.0558705414627791,0.024378233100868136,0.03082107495389939,0.026323960228667294,0.030302623800768175
1.0043786283371248,0.029785725493520713,0.017096429222378667,0.019809015244991575,0.013264410693787181,0.019543140506437816
1.0044257103622551,0.022326134922130727,0.013784447519908375,0.01684685304795892,0.0031094110370405814,0.0167817823318885
1.0044727923873855,0.03362727707623793,0.013839301889886121,0.01768087969631584,-0.0022134234916168973,0.017721430796568332
1.004519874412516,0.057935866130881315,0.016896216620887396,0.0238553638180855,-0.002498705613303805,0.023900378670988594
1.0045669564376463,0.08691312585069338,0.02276338940648156,0.038233159934289905,0.003092128066691198,0.038164421712262524
1.0046140384627766,0.11302745450084833,0.02949801052452937,0.05542672474865837,0.014325568800025208,0.0551378034060096
1.004661120487907,0.13143773576861661,0.03652676319850012,0.07126698378066398,0.027750906608065964,0.07073226181162852
1.0047082025130374,0.140315951549541,0.04226003647441085,0.0817840112464661,0.04123177554974914,0.0810244202525706
1.0047552845381678,0.14016084842095028,0.04331149654070344,0.0846685751900148,0.05258294051685879,0.08373218341375675
1.0048023665632981,0.13271042804166153,0.04109649219088212,0.08028160564993014,0.06055439608941752,0.07921730930863681
1.0048494485884285,0.1199532079956697,0.03637560617333825,0.06958311394397716,0.06650423595787218,0.06840679310142075
1.0048965306135589,0.10352759540252561,0.032978336156240864,0.05738407400153901,0.06965208474888808,0.05612994229651574
1.0049436126386893,0.08458770500586026,0.028457647909810885,0.04469505929439128,0.06830892997166572,0.04343277364695586
1.0049906946638196,0.06411017510052013,0.025224346389348656,0.03435472552873721,0.06338043683570269,0.03315603800263764
1.00503777668895,0.043500849939608656,0.0209625676273843,0.022887706523455283,0.056984217834752084,0.02178599456133136
1.0050848587140804,0.02497562650004661,0.016350622208675992,0.013888116903115118,0.04896141838488497,0.012927290347483213
1.0051319407392107,0.011013597455985432,0.012454492031915376,0.011624969459267675,0.039263854381729656,0.010850224995662495
1.0051790227643411,0.003334338693202587,0.01111950178669105,0.009001101837417943,0.02768588809946094,0.008451951039261728
1.0052261047894715,0.0027948227754708652,0.007518107862285111,0.005716764128480125,0.015738358402917072,0.005403280731410915
1.0052731868146019,0.010164673003053454,0.0056221802349749475,0.005314070387151807,0.006598794530427165,0.005181887253557928
1.0053202688397322,0.026566180290056158,0.006544933639926592,0.008193549268036414,-0.0005542704566947613,0.008202953078035854
1.0053673508648626,0.05291846997433676,0.008555332039901858,0.011498759854167706,-0.004305549591875891,0.011582213096337387
1.005414432889993,0.08828034555015178,0.010519361349990576,0.017065936640710815,-0.004055164912045049,0.01714332436893897
1.0054615149151234,0.12763762777320273,0.013702210763146785,0.025647230237824777,-5.218105885774429e-05,0.025643196779448273
1.0055085969402537,0.16155770115500132,0.0168416922383796,0.038076850744054896,0.008516937084212013,0.037901666249852375
1.0055556789653841,0.18078890709766565,0.02061913646915528,0.05135766337998839,0.01898914838742162,0.05098048603936017
1.0056027609905145,0.18307418566708303,0.02242259940602408,0.06056084021799014,0.029955093114751155,0.05998315881378872
1.0056498430156449,0.1741533504439713,0.02474668981527648,0.06655908741414072,0.039886529747430975,0.06580998078007963
1.0056969250407752,0.16242605985016223,0.025033334158699037,0.07063087442771013,0.0485595362688873,0.0697401133915838
1.0057440070659056,0.15418810481596457,0.0232852077447209,0.07107575192890922,0.05368001981686472,0.07010260236762751
1.005791089091036,0.1523552110015489,0.01935963102111879,0.0660360559428213,0.05487601752618571,0.06503616137778082
1.0058381711161664,0.15691036178882456,0.0169235606913646,0.06130313889977103,0.05440136287340357,0.06030397542187871
1.0058852531412967,0.16538784679386007,0.01619160805570394,0.06307528196508604,0.05184997864657587,0.0621208411981868
1.005932335166427,0.17322460684996496,0.014979856244740356,0.06323184659303546,0.047484585013333976,0.062350551673758116
1.0059794171915575,0.17475929729964576,0.012400026681040777,0.05880087400333982,0.04076669482705724,0.05803065333931704
1.0060264992166879,0.16548577922015562,0.009517577245318166,0.05204155960234529,0.0339877807732403,0.051387593708290415
1.0060735812418182,0.1445721481217929,0.0071721262482318734,0.04234591607178599,0.02633369698484636,0.04182964743811269
1.0061206632669486,0.11538472372115638,0.00451779129111896,0.03266210113426135,0.018401544906109058,0.03229568102653994
1.006167745292079,0.08342022676517998,0.0034523335234956103,0.0259645785337829,0.011285915155090455,0.02573683143115947
1.0062148273172093,0.053714935068683495,0.004812968250494066,0.01794830890199036,0.00685200845790771,0.017808956095767447
1.0062619093423397,0.029620632829972474,0.006932175014656842,0.006428025048282717,0.004933520628002468,0.006328708660167675
1.00630899136747,0.012907514843990737,0.009902901587315887,-0.004503164505502606,0.005175854852116024,-0.0046052800100207375
1.0063560733926005,0.004292560353454192,0.014605616700028797,-0.010519166817943732,0.0072944274521512,-0.010662431610635481
1.0064031554177308,0.0038095921685766332,0.020864650909734956,-0.007972360122875525,0.009700912890958306,-0.008164099714115094
1.0064502374428612,0.010924293923755681,0.029840971859438795,0.0013341291502741227,0.015634143143583107,0.0010230275236228902
1.0064973194679916,0.02453035587728399,0.0378912044142536,0.011333716656649779,0.023187512975275472,0.010873283167876517
1.006544401493122,0.042966387475684646,0.04437176401633067,0.020787738978896356,0.030309723337957055,0.020190419434556007
1.0065914835182523,0.06411092062196938,0.04874648408083903,0.03329944681240632,0.03598602257683935,0.032599360756477035
1.0066385655433827,0.08556714248621351,0.05401742853833732,0.049462130528264495,0.0403523584141224,0.048692220869024125
1.006685647568513,0.10493697207975199,0.05650950122977279,0.06485229624100503,0.04334655387628429,0.06404266429054437
1.0067327295936435,0.12014720761669652,0.056953555727571666,0.07640706666955516,0.04448755974691577,0.0755892383050712
1.0067798116187738,0.12974860817624662,0.053536919234811485,0.08294186479002422,0.04360216969103079,0.08214475538568866
1.0068268936439042,0.1331160769266914,0.05012422652891421,0.08436945777741765,0.04057800047782388,0.0836226996361706
1.0068739756690346,0.13051634907150206,0.04496826785233833,0.08386978816652868,0.03677545560924391,0.08318536521080064
1.006921057694165,0.12301693370584733,0.03866446603364539,0.08185258015702256,0.030689967549104746,0.08127017843269368
1.0069681397192953,0.11219272060745543,0.030580873950238625,0.07585112215539112,0.02324652890213395,0.0753980478488571
1.0070152217444257,0.09964098937742749,0.02232088054312357,0.06985230351433948,0.015833728837657293,0.06953458498635263
1.007062303769556,0.08648287672211809,0.015494879148301341,0.06302251331950957,0.00988869008266844,0.06281763497430051
1.0071093857946865,0.07315337862299943,0.010554543698660076,0.053521194673379444,0.0054370272306482805,0.053403744853417943
1.0071564678198168,0.05967551136841471,0.0054068621946291575,0.042771215350936226,0.0013838562180142737,0.04273536090580779
1.0072035498449472,0.046352747241279996,0.001089781228920429,0.029687677967592516,-0.0005592361865898696,0.029692923303537882
1.0072506318700776,0.03458526276589038,-0.0014802782407064288,0.01916866027493343,-0.0006675767406438089,0.019178144674393313
1.007297713895208,0.02727830692374265,-0.0020807485666448416,0.01473006896934623,-0.0003780296456434873,0.014734673232917682
1.0073447959203383,0.0280866607277734,-0.000760223476728473,0.01711698325886342,0.001367878916415468,0.01708641884361624
1.0073918779454687,0.03925806445151868,0.004142765430387535,0.028584290137595406,0.005926928421739556,0.02846139663131317
1.007438959970599,0.059562255279517966,0.01099228623406488,0.043832242766228824,0.012069116390431477,0.043587389396874905
1.0074860419957294,0.08449757331606145,0.017221088893886613,0.058037587268334905,0.019772126039163538,0.0576460795070861
1.0075331240208598,0.10858230355013457,0.02228366540464039,0.06858033205585247,0.026517317283343486,0.06806691041865251
1.0075802060459902,0.12742598805780986,0.02572923048224417,0.07621925524513734,0.031387220734363085,0.07562240469776683
1.0076272880711206,0.13840784538629322,0.02734337827478983,0.07904744927672683,0.0345192127939485,0.0783981248261857
1.007674370096251,0.14057521646913557,0.02658016813058677,0.0769603579802706,0.03599178257212203,0.07628477470317424
1.0077214521213813,0.1345761316442056,0.023928213783837526,0.07084930100861353,0.03519074050201507,0.07018387815373252
1.0077685341465117,0.12269802495893224,0.020095580965454444,0.062425783036096825,0.031018802252561678,0.061829722168960995
