freq,gls,usurper,pdc_unbiased,shape_periodogram,shift_periodogram
1.0,0.02176245538732735,0.027223682047921673,-0.007335655112181927,0.009049754218294076,-0.007704119226417695
1.0000470820251304,0.05134779247241603,0.04156285696928329,0.016081221596065367,0.015590339264044456,0.015424466224788142
1.0000941640502607,0.09689124580742478,0.0574079429439944,0.05094334186944231,0.03043463696566839,0.04966821693583823
1.0001412460753911,0.14848755125694818,0.07463463802569673,0.08456655871201842,0.049121585906683404,0.08258231594053132
1.0001883281005215,0.19664060203551523,0.09134545453817595,0.10917973127593883,0.0703535812520246,0.10648758130938116
1.0002354101256519,0.23592916525893703,0.10373643326366688,0.12678225514793529,0.0871030879254938,0.12361797565120186
1.0002824921507822,0.26363730657080775,0.11033216940086991,0.13936052532630389,0.09765291364632857,0.1359543402273198
1.0003295741759126,0.2780607972143743,0.11458589288331733,0.14663287491158739,0.10436958576959361,0.14309138191072546
1.000376656201043,0.27778293516045677,0.11616172859856688,0.14742341655727248,0.10764666379718954,0.14380417234883816
1.0004237382261734,0.2619162710265795,0.11277588202356476,0.139633635428265,0.10809046863735253,0.13595168583801248
1.0004708202513037,0.23107843684954268,0.10486684983471202,0.12167319492364326,0.10449049584957716,0.11797602093692393
1.0005179022764341,0.1884924826566669,0.09414241462030516,0.09811663264576473,0.09836294470506181,0.09447358073240307
1.0005649843015645,0.1401213853463462,0.08520656018739738,0.07552593926328457,0.09184898379326008,0.07199466177965946
1.0006120663266949,0.09311329616242185,0.0781114226698889,0.056936636782797936,0.08404101073093331,0.0536155610419188
1.0006591483518252,0.05338098213176131,0.07365684779167998,0.04656239048066332,0.07351114305875549,0.043607842023068485
1.0007062303769556,0.024158292773911582,0.06784352758909781,0.0379052596807291,0.06003406201498444,0.0354576148319963
1.000753312402086,0.006389706849983347,0.0608287814631203,0.024925530867037873,0.04404659689778078,0.02310561435705294
1.0008003944272164,4.4957735270936574e-05,0.05634936457451534,0.013623927240606612,0.029957395959777644,0.012378546847667187
1.0008474764523467,0.004476680458159687,0.05232525813732495,0.005279248516488982,0.024650705273632802,0.004256053327164621
1.000894558477477,0.016631009383087918,0.05525859547800884,0.00604487589630294,0.02717927801107983,0.0049169362682074105
1.0009416405026075,0.030279800796216314,0.06561770968131711,0.01614856324889533,0.03672091595672527,0.014625691939962451
1.0009887225277379,0.04019506929021177,0.08091404884194547,0.031662352407458065,0.05343066205348547,0.02946954820703488
1.0010358045528682,0.045271217739530065,0.09370860284973008,0.049643587368788454,0.07341129093568173,0.04669981500566271
1.0010828865779986,0.04665854735345898,0.1019446763254903,0.06394396252727896,0.0921225724613422,0.06035523671118193
1.001129968603129,0.04557434040645729,0.10667414453824413,0.06951556918541625,0.10564854272234533,0.0654793314552257
1.0011770506282593,0.04281463251624272,0.1049905902945791,0.06676401531502141,0.11147801265446151,0.06251115137936022
1.0012241326533897,0.03911406922799136,0.09749683080837934,0.05756222886158259,0.11095130537682296,0.05327110676648633
1.00127121467852,0.035734840091298535,0.08692414911801523,0.04469056838221148,0.1066822165732898,0.04048062925392222
1.0013182967036505,0.034632288517627896,0.07807531205731247,0.03354469161607427,0.10298005739796591,0.029417435550974966
1.0013653787287808,0.03686446430802818,0.07649946661740013,0.03235087082016887,0.1012573914257765,0.02828435379866992
1.0014124607539112,0.040499198873267514,0.08151689281235504,0.04235422606047071,0.102808760312253,0.03827681866388516
1.0014595427790416,0.04245011553894062,0.08801715437400881,0.05148956578485458,0.10567358535054634,0.04735347020633139
1.001506624804172,0.04142424671447975,0.09117712944190765,0.057489670337512934,0.10396429114725528,0.05344727602037523
1.0015537068293023,0.03772147907862947,0.0904993433451148,0.05838903434484734,0.09623540161570637,0.05462891639994328
1.0016007888544327,0.032149333674356434,0.08510702276486788,0.05286952532393206,0.08231907106380519,0.04959943552279314
1.001647870879563,0.025799799790141527,0.07476169367845732,0.040386054375886556,0.06252072867892569,0.03784437753857197
1.0016949529046935,0.020580986012262138,0.05976064910253311,0.02276083148008517,0.041138529430526746,0.021058152316932508
1.0017420349298238,0.01993155776046648,0.04956993092128238,0.008396000375120035,0.02500784261102857,0.007356427254971711
1.0017891169549542,0.027489951613850306,0.047932834668432574,0.00883020356959996,0.02242476167088446,0.007896828066990666
1.0018361989800846,0.042074300128446054,0.05089446952039767,0.022145335055818467,0.030059457788216105,0.020892871572231977
1.001883281005215,0.05845891480384451,0.06106439228264169,0.04104344236602053,0.04563556965679429,0.03916531959974448
1.0019303630303453,0.07582159493280267,0.07436043692116309,0.05832937685591873,0.06401438330857158,0.055757679372479295
1.0019774450554757,0.09824195100672209,0.08425824341085338,0.07041397317164165,0.08332150879576455,0.06716311175403598
1.002024527080606,0.1303669711588208,0.08542773555038935,0.07896421651578898,0.09678350420173651,0.07527918409519271
1.0020716091057364,0.17464242099810953,0.0826559647538975,0.08832693698111686,0.10541789619856877,0.08440527748687608
1.0021186911308668,0.22917237164395338,0.08687929950692724,0.11355266104308831,0.11229689864477074,0.1095807994029859
1.0021657731559972,0.2864808872447173,0.09569779189071836,0.14880372324738836,0.11935909282129284,0.14491236790556358
1.0022128551811276,0.335488571803669,0.10399027570461424,0.17945522269565434,0.1254657086266752,0.1757025737537272
1.002259937206258,0.3667004160945303,0.10881301829301518,0.20044309409803335,0.1284494219801804,0.1968402880725138
1.0023070192313883,0.37630521047742305,0.10950822835728277,0.20989430295355302,0.12737214787838125,0.20639828367595284
1.0023541012565187,0.3658732131217113,0.10627309845441954,0.20800353236518512,0.12248718658132661,0.20455886532307818
1.002401183281649,0.3393357840705059,0.10105252877637345,0.19716291122807472,0.11419745650947342,0.1937620918691208
1.0024482653067794,0.30043566038503033,0.09399031421167012,0.1783931936762516,0.10067259976795212,0.17513489437599294
1.0024953473319098,0.25183659939415354,0.08328335205522745,0.15384153094853617,0.08081419231197781,0.15096689616152456
1.0025424293570402,0.1956066522565673,0.06643032355252425,0.12081929242955049,0.05606866969146639,0.11863088825745682
1.0025895113821706,0.13475970805500284,0.04552066589049056,0.07564140824241966,0.026857835471938787,0.07450176328368176
1.002636593407301,0.07582916802294695,0.027717975070353493,0.025728531183742454,0.0030472110334372536,0.025580665579269312
1.0026836754324313,0.03145358980808763,0.022236006662262,-0.0040036080406334615,-0.0026118197368845708,-0.0038921225974820634
1.0027307574575617,0.01779891286180085,0.03150296346848008,-0.006351274616742859,0.014485511671898365,-0.006945908876877866
1.002777839482692,0.04358985242398123,0.04273129054121455,0.006591376950054447,0.04479174093364057,0.0047371741454123924
1.0028249215078224,0.1037077589167159,0.061928806069011626,0.04281328660270074,0.07371390739510306,0.03984254735342597
1.0028720035329528,0.18101238562213362,0.08699007461927961,0.0979436666785688,0.09514865792183984,0.09440222758902732
1.0029190855580832,0.25636899888384335,0.1102339800635171,0.15380629462607742,0.10845356103047421,0.15020990261002692
1.0029661675832136,0.31832235074100634,0.12740928467042087,0.19704252226634572,0.11347012003192414,0.19365373312657752
1.003013249608344,0.36361141655314383,0.13634869437827704,0.228525784613192,0.11566270499100464,0.22535309540244985
1.0030603316334743,0.39341420767750745,0.14054721992908806,0.24979870354304085,0.11538659880469189,0.24680430240012458
1.0031074136586047,0.4102870696014962,0.14080495526537154,0.26258314989231946,0.1131842469655167,0.25971547941861667
1.003154495683735,0.41662904201390033,0.13867172027023977,0.266777273312063,0.10924514842843955,0.2639815711260886
1.0032015777088654,0.41405085665469693,0.1341701733143609,0.26326150551395927,0.10335916249277932,0.26050600110479405
1.0032486597339958,0.4030953535584088,0.1273033937804654,0.251751202986526,0.09534981690100615,0.24903190892718202
1.0032957417591262,0.38301151602067063,0.11785051620439745,0.2324239377319079,0.085164563192099,0.22977997767136793
1.0033428237842565,0.3514583105172215,0.1053795960054794,0.2047530276495091,0.0725337188734932,0.20227870334582695
1.003389905809387,0.3042863356687068,0.08947698469565757,0.16911475512504195,0.057757093228853695,0.1669553842171951
1.0034369878345173,0.2364892670841809,0.0708194338726308,0.12615890065588273,0.04116034344694676,0.12449319865953257
1.0034840698596477,0.14805992805189566,0.05094658732283005,0.07745804013496241,0.02410300710536254,0.07642566666816172
1.003531151884778,0.05937981673678241,0.0364101362531838,0.035632586371168055,0.010897690502524685,0.035154111987194564
1.0035782339099084,0.016571701488668728,0.03287727378827197,0.012038086514572617,0.005964693682250753,0.01178123170682247
1.0036253159350388,0.04141534161646615,0.04390912599845359,0.014399178728297872,0.014029306084199193,0.013807873293668674
1.0036723979601692,0.0978579156313711,0.06412167359553562,0.03595348541122598,0.03219499229171365,0.03461096600824213
1.0037194799852995,0.14599333246590304,0.08905682409934078,0.06503465797160808,0.05387462771097712,0.06285451111818341
1.00376656201043,0.17300879075255565,0.10813028865602571,0.0922030709843016,0.07448520452577516,0.08932675342161414
1.0038136440355603,0.18229222765708752,0.1210121976601069,0.11374971918924169,0.0876077052987288,0.11051612518277867
1.0038607260606907,0.18262972424027749,0.12704593711048007,0.12736778710133306,0.09713254087331648,0.12391257749695017
1.003907808085821,0.18292620727983336,0.12888747893796862,0.13485525602086357,0.1056900664354313,0.13120577835618819
1.0039548901109514,0.18798821740501145,0.12981432157336362,0.13913083302593265,0.11085852509332943,0.1353742644156287
1.0040019721360818,0.19658928748535154,0.12799677237199364,0.1397247738744464,0.11233627507398898,0.13593477143244437
1.0040490541612122,0.20361099360789395,0.12386259296044913,0.1356935801867525,0.11152695878850213,0.13189590362446607
1.0040961361863425,0.20356945018764083,0.11605227381940406,0.1287855413388881,0.10876131244310641,0.1250144012288218
1.004143218211473,0.19261735903368254,0.10489565512379752,0.11776025800915435,0.10382040908400327,0.11405907852852618
1.0041903002366033,0.1692114287165738,0.09044073136218778,0.09836742477706704,0.09433978769984462,0.09485389233161806
1.0042373822617336,0.13469585530973552,0.07374520433342953,0.07519967777083232,0.08053412222330178,0.07206310016046033
1.004284464286864,0.094068350002802,0.05691182756622983,0.051842634052145065,0.06387637859532524,0.0492657281275964
1.0043315463119944,0.0558705414627791,0.041675994547555786,0.03082107495389939,0.04510545575446323,0.028960267437108094
1.0043786283371248,0.029785725493520713,0.03156331606324089,0.019809015244991575,0.027484635095066094,0.018662469820484816
1.0044257103622551,0.022326134922130727,0.026991823769720733,0.01684685304795892,0.014174160749303001,0.016247799785105592
1.0044727923873855,0.03362727707623793,0.0277452217504673,0.01768087969631584,0.008034086403557485,0.01733401756817675
1.004519874412516,0.057935866130881315,0.033076828454507545,0.0238553638180855,0.00884633347634363,0.023470124165988
1.0045669564376463,0.08691312585069338,0.04293949031516516,0.038233159934289905,0.0177342821885321,0.0374741104532063
1.0046140384627766,0.11302745450084833,0.05594736259566326,0.05542672474865837,0.03439042800077039,0.05399460776333142
1.004661120487907,0.13143773576861661,0.06866675651140247,0.07126698378066398,0.05365398211129066,0.0691015595597521
1.0047082025130374,0.140315951549541,0.07986547574982175,0.0817840112464661,0.07290102604128251,0.07893572696566944
1.0047552845381678,0.14016084842095028,0.08522737144315894,0.0846685751900148,0.08879226958696487,0.08127915087896086
1.0048023665632981,0.13271042804166153,0.08512553534125422,0.08028160564993014,0.09965760854081279,0.07650603640389267
1.0048494485884285,0.1199532079956697,0.08165639257569238,0.06958311394397716,0.10749064359465343,0.0654840409823966
1.0048965306135589,0.10352759540252561,0.07818243871925709,0.05738407400153901,0.11092970948599594,0.053092637548076374
1.0049436126386893,0.08458770500586026,0.07232655741186088,0.04469505929439128,0.10964927011118943,0.04037505866102238
1.0049906946638196,0.06411017510052013,0.06717622452024671,0.03435472552873721,0.10417368856293477,0.030185605477615077
1.00503777668895,0.043500849939608656,0.06027566541685483,0.022887706523455283,0.09535445471018843,0.019011707739871743
1.0050848587140804,0.02497562650004661,0.051742856027712704,0.013888116903115118,0.08274873488713737,0.010488963754459821
1.0051319407392107,0.011013597455985432,0.04439489884710377,0.011624969459267675,0.06815101984832295,0.008815986150076064
1.0051790227643411,0.003334338693202587,0.03709744398066674,0.009001101837417943,0.05112919982442373,0.0068869671313339246
1.0052261047894715,0.0027948227754708652,0.02625843013438259,0.005716764128480125,0.03265318439661106,0.004363116178669374
1.0052731868146019,0.010164673003053454,0.016564597738667898,0.005314070387151807,0.01656396346059909,0.004624792006247019
1.0053202688397322,0.026566180290056158,0.01023012749953811,0.008193549268036414,0.003508471262921909,0.008041421977205135
1.0053673508648626,0.05291846997433676,0.00819379417400839,0.011498759854167706,-0.0029639481324288974,0.011611582426465504
1.005414432889993,0.08828034555015178,0.00927504734294895,0.017065936640710815,-0.004365947077331577,0.01723206450373889
1.0054615149151234,0.12763762777320273,0.012337295471634022,0.025647230237824777,-0.001228290378012675,0.02567607288978129
1.0055085969402537,0.16155770115500132,0.017709168853200462,0.038076850744054896,0.009015969028851444,0.03767355338287815
1.0055556789653841,0.18078890709766565,0.0250517735933229,0.05135766337998839,0.023967020796319464,0.05034034496818378
1.0056027609905145,0.18307418566708303,0.030767349293757455,0.06056084021799014,0.040287357011590405,0.058898695355043086
1.0056498430156449,0.1741533504439713,0.0362712345231509,0.06655908741414072,0.05440559888487949,0.06436048027758472
1.0056969250407752,0.16242605985016223,0.04031696103287863,0.07063087442771013,0.06644520007641243,0.067990593629688
1.0057440070659056,0.15418810481596457,0.04107599680447187,0.07107575192890922,0.07369327907448603,0.06817246781380704
1.005791089091036,0.1523552110015489,0.03903421100491044,0.0660360559428213,0.07606497965470928,0.06303378182099391
1.0058381711161664,0.15691036178882456,0.03810829937712778,0.06130313889977103,0.0757062616887309,0.05830172590301763
1.0058852531412967,0.16538784679386007,0.03911608413262152,0.06307528196508604,0.07343040539685015,0.06016212025097418
1.005932335166427,0.17322460684996496,0.03791448038318631,0.06323184659303546,0.06824060356265715,0.0605109272168756
1.0059794171915575,0.17475929729964576,0.0341436796108889,0.05880087400333982,0.0600232976474626,0.056380680495765
1.0060264992166879,0.16548577922015562,0.02956531181741858,0.05204155960234529,0.05085372757253716,0.04996555104173199
1.0060735812418182,0.1445721481217929,0.0245946624892412,0.04234591607178599,0.03995922277285193,0.04069298733110489
1.0061206632669486,0.11538472372115638,0.020283618612362077,0.03266210113426135,0.02885737564784998,0.0314550160911825
1.006167745292079,0.08342022676517998,0.017912273989069718,0.0259645785337829,0.019987718572690497,0.025121124111215375
1.0062148273172093,0.053714935068683495,0.018723809610410345,0.01794830890199036,0.014478203328451818,0.01733595590026852
1.0062619093423397,0.029620632829972474,0.020332854635621792,0.006428025048282717,0.011745083061300338,0.00593696684691708
1.00630899136747,0.012907514843990737,0.021818359508198385,-0.004503164505502606,0.011429984715623445,-0.004972569087484476
1.0063560733926005,0.004292560353454192,0.024333619016668043,-0.010519166817943732,0.013447404645127118,-0.011067491715483858
1.0064031554177308,0.0038095921685766332,0.02791281245858553,-0.007972360122875525,0.015396806336784674,-0.00860357913058776
1.0064502374428612,0.010924293923755681,0.03600316509073854,0.0013341291502741227,0.022900676815396283,0.0003854997642407651
1.0064973194679916,0.02453035587728399,0.04383116178751612,0.011333716656649779,0.0330946299558986,0.009960302940048349
1.006544401493122,0.042966387475684646,0.050419312999190224,0.020787738978896356,0.0435370938815933,0.018987520813606548
1.0065914835182523,0.06411092062196938,0.054664950464374154,0.03329944681240632,0.05102097255748218,0.031203690640681007
1.0066385655433827,0.08556714248621351,0.06011151267622144,0.049462130528264495,0.056550564009646066,0.04716338720719024
1.006685647568513,0.10493697207975199,0.0631649764339516,0.06485229624100503,0.059577785662180326,0.06245720928974977
1.0067327295936435,0.12014720761669652,0.06367752323224908,0.07640706666955516,0.06014351634267873,0.07400765060941414
1.0067798116187738,0.12974860817624662,0.06111893315611759,0.08294186479002422,0.05789916762159908,0.08063388525181783
1.0068268936439042,0.1331160769266914,0.05880604378179985,0.08436945777741765,0.053217789754173954,0.08223423300331362
1.0068739756690346,0.13051634907150206,0.05371940323738363,0.08386978816652868,0.04784204324026285,0.08193236885683125
1.006921057694165,0.12301693370584733,0.04619167533244892,0.08185258015702256,0.04085508935972747,0.08017553505480735
1.0069681397192953,0.11219272060745543,0.036944679316310354,0.07585112215539112,0.032423127552853766,0.07449521289576466
1.0070152217444257,0.09964098937742749,0.028050177100956454,0.06985230351433948,0.024223209526763413,0.06881776544159139
1.007062303769556,0.08648287672211809,0.0214002658812293,0.06302251331950957,0.017934991857634298,0.06224096463839565
1.0071093857946865,0.07315337862299943,0.017536056823100766,0.053521194673379444,0.01322193319891379,0.05293532349775836
1.0071564678198168,0.05967551136841471,0.014858819386290602,0.042771215350936226,0.009339257275886083,0.04235110164219877
1.0072035498449472,0.046352747241279996,0.012754916339283207,0.029687677967592516,0.0075063914868808215,0.029352905258155967
1.0072506318700776,0.03458526276589038,0.012699225947410474,0.01916866027493343,0.008051226976933204,0.01881989391421751
1.007297713895208,0.02727830692374265,0.014570676463954262,0.01473006896934623,0.00904605671690348,0.014343851889059296
1.0073447959203383,0.0280866607277734,0.019484248380242715,0.01711698325886342,0.012453084779895688,0.01658854671126845
1.0073918779454687,0.03925806445151868,0.030228388791733635,0.028584290137595406,0.02075803686370685,0.02770788393236433
1.007438959970599,0.059562255279517966,0.043825685072045435,0.043832242766228824,0.03130422354408141,0.04252388138011765
1.0074860419957294,0.08449757331606145,0.05654879662565623,0.058037587268334905,0.04328034321210111,0.05625848584423679
1.0075331240208598,0.10858230355013457,0.06690742430911603,0.06858033205585247,0.05476402284713538,0.066370421506104
1.0075802060459902,0.12742598805780986,0.07385316646192842,0.07621925524513734,0.06285065071781946,0.07372050430370847
1.0076272880711206,0.13840784538629322,0.07633615458342101,0.07904744927672683,0.06720560227307316,0.07639612480647126
1.007674370096251,0.14057521646913557,0.07329514878976245,0.0769603579802706,0.06798173554885285,0.07427678329028495
1.0077214521213813,0.1345761316442056,0.06716776680842018,0.07084930100861353,0.06498807454832754,0.06826290782496432
1.0077685341465117,0.12269802495893224,0.05792331647400385,0.062425783036096825,0.05813102249307269,0.060081896539181716
1.007815616171642,0.10844877640211482,0.04820251559808873,0.054884533548136764,0.04762820767619911,0.052935375077777666
