freq,gls,usurper,pdc_unbiased,shape_periodogram,shift_periodogram
1.0,0.02176245538732735,0.023786061564356153,-0.007335655112181927,-0.004470142108945119,-0.007190276051101169
1.0000470820251304,0.05134779247241603,0.039373117629612465,0.016081221596065367,0.004211251648752697,0.015939765285150224
1.0000941640502607,0.09689124580742478,0.05294527691302713,0.05094334186944231,0.020691603048418755,0.05027479396936371
1.0001412460753911,0.14848755125694818,0.0672704898081144,0.08456655871201842,0.03553028424817857,0.08346169336875998
1.0001883281005215,0.19664060203551523,0.07846399755498645,0.10917973127593883,0.04846331241561093,0.10774056124069495
1.0002354101256519,0.23592916525893703,0.08423740210739472,0.12678225514793529,0.057919591136506424,0.12513279655155085
1.0002824921507822,0.26363730657080775,0.08618529629762071,0.13936052532630389,0.06302462640758841,0.13761844610690277
1.0003295741759126,0.2780607972143743,0.08692201520226854,0.14663287491158739,0.06610946226187288,0.144840511591735
1.000376656201043,0.27778293516045677,0.08688337671055757,0.14742341655727248,0.06725237008999924,0.14560875539622087
1.0004237382261734,0.2619162710265795,0.0838788932850021,0.139633635428265,0.06701793524056787,0.13780410839774243
1.0004708202513037,0.23107843684954268,0.07705019236211517,0.12167319492364326,0.06489683966376447,0.11984843771022397
1.0005179022764341,0.1884924826566669,0.06799320831986874,0.09811663264576473,0.06116427323553324,0.09633397657191961
1.0005649843015645,0.1401213853463462,0.06058482971843109,0.07552593926328457,0.05681801675047033,0.07381978360932526
1.0006120663266949,0.09311329616242185,0.05564120267423907,0.056936636782797936,0.05099806620947004,0.055370127191528916
1.0006591483518252,0.05338098213176131,0.05450653028646653,0.04656239048066332,0.04297087834925051,0.0452221645336731
1.0007062303769556,0.024158292773911582,0.05311353317932618,0.0379052596807291,0.03271048788494188,0.036870670714856016
1.000753312402086,0.006389706849983347,0.048868043553501425,0.024925530867037873,0.02106928619593429,0.02425076578563816
1.0008003944272164,4.4957735270936574e-05,0.04699822676889349,0.013623927240606612,0.010677570969253244,0.013279280902106947
1.0008474764523467,0.004476680458159687,0.04298690950046464,0.005279248516488982,0.006567842669236406,0.005068409176879064
1.000894558477477,0.016631009383087918,0.043379825008551295,0.00604487589630294,0.007645595351632444,0.005799534731741451
1.0009416405026075,0.030279800796216314,0.05096303978290193,0.01614856324889533,0.01329708835050692,0.015720270118942236
1.0009887225277379,0.04019506929021177,0.06345915670276137,0.031662352407458065,0.023873128544083556,0.030899204305466756
1.0010358045528682,0.045271217739530065,0.07489932431785731,0.049643587368788454,0.03635553547132242,0.04850179341955087
1.0010828865779986,0.04665854735345898,0.07795351720292443,0.06394396252727896,0.048931993690008654,0.06244381316439923
1.001129968603129,0.04557434040645729,0.0773224776779005,0.06951556918541625,0.059277309788127897,0.06773256281472613
1.0011770506282593,0.04281463251624272,0.07106102103253625,0.06676401531502141,0.0657629705362405,0.06479805585750228
1.0012241326533897,0.03911406922799136,0.06254387560818467,0.05756222886158259,0.06929903143421533,0.055478986495382916
1.00127121467852,0.035734840091298535,0.05367449006808806,0.04469056838221148,0.07050946045488853,0.04254395768040768
1.0013182967036505,0.034632288517627896,0.046784301546514986,0.03354469161607427,0.07166862555125943,0.03133892873653062
1.0013653787287808,0.03686446430802818,0.04982438559379556,0.03235087082016887,0.07287892229221045,0.030106592959093802
1.0014124607539112,0.040499198873267514,0.0586964508621357,0.04235422606047071,0.07453607818312379,0.040086354739343244
1.0014595427790416,0.04245011553894062,0.06629174009339801,0.05148956578485458,0.07448917499444978,0.04924672601683267
1.001506624804172,0.04142424671447975,0.07041468803528765,0.057489670337512934,0.07057752238286762,0.055370765221201955
1.0015537068293023,0.03772147907862947,0.06963641236083475,0.05838903434484734,0.06336877678338755,0.056473050746630324
1.0016007888544327,0.032149333674356434,0.06622035928223252,0.05286952532393206,0.05163288674482965,0.05128031557013401
1.001647870879563,0.025799799790141527,0.05974746347080358,0.040386054375886556,0.03676873924324153,0.03922889156803758
1.0016949529046935,0.020580986012262138,0.049722002810023244,0.02276083148008517,0.020885691690321402,0.022092306693058873
1.0017420349298238,0.01993155776046648,0.04128026939595387,0.008396000375120035,0.008751810290913268,0.00811454952494446
1.0017891169549542,0.027489951613850306,0.03895776380299062,0.00883020356959996,0.005881671525522823,0.008639393401536605
1.0018361989800846,0.042074300128446054,0.03934704460706141,0.022145335055818467,0.010799417881087996,0.02179321106810642
1.001883281005215,0.05845891480384451,0.044217638247265656,0.04104344236602053,0.020788101490170078,0.040373875800402914
1.0019303630303453,0.07582159493280267,0.05330493682309354,0.05832937685591873,0.03171643413958813,0.05732801954199372
1.0019774450554757,0.09824195100672209,0.06171626669134313,0.07041397317164165,0.04174020773059597,0.06912451773769995
1.002024527080606,0.1303669711588208,0.06238033532299947,0.07896421651578898,0.04993424385471638,0.0774515839871306
1.0020716091057364,0.17464242099810953,0.05774870232375589,0.08832693698111686,0.05519891594547458,0.08668339599555668
1.0021186911308668,0.22917237164395338,0.06136400694507846,0.11355266104308831,0.05852946905327396,0.11186455250346487
1.0021657731559972,0.2864808872447173,0.07027924113262304,0.14880372324738836,0.061357043579491594,0.14711917658556925
1.0022128551811276,0.335488571803669,0.07863938189519189,0.17945522269565434,0.06324726192491469,0.17780171131327258
1.002259937206258,0.3667004160945303,0.08399925119921074,0.20044309409803335,0.06344437485610109,0.19883774601487186
1.0023070192313883,0.37630521047742305,0.08575626506227078,0.20989430295355302,0.061540978338086784,0.20834571722993958
1.0023541012565187,0.3658732131217113,0.0836843514421432,0.20800353236518512,0.05757827967055295,0.20652150496080424
1.002401183281649,0.3393357840705059,0.07785615440366883,0.19716291122807472,0.051242521937598394,0.19578280442412066
1.0024482653067794,0.30043566038503033,0.06966856104852842,0.1783931936762516,0.0420968988870489,0.17718604965041065
1.0024953473319098,0.25183659939415354,0.05989568276390831,0.15384153094853617,0.030103100482618914,0.15291238033215956
1.0025424293570402,0.1956066522565673,0.04756283172786819,0.12081929242955049,0.018026668952762375,0.12021933355747205
1.0025895113821706,0.13475970805500284,0.03077365621565996,0.07564140824241966,0.005862520666355713,0.0754205187101822
1.002636593407301,0.07582916802294695,0.01395155958445836,0.025728531183742454,-0.0023093229489315826,0.02578883363117912
1.0026836754324313,0.03145358980808763,0.01237055784636966,-0.0040036080406334615,-0.0025953313584671737,-0.00391929736277293
1.0027307574575617,0.01779891286180085,0.025573814408860453,-0.006351274616742859,0.008958561843301146,-0.006632451652505713
1.002777839482692,0.04358985242398123,0.03241029102203232,0.006591376950054447,0.027213495813420127,0.005727146310010884
1.0028249215078224,0.1037077589167159,0.04083475993604016,0.04281328660270074,0.04349373025938646,0.041455198784521564
1.0028720035329528,0.18101238562213362,0.05607007100814211,0.0979436666785688,0.05631972160650129,0.09628523907310498
1.0029190855580832,0.25636899888384335,0.07641244854094639,0.15380629462607742,0.06473225419110577,0.1520607391782413
1.0029661675832136,0.31832235074100634,0.09678706399267532,0.19704252226634572,0.06375165836729779,0.19542311084135816
1.003013249608344,0.36361141655314383,0.10647237414391998,0.228525784613192,0.062159437439101024,0.22701290518273518
1.0030603316334743,0.39341420767750745,0.11255031310495851,0.24979870354304085,0.06141304037669051,0.2483511010438766
1.0031074136586047,0.4102870696014962,0.1145918213437632,0.26258314989231946,0.05944421127222892,0.2611955185775692
1.003154495683735,0.41662904201390033,0.1142114789343394,0.266777273312063,0.05687302268474857,0.2654360912266416
1.0032015777088654,0.41405085665469693,0.1115605976349489,0.26326150551395927,0.05312571657905711,0.26196891140917994
1.0032486597339958,0.4030953535584088,0.10663672140417604,0.251751202986526,0.04812216168401457,0.2505202879405324
1.0032957417591262,0.38301151602067063,0.09937909503946397,0.2324239377319079,0.04196063684964509,0.23128106131262954
1.0033428237842565,0.3514583105172215,0.08931574247703027,0.2047530276495091,0.03435512674129229,0.20374743893682132
1.003389905809387,0.3042863356687068,0.07612396353470213,0.16911475512504195,0.025445581841840467,0.16831223474689472
1.0034369878345173,0.2364892670841809,0.06042812058188462,0.12615890065588273,0.015610196905265503,0.12562814406434486
1.0034840698596477,0.14805992805189566,0.042986506275976714,0.07745804013496241,0.0060976949570681034,0.07722907646439545
1.003531151884778,0.05937981673678241,0.029394953408647225,0.035632586371168055,-0.0007710226567712078,0.035639101143977954
1.0035782339099084,0.016571701488668728,0.024375375326868797,0.012038086514572617,-0.002791980254461252,0.012120607988977931
1.0036253159350388,0.04141534161646615,0.031029410363257674,0.014399178728297872,0.002515603724264434,0.014312223325196717
1.0036723979601692,0.0978579156313711,0.04316204780680973,0.03595348541122598,0.011650110848404492,0.035569053937419916
1.0037194799852995,0.14599333246590304,0.057286265766915416,0.06503465797160808,0.02434594574164282,0.06425373804512244
1.00376656201043,0.17300879075255565,0.0693200752664106,0.0922030709843016,0.0376583724143767,0.09104176733554635
1.0038136440355603,0.18229222765708752,0.0794838638534987,0.11374971918924169,0.04846053985116298,0.11231590536318893
1.0038607260606907,0.18262972424027749,0.08624623723198646,0.12736778710133306,0.05981831082730994,0.1256743669937582
1.003907808085821,0.18292620727983336,0.08930772339683876,0.13485525602086357,0.07053283368992724,0.13293664497447938
1.0039548901109514,0.18798821740501145,0.09110148055629815,0.13913083302593265,0.07602989857939743,0.13710875620983257
1.0040019721360818,0.19658928748535154,0.09080218982666557,0.1397247738744464,0.0775917075665987,0.13767265784432434
1.0040490541612122,0.20361099360789395,0.09160959989657609,0.1356935801867525,0.07621752664891934,0.13365642255033783
1.0040961361863425,0.20356945018764083,0.08964601643291507,0.1287855413388881,0.07342782182199192,0.1267864485808775
1.004143218211473,0.19261735903368254,0.08128640351389498,0.11776025800915435,0.067623382502667,0.115862438830337
1.0041903002366033,0.1692114287165738,0.06950366977452799,0.09836742477706704,0.060193565654920046,0.09660999973228711
1.0042373822617336,0.13469585530973552,0.05567759390351113,0.07519967777083232,0.05111782381513648,0.07365003737065157
1.004284464286864,0.094068350002802,0.04298956236420868,0.051842634052145065,0.03916250526732364,0.05061818505635589
1.0043315463119944,0.0558705414627791,0.03245807370801405,0.03082107495389939,0.025622719320125734,0.0300039199909223
1.0043786283371248,0.029785725493520713,0.025936844718959174,0.019809015244991575,0.01280131219841446,0.019394878653164572
1.0044257103622551,0.022326134922130727,0.02374135352483969,0.01684685304795892,0.0027173548325899756,0.016752296991706387
1.0044727923873855,0.03362727707623793,0.024947107349243814,0.01768087969631584,-0.002474050712601111,0.017750470705836817
1.004519874412516,0.057935866130881315,0.029182302173250216,0.0238553638180855,-0.0028182752525760433,0.023932771051471024
1.0045669564376463,0.08691312585069338,0.036569044726596764,0.038233159934289905,0.0020842035600930997,0.038148080554712964
1.0046140384627766,0.11302745450084833,0.04576587848228244,0.05542672474865837,0.011938609791408778,0.0550259301346582
1.004661120487907,0.13143773576861661,0.05313948865181256,0.07126698378066398,0.022948574254168602,0.07052745038061348
1.0047082025130374,0.140315951549541,0.05844790460517904,0.0817840112464661,0.03363847652298582,0.08073221817539247
1.0047552845381678,0.14016084842095028,0.05987880670885917,0.0846685751900148,0.04297166616752789,0.08335427018270336
1.0048023665632981,0.13271042804166153,0.057178239199415025,0.08028160564993014,0.04912772054544144,0.07879266691597257
1.0048494485884285,0.1199532079956697,0.052521361156261576,0.06958311394397716,0.05480994727847262,0.0679238833637004
1.0048965306135589,0.10352759540252561,0.046138576429072445,0.05738407400153901,0.05751821986091257,0.05563162076658681
1.0049436126386893,0.08458770500586026,0.038186653162325224,0.04469505929439128,0.05771444949631366,0.042918851569988224
1.0049906946638196,0.06411017510052013,0.030892895888961238,0.03435472552873721,0.055888788061143786,0.03261883632586104
1.00503777668895,0.043500849939608656,0.024813100117964466,0.022887706523455283,0.05169735678411105,0.021266221124050168
1.0050848587140804,0.02497562650004661,0.01961632600590114,0.013888116903115118,0.045200381647027714,0.012460693143617838
1.0051319407392107,0.011013597455985432,0.017207821752114865,0.011624969459267675,0.03769464962465896,0.010431254505248781
1.0051790227643411,0.003334338693202587,0.014131836376161125,0.009001101837417943,0.028889950114831836,0.00808379398330696
1.0052261047894715,0.0027948227754708652,0.010205611148908247,0.005716764128480125,0.02082531064414696,0.005054531582268095
1.0052731868146019,0.010164673003053454,0.006749638526098536,0.005314070387151807,0.012090068308103328,0.004928331900053858
1.0053202688397322,0.026566180290056158,0.005044399129724142,0.008193549268036414,0.0037789756042516803,0.008069645741251292
1.0053673508648626,0.05291846997433676,0.005750459041645129,0.011498759854167706,-0.0010012736988422792,0.011524731275195148
1.005414432889993,0.08828034555015178,0.010132817957459626,0.017065936640710815,-0.003269067168998715,0.01716107969500893
1.0054615149151234,0.12763762777320273,0.014803093454738035,0.025647230237824777,-0.003286728982628264,0.025738612169663146
1.0055085969402537,0.16155770115500132,0.02001247042550934,0.038076850744054896,0.0014375859546033652,0.0380122682461764
1.0055556789653841,0.18078890709766565,0.024873156838578565,0.05135766337998839,0.010261916464625417,0.05101039187357577
1.0056027609905145,0.18307418566708303,0.028071447698140142,0.06056084021799014,0.02107499685191459,0.059878967286260625
1.0056498430156449,0.1741533504439713,0.029922976878403968,0.06655908741414072,0.028758829821571512,0.06564665890052578
1.0056969250407752,0.16242605985016223,0.030823261212784697,0.07063087442771013,0.03492020324083291,0.0695383615315293
1.0057440070659056,0.15418810481596457,0.030682127985004082,0.07107575192890922,0.03837415513875563,0.06988339634706466
1.005791089091036,0.1523552110015489,0.029036836771457814,0.0660360559428213,0.03878275351460859,0.06482942265287861
1.0058381711161664,0.15691036178882456,0.02774467501488953,0.06130313889977103,0.03808798571732019,0.060114568833606684
1.0058852531412967,0.16538784679386007,0.02932821035601342,0.06307528196508604,0.037232966321761936,0.06191248955413382
1.005932335166427,0.17322460684996496,0.027837428760485984,0.06323184659303546,0.03494571896471336,0.062136173767325095
1.0059794171915575,0.17475929729964576,0.024834061514740054,0.05880087400333982,0.031137266051251854,0.057816835061837504
1.0060264992166879,0.16548577922015562,0.02142311188374071,0.05204155960234529,0.026288814298347556,0.051202669622273926
1.0060735812418182,0.1445721481217929,0.01746945097041254,0.04234591607178599,0.01987924960686994,0.041704070003611135
1.0061206632669486,0.11538472372115638,0.014731261603364179,0.03266210113426135,0.011919654889044878,0.032270539272638184
1.006167745292079,0.08342022676517998,0.011421059865905043,0.0259645785337829,0.004875047438121988,0.02579737348374271
1.0062148273172093,0.053714935068683495,0.009781799341382895,0.01794830890199036,-0.00032122996519302026,0.017949466693840163
1.0062619093423397,0.029620632829972474,0.008234818791400486,0.006428025048282717,-0.0028924014405135264,0.006516546487512225
1.00630899136747,0.012907514843990737,0.007839222240859362,-0.004503164505502606,-0.0013114122250297748,-0.004459312409939336
1.0063560733926005,0.004292560353454192,0.008774965669892644,-0.010519166817943732,0.0034551174488930453,-0.0106235009026028
1.0064031554177308,0.0038095921685766332,0.01185664541929715,-0.007972360122875525,0.009627005456485994,-0.008274026701969263
1.0064502374428612,0.010924293923755681,0.01902451860787513,0.0013341291502741227,0.02023460675759665,0.000691853370634935
1.0064973194679916,0.02453035587728399,0.026078641157637097,0.011333716656649779,0.0312686564442867,0.010341550972876248
1.006544401493122,0.042966387475684646,0.031752455837910865,0.020787738978896356,0.0418967488632497,0.01946640931473493
1.0065914835182523,0.06411092062196938,0.036250774357883,0.03329944681240632,0.047481369921846935,0.03181506376423249
1.0066385655433827,0.08556714248621351,0.040467919116781555,0.049462130528264495,0.048348537041529444,0.04796533079569974
1.006685647568513,0.10493697207975199,0.04383650054982452,0.06485229624100503,0.046350561144696746,0.0634267285457983
1.0067327295936435,0.12014720761669652,0.04541729155249646,0.07640706666955516,0.04257299129600388,0.0750979301117522
1.0067798116187738,0.12974860817624662,0.04586957256094255,0.08294186479002422,0.0370986311978235,0.08179169930688997
1.0068268936439042,0.1331160769266914,0.04671098429666779,0.08436945777741765,0.0309996519124075,0.08339430211956124
1.0068739756690346,0.13051634907150206,0.04440477694922087,0.08386978816652868,0.02431384771862796,0.08308920568962624
1.006921057694165,0.12301693370584733,0.03883064544045467,0.08185258015702256,0.01947329017469074,0.08121552018943683
1.0069681397192953,0.11219272060745543,0.03180806165042231,0.07585112215539112,0.014939835058077035,0.07535177808569325
1.0070152217444257,0.09964098937742749,0.025886015787833713,0.06985230351433948,0.010798708193058847,0.06948137115656376
1.007062303769556,0.08648287672211809,0.02107420790448862,0.06302251331950957,0.007291468053444551,0.06276271568382477
1.0071093857946865,0.07315337862299943,0.01819191390430105,0.053521194673379444,0.004065348218252642,0.0533664050776693
1.0071564678198168,0.05967551136841471,0.016536094159737714,0.042771215350936226,0.0013230063308825562,0.04270793087279804
1.0072035498449472,0.046352747241279996,0.012895499763613085,0.029687677967592516,-0.0011814801780997775,0.029710198720702324
1.0072506318700776,0.03458526276589038,0.01049089535489784,0.01916866027493343,-0.001901245012344902,0.01921932091437591
1.007297713895208,0.02727830692374265,0.009497027358433496,0.01473006896934623,-0.00200976049271293,0.014786409768492942
1.0073447959203383,0.0280866607277734,0.011318849336820676,0.01711698325886342,-0.0013295624022906516,0.017150539061104534
1.0073918779454687,0.03925806445151868,0.017664262841091523,0.028584290137595406,0.0015696119366136881,0.028520237498112767
1.007438959970599,0.059562255279517966,0.025852928454203897,0.043832242766228824,0.0051745449129935155,0.043647176260786354
1.0074860419957294,0.08449757331606145,0.0333249295037827,0.058037587268334905,0.009403801805945739,0.057714284445925586
1.0075331240208598,0.10858230355013457,0.03874052872372759,0.06858033205585247,0.01512874305231716,0.06807729053445731
1.0075802060459902,0.12742598805780986,0.04258647657402791,0.07621925524513734,0.019509978102605702,0.07558200923531529
1.0076272880711206,0.13840784538629322,0.04301315773932424,0.07904744927672683,0.022504379361624697,0.07832052479360475
1.007674370096251,0.14057521646913557,0.04046727539160926,0.0769603579802706,0.02526760275470347,0.07615170272754695
1.0077214521213813,0.1345761316442056,0.037345740997894686,0.07084930100861353,0.026068441918227152,0.07001688653840038
1.0077685341465117,0.12269802495893224,0.032500292088193994,0.062425783036096825,0.02492724669233616,0.061627556924124555
