freq,gls,usurper,pdc_unbiased,shape_periodogram,shift_periodogram
1.0,0.02176245538732735,0.0044130772681096045,-0.007335655112181927,-0.004941311687573521,-0.007201783324132791
1.0000470820251304,0.05134779247241603,0.018128877622970576,0.016081221596065367,0.003439307858230611,0.015984225425281162
1.0000941640502607,0.09689124580742478,0.032549690595346,0.05094334186944231,0.01555717313363247,0.050519446886924196
1.0001412460753911,0.14848755125694818,0.049640219385824066,0.08456655871201842,0.02603935089368932,0.08388014720896218
1.0001883281005215,0.19664060203551523,0.06408961818591313,0.10917973127593883,0.03524951756178123,0.10828746248288622
1.0002354101256519,0.23592916525893703,0.07303821434627329,0.12678225514793529,0.04206808437997977,0.12575585007355178
1.0002824921507822,0.26363730657080775,0.07843257720189543,0.13936052532630389,0.04621336177966048,0.13826371497944182
1.0003295741759126,0.2780607972143743,0.08115366740436725,0.14663287491158739,0.04937313946312113,0.14548484746163057
1.000376656201043,0.27778293516045677,0.0813521123923131,0.14742341655727248,0.05131870819743743,0.14624039729799948
1.0004237382261734,0.2619162710265795,0.07835300619321212,0.139633635428265,0.05195740426104949,0.13842700953995196
1.0004708202513037,0.23107843684954268,0.0712656311320174,0.12167319492364326,0.05083667557072661,0.12046226401713536
1.0005179022764341,0.1884924826566669,0.0613804759404542,0.09811663264576473,0.048679339020689986,0.09692023650928513
1.0005649843015645,0.1401213853463462,0.05228341282673631,0.07552593926328457,0.04575119344181205,0.07437065030063995
1.0006120663266949,0.09311329616242185,0.045548878200032616,0.056936636782797936,0.04201231337751261,0.055854051309747896
1.0006591483518252,0.05338098213176131,0.04309002123545365,0.04656239048066332,0.03464689039367023,0.04565507924942758
1.0007062303769556,0.024158292773911582,0.04047484326894739,0.0379052596807291,0.025193003515074107,0.03723527922409956
1.000753312402086,0.006389706849983347,0.03488332225409582,0.024925530867037873,0.014313110131997325,0.02453903655724813
1.0008003944272164,4.4957735270936574e-05,0.03171107615999797,0.013623927240606612,0.0028390017588290225,0.01354370549563033
1.0008474764523467,0.004476680458159687,0.02879875476125968,0.005279248516488982,-0.0012932490715605158,0.005311769534401074
1.000894558477477,0.016631009383087918,0.02672343865154102,0.00604487589630294,0.0006112229147573688,0.006026490188960808
1.0009416405026075,0.030279800796216314,0.03163686122786752,0.01614856324889533,0.006162737986362366,0.01597937115277879
1.0009887225277379,0.04019506929021177,0.0401962014532951,0.031662352407458065,0.014489502337393852,0.03126978250513874
1.0010358045528682,0.045271217739530065,0.05016798326584883,0.049643587368788454,0.023650063980719983,0.0490132539271214
1.0010828865779986,0.04665854735345898,0.05257100320098062,0.06394396252727896,0.031609524859614276,0.06311752582814768
1.001129968603129,0.04557434040645729,0.050666123445275005,0.06951556918541625,0.03796241423794909,0.06853815875654615
1.0011770506282593,0.04281463251624272,0.04377994911302092,0.06676401531502141,0.0418568882926763,0.0656922781196678
1.0012241326533897,0.03911406922799136,0.03570441004464707,0.05756222886158259,0.04443727576157177,0.056421774028861726
1.00127121467852,0.035734840091298535,0.027312503814142842,0.04469056838221148,0.04534145638398588,0.04351746839566094
1.0013182967036505,0.034632288517627896,0.020065345689441867,0.03354469161607427,0.045856644063164205,0.032349611323945246
1.0013653787287808,0.03686446430802818,0.022771600532548366,0.03235087082016887,0.04651088613330924,0.031138371351056803
1.0014124607539112,0.040499198873267514,0.032921580679959324,0.04235422606047071,0.04685988529625173,0.04114176430248838
1.0014595427790416,0.04245011553894062,0.04279754991903589,0.05148956578485458,0.04591527369077978,0.05030829922771592
1.001506624804172,0.04142424671447975,0.05024230286976323,0.057489670337512934,0.04262353622216777,0.05639274895727982
1.0015537068293023,0.03772147907862947,0.05238298890680471,0.05838903434484734,0.03722844910702301,0.057423297936657104
1.0016007888544327,0.032149333674356434,0.05093617461699916,0.05286952532393206,0.029061364210073642,0.05210335466317245
1.001647870879563,0.025799799790141527,0.04477682861793159,0.040386054375886556,0.018980023970642988,0.03987555933752126
1.0016949529046935,0.020580986012262138,0.035921334226324715,0.02276083148008517,0.007933057247180202,0.022542740718565477
1.0017420349298238,0.01993155776046648,0.027263780595606284,0.008396000375120035,-0.0010798047339956615,0.008421743670962262
1.0017891169549542,0.027489951613850306,0.0252323725404722,0.00883020356959996,-0.0017778273771455995,0.008874358671935296
1.0018361989800846,0.042074300128446054,0.026630077937197162,0.022145335055818467,0.00222550163231205,0.02207843784824969
1.001883281005215,0.05845891480384451,0.03236766123325939,0.04104344236602053,0.010532864822858125,0.04075187407445178
1.0019303630303453,0.07582159493280267,0.0398902802791884,0.05832937685591873,0.020151095085948825,0.0577874600925188
1.0019774450554757,0.09824195100672209,0.048205011577921855,0.07041397317164165,0.031636883200855545,0.06958889507419207
1.002024527080606,0.1303669711588208,0.049878993489437015,0.07896421651578898,0.0402439001885658,0.07793910009732621
1.0020716091057364,0.17464242099810953,0.04776287805298229,0.08832693698111686,0.04615160903273082,0.08717521210843708
1.0021186911308668,0.22917237164395338,0.05455907457679052,0.11355266104308831,0.048800887836250716,0.11237246324524251
1.0021657731559972,0.2864808872447173,0.06686389769194767,0.14880372324738836,0.05067661273084005,0.1476345726553849
1.0022128551811276,0.335488571803669,0.07811928728800108,0.17945522269565434,0.051400138747307506,0.17832042598766662
1.002259937206258,0.3667004160945303,0.08604996663252104,0.20044309409803335,0.05069198879511788,0.19935329087414885
1.0023070192313883,0.37630521047742305,0.08971469826189192,0.20989430295355302,0.04796700818340247,0.20886081346968122
1.0023541012565187,0.3658732131217113,0.08881728951282879,0.20800353236518512,0.04331431875708393,0.2070410494974662
1.002401183281649,0.3393357840705059,0.08296461600769219,0.19716291122807472,0.03701323989824173,0.19629768002281955
1.0024482653067794,0.30043566038503033,0.07421873222245308,0.1783931936762516,0.02883600126466469,0.17767314624398692
1.0024953473319098,0.25183659939415354,0.06364259701206863,0.15384153094853617,0.019158112335020957,0.15332445199859976
1.0025424293570402,0.1956066522565673,0.05010611546880436,0.12081929242955049,0.009716845564849442,0.12053008627710755
1.0025895113821706,0.13475970805500284,0.030900639073831452,0.07564140824241966,0.0006479610840980176,0.07559775683078233
1.002636593407301,0.07582916802294695,0.012011580962387101,0.025728531183742454,-0.004901464285526689,0.025849939875430623
1.0026836754324313,0.03145358980808763,0.006149869781371325,-0.0040036080406334615,-0.00537387496098954,-0.0038593739909126446
1.0027307574575617,0.01779891286180085,0.014492501332064579,-0.006351274616742859,0.004067639395213007,-0.006457224521214873
1.002777839482692,0.04358985242398123,0.023288349142392275,0.006591376950054447,0.019915109709837463,0.006060788092327942
1.0028249215078224,0.1037077589167159,0.03619323443038019,0.04281328660270074,0.031853470396177586,0.04197481878784676
1.0028720035329528,0.18101238562213362,0.05512613979264952,0.0979436666785688,0.042265499985186666,0.09688734548655875
1.0029190855580832,0.25636899888384335,0.07897723470141699,0.15380629462607742,0.04886858107260065,0.1526775168658058
1.0029661675832136,0.31832235074100634,0.09983503182636234,0.19704252226634572,0.05185650136933501,0.19592928853246788
1.003013249608344,0.36361141655314383,0.11127952248683372,0.228525784613192,0.05550786493607005,0.22741927227922704
1.0030603316334743,0.39341420767750745,0.11881788802544851,0.24979870354304085,0.05723090515147594,0.24871609805445818
1.0031074136586047,0.4102870696014962,0.12255333789686333,0.26258314989231946,0.057199026276285696,0.2615285547499603
1.003154495683735,0.41662904201390033,0.12332740751000548,0.266777273312063,0.05614273916956683,0.2657422005508353
1.0032015777088654,0.41405085665469693,0.12134513245413941,0.26326150551395927,0.054105644297763315,0.2622402430734234
1.0032486597339958,0.4030953535584088,0.11653776848340576,0.251751202986526,0.05109920706616606,0.25074265960591985
1.0032957417591262,0.38301151602067063,0.10873438723342797,0.2324239377319079,0.046817014392100925,0.23144061030216928
1.0033428237842565,0.3514583105172215,0.09722665010851211,0.2047530276495091,0.0407768308032958,0.2038291014078856
1.003389905809387,0.3042863356687068,0.08152917891611769,0.16911475512504195,0.03327688050536102,0.16829997332509825
1.0034369878345173,0.2364892670841809,0.06223568422414795,0.12615890065588273,0.024170212708787542,0.12552367466594305
1.0034840698596477,0.14805992805189566,0.04050699217558571,0.07745804013496241,0.014891462644769852,0.07704692564886394
1.003531151884778,0.05937981673678241,0.022413270092230077,0.035632586371168055,0.007318057222962226,0.03542675280281858
1.0035782339099084,0.016571701488668728,0.013349245260893011,0.012038086514572617,0.002844006190312641,0.011958281269052205
1.0036253159350388,0.04141534161646615,0.016782901227711432,0.014399178728297872,0.003168778395117593,0.014309937560637724
1.0036723979601692,0.0978579156313711,0.024672717978171756,0.03595348541122598,0.006184308285376171,0.035777367087766965
1.0037194799852995,0.14599333246590304,0.034175207146654556,0.06503465797160808,0.011695395775714849,0.06470718064470747
1.00376656201043,0.17300879075255565,0.04444553041684975,0.0922030709843016,0.01763715006138611,0.09172190599481307
1.0038136440355603,0.18229222765708752,0.054128523910451615,0.11374971918924169,0.021709463833649946,0.1131702611589613
1.0038607260606907,0.18262972424027749,0.0625569009641212,0.12736778710133306,0.02817479174773886,0.12664190233907005
1.003907808085821,0.18292620727983336,0.06765377560326151,0.13485525602086357,0.036084527832622254,0.13396058702215813
1.0039548901109514,0.18798821740501145,0.07153868422026263,0.13913083302593265,0.04218868053959283,0.13811367235904973
1.0040019721360818,0.19658928748535154,0.07034278193749718,0.1397247738744464,0.04623854284762555,0.13862790181911322
1.0040490541612122,0.20361099360789395,0.07055855175331048,0.1356935801867525,0.04857105461762768,0.1345461947678844
1.0040961361863425,0.20356945018764083,0.06876005697724441,0.1287855413388881,0.05007337613974343,0.12759954208829755
1.004143218211473,0.19261735903368254,0.061296853664174346,0.11776025800915435,0.04948148516701618,0.11657143151341447
1.0041903002366033,0.1692114287165738,0.05035053892173279,0.09836742477706704,0.046574031785334244,0.09721689719122592
1.0042373822617336,0.13469585530973552,0.03745705178417773,0.07519967777083232,0.04139616856383613,0.07414501353204171
1.004284464286864,0.094068350002802,0.025798584134173796,0.051842634052145065,0.03345935624553092,0.05096674034290915
1.0043315463119944,0.0558705414627791,0.016408193300462,0.03082107495389939,0.02366728370340873,0.03019026281966148
1.0043786283371248,0.029785725493520713,0.010493936327525395,0.019809015244991575,0.014499990016432094,0.01941876019247908
1.0044257103622551,0.022326134922130727,0.008021558939428967,0.01684685304795892,0.006903241791339209,0.016657833442647083
1.0044727923873855,0.03362727707623793,0.008305209043256446,0.01768087969631584,0.0031832139527087065,0.017590126207577314
1.004519874412516,0.057935866130881315,0.011484640952597125,0.0238553638180855,0.0031138001438681846,0.023764332921227184
1.0045669564376463,0.08691312585069338,0.01712824912734658,0.038233159934289905,0.00635983529593557,0.03805170907031208
1.0046140384627766,0.11302745450084833,0.02431562564567164,0.05542672474865837,0.01321369579960044,0.05506227115999677
1.004661120487907,0.13143773576861661,0.030010352197760406,0.07126698378066398,0.019415390115055196,0.07074287669477955
1.0047082025130374,0.140315951549541,0.034253181687938054,0.0817840112464661,0.024165560796088906,0.08114271290366638
1.0047552845381678,0.14016084842095028,0.03526689841319059,0.0846685751900148,0.026693769422751062,0.08396639817535663
1.0048023665632981,0.13271042804166153,0.034219956790649146,0.08028160564993014,0.026802143450279325,0.07957602591953955
1.0048494485884285,0.1199532079956697,0.03170384337856559,0.06958311394397716,0.027553262335445763,0.068857336590508
1.0048965306135589,0.10352759540252561,0.026507004609402238,0.05738407400153901,0.027405686291891353,0.05665996874655413
1.0049436126386893,0.08458770500586026,0.018169189633919308,0.04469505929439128,0.025864040917911665,0.04400835131643815
1.0049906946638196,0.06411017510052013,0.010815755020867249,0.03435472552873721,0.02254323148080941,0.03375283695778485
1.00503777668895,0.043500849939608656,0.005508058706451362,0.022887706523455283,0.018165796145580244,0.02240070276141218
1.0050848587140804,0.02497562650004661,0.0010558375725406857,0.013888116903115118,0.014045420884854455,0.013511213521463348
1.0051319407392107,0.011013597455985432,0.0009765388558356749,0.011624969459267675,0.00891501075810434,0.011384332189468705
1.0051790227643411,0.003334338693202587,-0.00030149706280339526,0.009001101837417943,0.0038291081573948093,0.008896191218120878
1.0052261047894715,0.0027948227754708652,-0.0025361890435180614,0.005716764128480125,0.0011675329565315994,0.005683706889995935
1.0052731868146019,0.010164673003053454,-0.005753616768753231,0.005314070387151807,-0.0016090033647671717,0.005354976317495681
1.0053202688397322,0.026566180290056158,-0.007106366129053448,0.008193549268036414,-0.0025913160557001925,0.008259570267875408
1.0053673508648626,0.05291846997433676,-0.007299152732037981,0.011498759854167706,-0.0007111952897183256,0.01151360351871975
1.005414432889993,0.08828034555015178,-0.004822031865882791,0.017065936640710815,0.001970123983956611,0.01700758058455723
1.0054615149151234,0.12763762777320273,-0.0012366542524126216,0.025647230237824777,0.005853690359574741,0.02548312359539269
1.0055085969402537,0.16155770115500132,0.0031376987764064027,0.038076850744054896,0.012376297990433601,0.037737950050698285
1.0055556789653841,0.18078890709766565,0.007926920794934117,0.05135766337998839,0.020837450274784782,0.0507987071342076
1.0056027609905145,0.18307418566708303,0.011544693182829066,0.06056084021799014,0.029630255768198003,0.05978214220616481
1.0056498430156449,0.1741533504439713,0.014337878336718688,0.06655908741414072,0.03385385258235491,0.06567894959683267
1.0056969250407752,0.16242605985016223,0.017471810649891426,0.07063087442771013,0.03553081208338507,0.06971212140171348
1.0057440070659056,0.15418810481596457,0.020254175768401994,0.07107575192890922,0.03337474119783168,0.07020895081772757
1.005791089091036,0.1523552110015489,0.02187318361996398,0.0660360559428213,0.028755896805430146,0.06528008205570471
1.0058381711161664,0.15691036178882456,0.023743064101948257,0.06130313889977103,0.024243613562523723,0.06065832535260003
1.0058852531412967,0.16538784679386007,0.028141253055155215,0.06307528196508604,0.020748591491226154,0.06251808420293639
1.005932335166427,0.17322460684996496,0.027546744327543796,0.06323184659303546,0.015864810083570415,0.0627981584941145
1.0059794171915575,0.17475929729964576,0.024008465576310655,0.05880087400333982,0.010059382007809047,0.05851703485128664
1.0060264992166879,0.16548577922015562,0.020372460515681992,0.05204155960234529,0.003979451673894228,0.05191824696567604
1.0060735812418182,0.1445721481217929,0.015317855945927624,0.04234591607178599,-0.0017487244325226532,0.04237740702077408
1.0061206632669486,0.11538472372115638,0.011200882129842446,0.03266210113426135,-0.0067098073541170125,0.03282941542632844
1.006167745292079,0.08342022676517998,0.005706803705329137,0.0259645785337829,-0.010092794474673851,0.02622480884398136
1.0062148273172093,0.053714935068683495,0.002175775060514882,0.01794830890199036,-0.011892625070770569,0.0182592964740436
1.0062619093423397,0.029620632829972474,-0.0009944337761101352,0.006428025048282717,-0.011372368297572651,0.006728530871640963
1.00630899136747,0.012907514843990737,-0.003495334466268981,-0.004503164505502606,-0.007466192217760195,-0.00430319109472102
1.0063560733926005,0.004292560353454192,-0.004326643856013765,-0.010519166817943732,-0.0024632590467200343,-0.010449999245887628
1.0064031554177308,0.0038095921685766332,-0.0030700618649300015,-0.007972360122875525,0.003897574330642441,-0.008073219994001875
1.0064502374428612,0.010924293923755681,0.0012003320327127198,0.0013341291502741227,0.012391502721089824,0.001004276470480365
1.0064973194679916,0.02453035587728399,0.006027037939436971,0.011333716656649779,0.020623165264027202,0.010783786362452991
1.006544401493122,0.042966387475684646,0.010772717950820788,0.020787738978896356,0.028575819297661086,0.02002928488025818
1.0065914835182523,0.06411092062196938,0.01557901479739041,0.03329944681240632,0.03288380517445192,0.03243232724275314
1.0066385655433827,0.08556714248621351,0.01992964256180872,0.049462130528264495,0.03353763546746142,0.0485834822502749
1.006685647568513,0.10493697207975199,0.024225676534898596,0.06485229624100503,0.031683605361413895,0.06402432823935637
1.0067327295936435,0.12014720761669652,0.027026545978814848,0.07640706666955516,0.02698829918562396,0.07569628919961198
1.0067798116187738,0.12974860817624662,0.028620015873552347,0.08294186479002422,0.021527211894399788,0.08236520071045951
1.0068268936439042,0.1331160769266914,0.030313831305214537,0.08436945777741765,0.01585201177670991,0.0839333183582122
1.0068739756690346,0.13051634907150206,0.029703954308549142,0.08386978816652868,0.011346103760143413,0.08354718767149295
1.006921057694165,0.12301693370584733,0.025174876440372983,0.08185258015702256,0.007414396024201829,0.0816309086796917
1.0069681397192953,0.11219272060745543,0.01850768839172099,0.07585112215539112,0.003990203429673066,0.07571988447232574
1.0070152217444257,0.09964098937742749,0.011918403604620277,0.06985230351433948,0.0016479557821005412,0.06978432965424299
1.007062303769556,0.08648287672211809,0.0063308188800164375,0.06302251331950957,-0.0011555275601100937,0.06303090436609805
1.0071093857946865,0.07315337862299943,0.002243647630693415,0.053521194673379444,-0.003302427825227561,0.05359004586295113
1.0071564678198168,0.05967551136841471,-0.0001425339487100668,0.042771215350936226,-0.004092010393134112,0.04286497847618622
1.0072035498449472,0.046352747241279996,-0.0037287210895488214,0.029687677967592516,-0.004241193410320765,0.029790073169667895
1.0072506318700776,0.03458526276589038,-0.006437784815462785,0.01916866027493343,-0.004043114430483261,0.01926948059239692
1.007297713895208,0.02727830692374265,-0.007274743136402223,0.01473006896934623,-0.003969109246818712,0.014830473721083037
1.0073447959203383,0.0280866607277734,-0.005803398076233178,0.01711698325886342,-0.0026312891020505956,0.01718092197411755
1.0073918779454687,0.03925806445151868,-0.00030442198002508846,0.028584290137595406,-0.0007327097748783955,0.028593658275964027
1.007438959970599,0.059562255279517966,0.007451698682529799,0.043832242766228824,0.001681660592595931,0.04377225663026124
1.0074860419957294,0.08449757331606145,0.015928000173287514,0.058037587268334905,0.0035685680904872035,0.05792310570601791
1.0075331240208598,0.10858230355013457,0.023264522953293794,0.06858033205585247,0.005954065447258043,0.0684002175473264
1.0075802060459902,0.12742598805780986,0.028832264369729972,0.07621925524513734,0.008537086814974152,0.07597020816348826
1.0076272880711206,0.13840784538629322,0.032009935838277284,0.07904744927672683,0.010218696792805005,0.078754608895458
1.007674370096251,0.14057521646913557,0.031627565695399484,0.0769603579802706,0.01285514110617948,0.07660083605886922
1.0077214521213813,0.1345761316442056,0.029639347202739415,0.07084930100861353,0.014256629729074728,0.07045529113322503
