freq,gls,usurper,pdc_unbiased,shape_periodogram,shift_periodogram
1.0,0.02176245538732735,0.019975817410110074,-0.007335655112181927,0.002065989143929319,-0.0074168414026012175
1.0000470820251304,0.05134779247241603,0.031045445771331805,0.016081221596065367,0.008882649991820597,0.015689940397518712
1.0000941640502607,0.09689124580742478,0.04225298048285351,0.05094334186944231,0.02176165810063526,0.04998788688247976
1.0001412460753911,0.14848755125694818,0.05366816861015352,0.08456655871201842,0.0344489979868263,0.08309095846257797
1.0001883281005215,0.19664060203551523,0.06346525350908144,0.10917973127593883,0.046968961718931446,0.10723793985176441
1.0002354101256519,0.23592916525893703,0.06969934925642404,0.12678225514793529,0.055762426048182545,0.1245461820355194
1.0002824921507822,0.26363730657080775,0.07114658360404331,0.13936052532630389,0.05982393042794778,0.1370075877023275
1.0003295741759126,0.2780607972143743,0.07236855560449983,0.14663287491158739,0.0623802844105341,0.14421049745141387
1.000376656201043,0.27778293516045677,0.07342071727087313,0.14742341655727248,0.06353919595445269,0.14496531633110785
1.0004237382261734,0.2619162710265795,0.07128167298554962,0.139633635428265,0.06365895861045141,0.13715450187736217
1.0004708202513037,0.23107843684954268,0.06599075006634318,0.12167319492364326,0.0616370168614522,0.11922540854707046
1.0005179022764341,0.1884924826566669,0.058896349611811595,0.09811663264576473,0.05820716321784093,0.09575055822237362
1.0005649843015645,0.1401213853463462,0.05402468068885447,0.07552593926328457,0.054744343265051225,0.07325994460761884
1.0006120663266949,0.09311329616242185,0.051629915641940465,0.056936636782797936,0.0507165679872703,0.05481027238215879
1.0006591483518252,0.05338098213176131,0.053232081246404814,0.04656239048066332,0.045390696443574505,0.04464321208611956
1.0007062303769556,0.024158292773911582,0.05479045385488893,0.0379052596807291,0.03869442336050754,0.03625703351898019
1.000753312402086,0.006389706849983347,0.05517288777042826,0.024925530867037873,0.030492352264365537,0.023619206176402365
1.0008003944272164,4.4957735270936574e-05,0.05717936856709539,0.013623927240606612,0.022835529418184373,0.012644647727859785
1.0008474764523467,0.004476680458159687,0.0559125879617721,0.005279248516488982,0.020926146620154074,0.004386100213823561
1.000894558477477,0.016631009383087918,0.05810862479213279,0.00604487589630294,0.02356709288362644,0.005039248707003204
1.0009416405026075,0.030279800796216314,0.06568005021522133,0.01614856324889533,0.03019367880482198,0.014857966978597151
1.0009887225277379,0.04019506929021177,0.07609786568748506,0.031662352407458065,0.04188016218997775,0.02988256624757863
1.0010358045528682,0.045271217739530065,0.08533368345847343,0.049643587368788454,0.05584275318171143,0.04730749872096843
1.0010828865779986,0.04665854735345898,0.08805007847384635,0.06394396252727896,0.06964632004547326,0.061091501037277535
1.001129968603129,0.04557434040645729,0.08802859997665735,0.06951556918541625,0.08016821096529332,0.06628172840501154
1.0011770506282593,0.04281463251624272,0.08261402007842567,0.06676401531502141,0.08560884239258754,0.06332004627083325
1.0012241326533897,0.03911406922799136,0.07348500569776313,0.05756222886158259,0.0871630559252102,0.05402816744248771
1.00127121467852,0.035734840091298535,0.06339272490948346,0.04469056838221148,0.08612491045777393,0.04115264645000855
1.0013182967036505,0.034632288517627896,0.05530132647090185,0.03354469161607427,0.08533978713660978,0.030002265639164846
1.0013653787287808,0.03686446430802818,0.05589528671940075,0.03235087082016887,0.08552232741347267,0.02879743432859571
1.0014124607539112,0.040499198873267514,0.06272963539223055,0.04235422606047071,0.08725112151097629,0.038764540871680825
1.0014595427790416,0.04245011553894062,0.0702812764732246,0.05148956578485458,0.08822193022823674,0.04789383698274836
1.001506624804172,0.04142424671447975,0.0746477476782465,0.057489670337512934,0.0847459510271978,0.054046743434159814
1.0015537068293023,0.03772147907862947,0.075117793161924,0.05838903434484734,0.07780471666130043,0.05521251860072496
1.0016007888544327,0.032149333674356434,0.07358179529036184,0.05286952532393206,0.06662883489294472,0.050112437141406375
1.001647870879563,0.025799799790141527,0.06987017954868878,0.040386054375886556,0.05175011609390617,0.03820642335390947
1.0016949529046935,0.020580986012262138,0.061963497218203906,0.02276083148008517,0.0360291947957932,0.02122390384487943
1.0017420349298238,0.01993155776046648,0.056256817598258256,0.008396000375120035,0.024014058084704557,0.007370027553486671
1.0017891169549542,0.027489951613850306,0.05499322265356633,0.00883020356959996,0.021197319733713936,0.007923205619571704
1.0018361989800846,0.042074300128446054,0.05490364008874162,0.022145335055818467,0.025689216470698245,0.02104123668626672
1.001883281005215,0.05845891480384451,0.059066503612392,0.04104344236602053,0.03520071709460213,0.03953847619460463
1.0019303630303453,0.07582159493280267,0.06568648386174818,0.05832937685591873,0.04515913594199651,0.056424403705045874
1.0019774450554757,0.09824195100672209,0.07109047942965095,0.07041397317164165,0.05464000040145349,0.06814643459395785
1.002024527080606,0.1303669711588208,0.06835596427413758,0.07896421651578898,0.06142773578236192,0.07644968743401216
1.0020716091057364,0.17464242099810953,0.06110159706997453,0.08832693698111686,0.06564200476073925,0.08567288395862205
1.0021186911308668,0.22917237164395338,0.06194398636378596,0.11355266104308831,0.06914238492007586,0.1108299240801068
1.0021657731559972,0.2864808872447173,0.06819305659076452,0.14880372324738836,0.07308934796134318,0.14604861384003354
1.0022128551811276,0.335488571803669,0.07495272389734202,0.17945522269565434,0.07676236915427062,0.17669438327648304
1.002259937206258,0.3667004160945303,0.07948726567316752,0.20044309409803335,0.07864973405642535,0.19771120795983793
1.0023070192313883,0.37630521047742305,0.0811159372931686,0.20989430295355302,0.07809434752634475,0.207213111072709
1.0023541012565187,0.3658732131217113,0.07957759476800721,0.20800353236518512,0.07516848423478834,0.2053874985444553
1.002401183281649,0.3393357840705059,0.0757920469922381,0.19716291122807472,0.0695086553314588,0.19465847141957757
1.0024482653067794,0.30043566038503033,0.07038454893360635,0.1783931936762516,0.060550089348421696,0.17609683895401065
1.0024953473319098,0.25183659939415354,0.0625791960635791,0.15384153094853617,0.04772273220282425,0.15191722995046014
1.0025424293570402,0.1956066522565673,0.05160688926097043,0.12081929242955049,0.033309190690889875,0.1193918482502793
1.0025895113821706,0.13475970805500284,0.03677397465975417,0.07564140824241966,0.01808312144202573,0.07482358751503752
1.002636593407301,0.07582916802294695,0.02229382545064365,0.025728531183742454,0.006236701151698689,0.025440991539464015
1.0026836754324313,0.03145358980808763,0.020429422838693135,-0.0040036080406334615,0.002829485265786721,-0.004120258463747382
1.0027307574575617,0.01779891286180085,0.029428391857196066,-0.006351274616742859,0.011457369548071902,-0.006832895906523106
1.002777839482692,0.04358985242398123,0.02994737258748749,0.006591376950054447,0.027533591157526335,0.00541734956603744
1.0028249215078224,0.1037077589167159,0.03258499936759642,0.04281328660270074,0.041556822989815626,0.04104853984816266
1.0028720035329528,0.18101238562213362,0.04313260411209246,0.0979436666785688,0.05314899233016084,0.09576291461476232
1.0029190855580832,0.25636899888384335,0.06088453861623095,0.15380629462607742,0.0596207655896634,0.15148783196757432
1.0029661675832136,0.31832235074100634,0.07791641488779218,0.19704252226634572,0.05865153647822769,0.19484320700449684
1.003013249608344,0.36361141655314383,0.08614012312135964,0.228525784613192,0.05867654505498704,0.22639696398480907
1.0030603316334743,0.39341420767750745,0.09089255439680315,0.24979870354304085,0.058537336390938645,0.24772476557928735
1.0031074136586047,0.4102870696014962,0.09225453781985753,0.26258314989231946,0.05694048057696784,0.2605798877508086
1.003154495683735,0.41662904201390033,0.09199990936336126,0.266777273312063,0.05462777579419899,0.26484057247791737
1.0032015777088654,0.41405085665469693,0.0899684282353406,0.26326150551395927,0.05114417251194039,0.2614052553107023
1.0032486597339958,0.4030953535584088,0.08621315314087742,0.251751202986526,0.04629140741972208,0.2500044674458838
1.0032957417591262,0.38301151602067063,0.08066766410312996,0.2324239377319079,0.04019878747643432,0.23082885819871443
1.0033428237842565,0.3514583105172215,0.07298844660340192,0.2047530276495091,0.032667596636278926,0.2033771422102423
1.003389905809387,0.3042863356687068,0.06287153056495245,0.16911475512504195,0.023948537119122745,0.168038354905021
1.0034369878345173,0.2364892670841809,0.05093118177075293,0.12615890065588273,0.014430059907918312,0.12546078375556124
1.0034840698596477,0.14805992805189566,0.03781678513938951,0.07745804013496241,0.005182651873013128,0.07717120776313349
1.003531151884778,0.05937981673678241,0.02836070291658574,0.035632586371168055,-0.0010921397679381692,0.035646780636363555
1.0035782339099084,0.016571701488668728,0.026883176866147468,0.012038086514572617,-0.0013057368100437721,0.012082703627448017
1.0036253159350388,0.04141534161646615,0.03607836539603481,0.014399178728297872,0.007210562316760737,0.014080178189930842
1.0036723979601692,0.0978579156313711,0.050284691396272,0.03595348541122598,0.020923297922042023,0.03504113268067162
1.0037194799852995,0.14599333246590304,0.06669495338662912,0.06503465797160808,0.03711308202280631,0.06345210043699226
1.00376656201043,0.17300879075255565,0.0781076653603607,0.0922030709843016,0.05304757325632524,0.0900196004895163
1.0038136440355603,0.18229222765708752,0.08742049674909724,0.11374971918924169,0.06385845372753982,0.11120963786448633
1.0038607260606907,0.18262972424027749,0.09338123352649215,0.12736778710133306,0.07314769803418959,0.12454768969128907
1.003907808085821,0.18292620727983336,0.0946240361693878,0.13485525602086357,0.0823206916411365,0.131768938452551
1.0039548901109514,0.18798821740501145,0.09503564463788959,0.13913083302593265,0.08713739708547838,0.13591575348348903
1.0040019721360818,0.19658928748535154,0.09414512772639426,0.1397247738744464,0.08845004598594108,0.13647334079220044
1.0040490541612122,0.20361099360789395,0.09307149368426317,0.1356935801867525,0.08620785134661124,0.13249193101249593
1.0040961361863425,0.20356945018764083,0.08848131451329884,0.1287855413388881,0.08280702656068191,0.12566130677996243
1.004143218211473,0.19261735903368254,0.07913139880677869,0.11776025800915435,0.07715438552153683,0.11477991049983478
1.0041903002366033,0.1692114287165738,0.0674130946873859,0.09836742477706704,0.06874292464411429,0.09562294843171586
1.0042373822617336,0.13469585530973552,0.05434969690111979,0.07519967777083232,0.058144019708447466,0.07280370829699974
1.004284464286864,0.094068350002802,0.042476764269600134,0.051842634052145065,0.04526111402603787,0.049930796576899535
1.0043315463119944,0.0558705414627791,0.03294531365406875,0.03082107495389939,0.0313131852878313,0.02947868455291297
1.0043786283371248,0.029785725493520713,0.02786798210209789,0.019809015244991575,0.018816478813176964,0.0189952284672069
1.0044257103622551,0.022326134922130727,0.026937066107419645,0.01684685304795892,0.009497070818092795,0.016428914029057277
1.0044727923873855,0.03362727707623793,0.02957012626482046,0.01768087969631584,0.005738144472009345,0.017421434862550114
1.004519874412516,0.057935866130881315,0.035131278555975635,0.0238553638180855,0.007256960782616669,0.023526276188210057
1.0045669564376463,0.08691312585069338,0.04352473497362067,0.038233159934289905,0.014274000622138749,0.037597145060851274
1.0046140384627766,0.11302745450084833,0.053221901767567796,0.05542672474865837,0.026357608957878368,0.05428043675323399
1.004661120487907,0.13143773576861661,0.06160783177864091,0.07126698378066398,0.0397045282442742,0.06958257868571123
1.0047082025130374,0.140315951549541,0.06732555248201559,0.0817840112464661,0.05244150685868243,0.07961236508122593
1.0047552845381678,0.14016084842095028,0.06862828087061618,0.0846685751900148,0.0627258187621107,0.08211504490693186
1.0048023665632981,0.13271042804166153,0.0663804939338258,0.08028160564993014,0.06879504316924813,0.07749538507507188
1.0048494485884285,0.1199532079956697,0.06237668150341143,0.06958311394397716,0.07379203749439495,0.06658679866872601
1.0048965306135589,0.10352759540252561,0.05613520012555754,0.05738407400153901,0.07566247550179322,0.05428684017701858
1.0049436126386893,0.08458770500586026,0.047176874053489755,0.04469505929439128,0.07390835459300726,0.04163604364427581
1.0049906946638196,0.06411017510052013,0.03940221688829571,0.03435472552873721,0.06943621893190662,0.03145327240424263
1.00503777668895,0.043500849939608656,0.03188226172591585,0.022887706523455283,0.0626175351180207,0.02024733665524869
1.0050848587140804,0.02497562650004661,0.025551138447616886,0.013888116903115118,0.05365860170976016,0.011612341115134747
1.0051319407392107,0.011013597455985432,0.022301898570618737,0.011624969459267675,0.043725367469980285,0.009765778957112309
1.0051790227643411,0.003334338693202587,0.02011855492998096,0.009001101837417943,0.03324970848544672,0.007584182130586926
1.0052261047894715,0.0027948227754708652,0.015667328118038722,0.005716764128480125,0.02415430319623797,0.004686439918662066
1.0052731868146019,0.010164673003053454,0.011219000443444756,0.005314070387151807,0.015652207707541152,0.004644637321332414
1.0053202688397322,0.026566180290056158,0.008693735997495297,0.008193549268036414,0.00696718675911876,0.00789025831095282
1.0053673508648626,0.05291846997433676,0.008648441112952683,0.011498759854167706,0.002914599794318115,0.011364572320255702
1.005414432889993,0.08828034555015178,0.012346260238984434,0.017065936640710815,0.0022144566821675027,0.01695648822064252
1.0054615149151234,0.12763762777320273,0.01609581694711802,0.025647230237824777,0.004016686848490633,0.025453733192218927
1.0055085969402537,0.16155770115500132,0.01994757343276388,0.038076850744054896,0.010164963423205914,0.03761334842242095
1.0055556789653841,0.18078890709766565,0.023531662493495194,0.05135766337998839,0.0198495118535259,0.05048096451837214
1.0056027609905145,0.18307418566708303,0.025330285978208005,0.06056084021799014,0.03079088060470242,0.0592327088749368
1.0056498430156449,0.1741533504439713,0.026015934685071015,0.06655908741414072,0.0385120215510545,0.06492097893467401
1.0056969250407752,0.16242605985016223,0.025444811099751455,0.07063087442771013,0.04433303907889737,0.06876417794736882
1.0057440070659056,0.15418810481596457,0.02420135503489252,0.07107575192890922,0.04636650119894759,0.06912973525997158
1.005791089091036,0.1523552110015489,0.022081673727925608,0.0660360559428213,0.04530926977258702,0.0641287745584662
1.0058381711161664,0.15691036178882456,0.021077913499935957,0.06130313889977103,0.04378425310947334,0.05945407027619767
1.0058852531412967,0.16538784679386007,0.022788264607162576,0.06307528196508604,0.042387653272177354,0.06128231450794188
1.005932335166427,0.17322460684996496,0.021954308133847147,0.06323184659303546,0.03941093427648827,0.06155735995595116
1.0059794171915575,0.17475929729964576,0.019877619741963698,0.05880087400333982,0.03467824804457525,0.05731588340789683
1.0060264992166879,0.16548577922015562,0.017885469677278765,0.05204155960234529,0.029235367640824444,0.05077871474408712
1.0060735812418182,0.1445721481217929,0.015780976268905476,0.04234591607178599,0.022504902405130596,0.04136422286585778
1.0061206632669486,0.11538472372115638,0.013979661778841601,0.03266210113426135,0.014425343459260992,0.032023827032267034
1.006167745292079,0.08342022676517998,0.011420647856830968,0.0259645785337829,0.006991823612746352,0.02564490148505483
1.0062148273172093,0.053714935068683495,0.010662891160995175,0.01794830890199036,0.00183891936303552,0.01785400977097566
1.0062619093423397,0.029620632829972474,0.00987358278871387,0.006428025048282717,-0.0011404003445663526,0.006470685918290167
1.00630899136747,0.012907514843990737,0.010210048220788496,-0.004503164505502606,-0.00032801254939528705,-0.004485155741417508
1.0063560733926005,0.004292560353454192,0.011336787991281643,-0.010519166817943732,0.0031881763739193968,-0.010645193452717751
1.0064031554177308,0.0038095921685766332,0.014751034531566374,-0.007972360122875525,0.007514147438778177,-0.008284713811081116
1.0064502374428612,0.010924293923755681,0.022153920188900226,0.0013341291502741227,0.016745946490556718,0.0006213021380463681
1.0064973194679916,0.02453035587728399,0.028240983728532135,0.011333716656649779,0.027079524790505047,0.010176517360432746
1.006544401493122,0.042966387475684646,0.03290366806440413,0.020787738978896356,0.03697835754422447,0.01921144491468856
1.0065914835182523,0.06411092062196938,0.0350304830310362,0.03329944681240632,0.04291790093292879,0.03147720282253211
1.0066385655433827,0.08556714248621351,0.037719952111351866,0.049462130528264495,0.04518953199761336,0.04755220470041725
1.006685647568513,0.10493697207975199,0.040442221194797616,0.06485229624100503,0.0445598185192388,0.06297400845383265
1.0067327295936435,0.12014720761669652,0.041849903060193025,0.07640706666955516,0.042063373224629816,0.0746316514342182
1.0067798116187738,0.12974860817624662,0.04121975919550447,0.08294186479002422,0.03825873347925968,0.08131696473260912
1.0068268936439042,0.1331160769266914,0.04184554632511114,0.08436945777741765,0.032943838894021554,0.08295301072958138
1.0068739756690346,0.13051634907150206,0.03915079823618883,0.08386978816652868,0.027403801473229933,0.08267278063172807
1.006921057694165,0.12301693370584733,0.03346496884528387,0.08185258015702256,0.022496647049393317,0.08085279395258832
1.0069681397192953,0.11219272060745543,0.026299072071986257,0.07585112215539112,0.016951018115866995,0.07507942083609156
1.0070152217444257,0.09964098937742749,0.019915513999827977,0.06985230351433948,0.01155592102717411,0.06930652876970857
1.007062303769556,0.08648287672211809,0.01469885310992521,0.06302251331950957,0.006974427019485566,0.06267265020031751
1.0071093857946865,0.07315337862299943,0.012014640065701616,0.053521194673379444,0.003301172921423352,0.05333356218925611
1.0071564678198168,0.05967551136841471,0.010343524176851148,0.042771215350936226,0.00024253766118200457,0.04272236149519698
1.0072035498449472,0.046352747241279996,0.007504082222217513,0.029687677967592516,-0.001974161123402248,0.02974472682122795
1.0072506318700776,0.03458526276589038,0.006289585736209502,0.01916866027493343,-0.0021727391378516363,0.01924368345425311
1.007297713895208,0.02727830692374265,0.006352956446971874,0.01473006896934623,-0.001659505502063316,0.014787289499270634
1.0073447959203383,0.0280866607277734,0.008893665825535017,0.01711698325886342,0.00022877452753061048,0.01709180341299401
1.0073918779454687,0.03925806445151868,0.015578106675772453,0.028584290137595406,0.004958752004073963,0.028348338940864408
1.007438959970599,0.059562255279517966,0.023540957832457392,0.043832242766228824,0.01073989617573036,0.04334005776665424
1.0074860419957294,0.08449757331606145,0.03037892633401086,0.058037587268334905,0.016518075549691258,0.05729458504982978
1.0075331240208598,0.10858230355013457,0.03501092283532958,0.06858033205585247,0.022566624297720224,0.06758335134739264
1.0075802060459902,0.12742598805780986,0.038736948035392404,0.07621925524513734,0.026623040817441584,0.075055434496548
1.0076272880711206,0.13840784538629322,0.039618434279403876,0.07904744927672683,0.028873828023969966,0.07779284813746147
1.007674370096251,0.14057521646913557,0.03818921406830607,0.0769603579802706,0.03050452784416515,0.07564106631363325
1.0077214521213813,0.1345761316442056,0.03600093025427924,0.07084930100861353,0.029982129378306858,0.06955186529165219
1.0077685341465117,0.12269802495893224,0.03202531655117739,0.062425783036096825,0.027414971267535795,0.06123404584461313
