freq,gls,usurper,pdc_unbiased,shape_periodogram,shift_periodogram
1.0,0.02176245538732735,0.03621197127762829,-0.007335655112181927,0.02372700856716601,-0.009785090621036111
1.0000470820251304,0.05134779247241603,0.06342965296167016,0.016081221596065367,0.04376822386016132,0.011416522602801472
1.0000941640502607,0.09689124580742478,0.09484787405027015,0.05094334186944231,0.07262588300966692,0.04318873683298933
1.0001412460753911,0.14848755125694818,0.12804079297826162,0.08456655871201842,0.10573094415047685,0.07353251604326386
1.0001883281005215,0.19664060203551523,0.15831661849027903,0.10917973127593883,0.13965835150950787,0.09509360015650734
1.0002354101256519,0.23592916525893703,0.18090479442308008,0.12678225514793529,0.16604487951172303,0.11056462608231048
1.0002824921507822,0.26363730657080775,0.19548766469603476,0.13936052532630389,0.1836327537040385,0.12188029457488486
1.0003295741759126,0.2780607972143743,0.2046756163453924,0.14663287491158739,0.19478453408887697,0.1284066545426055
1.000376656201043,0.27778293516045677,0.20818326841045162,0.14742341655727248,0.20037729606699942,0.1287770099678464
1.0004237382261734,0.2619162710265795,0.20429964873889547,0.139633635428265,0.20019376407393918,0.12082347689374419
1.0004708202513037,0.23107843684954268,0.1927974197347584,0.12167319492364326,0.19287693649812943,0.10308251259718854
1.0005179022764341,0.1884924826566669,0.17713477887328236,0.09811663264576473,0.18196844340923268,0.08005590188322183
1.0005649843015645,0.1401213853463462,0.16579292770307985,0.07552593926328457,0.17394356863269114,0.05787648782992236
1.0006120663266949,0.09311329616242185,0.15954359633872542,0.056936636782797936,0.16868187205892576,0.039567903922931
1.0006591483518252,0.05338098213176131,0.1588756285299724,0.04656239048066332,0.16455087697570725,0.029495137929908065
1.0007062303769556,0.024158292773911582,0.15754989093654065,0.0379052596807291,0.15835342904606786,0.021387871131072763
1.000753312402086,0.006389706849983347,0.1524420590338507,0.024925530867037873,0.14726331744642548,0.009460562573499566
1.0008003944272164,4.4957735270936574e-05,0.14793783994193968,0.013623927240606612,0.1358590502686577,-0.0006988764819557284
1.0008474764523467,0.004476680458159687,0.14481071746298638,0.005279248516488982,0.13266484639159537,-0.008734294039668139
1.000894558477477,0.016631009383087918,0.15192812554598556,0.00604487589630294,0.13953606938578353,-0.008701103863346365
1.0009416405026075,0.030279800796216314,0.1704391211709102,0.01614856324889533,0.15724189874836214,-0.000427784804730335
1.0009887225277379,0.04019506929021177,0.19632092710721574,0.031662352407458065,0.18372972095029785,0.012453799569040271
1.0010358045528682,0.045271217739530065,0.22106771273107798,0.049643587368788454,0.21362357712632557,0.027664448812886627
1.0010828865779986,0.04665854735345898,0.2397367991441534,0.06394396252727896,0.2392736181164546,0.03976272129119717
1.001129968603129,0.04557434040645729,0.24871611652485554,0.06951556918541625,0.2543989968122464,0.04403829407105346
1.0011770506282593,0.04281463251624272,0.24532515260429913,0.06676401531502141,0.25622237264995146,0.041019983708093975
1.0012241326533897,0.03911406922799136,0.23161130162738536,0.05756222886158259,0.24689466785158354,0.03244528676285151
1.00127121467852,0.035734840091298535,0.2123906783990883,0.04469056838221148,0.23171799150149086,0.020757684175675882
1.0013182967036505,0.034632288517627896,0.19740497998909787,0.03354469161607427,0.2200719165205119,0.01056631300286627
1.0013653787287808,0.03686446430802818,0.1958153371578064,0.03235087082016887,0.2181932915724651,0.009545165076972452
1.0014124607539112,0.040499198873267514,0.2065885545623643,0.04235422606047071,0.2266745177628442,0.018883967642144485
1.0014595427790416,0.04245011553894062,0.22207198722014804,0.05148956578485458,0.24036957313886026,0.02685309093780011
1.001506624804172,0.04142424671447975,0.23297762282563428,0.057489670337512934,0.24844753068571593,0.03221602379834448
1.0015537068293023,0.03772147907862947,0.2351015444976651,0.05838903434484734,0.24557547709103472,0.03342764501959736
1.0016007888544327,0.032149333674356434,0.2258727985573845,0.05286952532393206,0.2304036469475533,0.02927331949339187
1.001647870879563,0.025799799790141527,0.2047225298800619,0.040386054375886556,0.2031262552751707,0.019300832538959124
1.0016949529046935,0.020580986012262138,0.17556340025337888,0.02276083148008517,0.16998366933222814,0.0048925272373202934
1.0017420349298238,0.01993155776046648,0.153102948069696,0.008396000375120035,0.14352843863815795,-0.006766389792235278
1.0017891169549542,0.027489951613850306,0.14584215699852557,0.00883020356959996,0.13603249920898616,-0.005530126864495943
1.0018361989800846,0.042074300128446054,0.14973586494708147,0.022145335055818467,0.14361259894159056,0.007046241987288875
1.001883281005215,0.05845891480384451,0.16424858497076467,0.04104344236602053,0.16193821675515624,0.024187509213518865
1.0019303630303453,0.07582159493280267,0.1800855860922662,0.05832937685591873,0.18179466372467573,0.03967926895487485
1.0019774450554757,0.09824195100672209,0.1878417121858323,0.07041397317164165,0.19711344328926106,0.0504631745746341
1.002024527080606,0.1303669711588208,0.18175368403783315,0.07896421651578898,0.19947815406593059,0.05894728503781692
1.0020716091057364,0.17464242099810953,0.1712554982757159,0.08832693698111686,0.19613375190505025,0.06879967055982364
1.0021186911308668,0.22917237164395338,0.17369749223534364,0.11355266104308831,0.1987042641454776,0.09429806831076953
1.0021657731559972,0.2864808872447173,0.18636695429140457,0.14880372324738836,0.20820912877047673,0.1295848739289544
1.0022128551811276,0.335488571803669,0.19941561275510925,0.17945522269565434,0.21831087449591777,0.16034170912725365
1.002259937206258,0.3667004160945303,0.2065554221869946,0.20044309409803335,0.22312016263315032,0.18166080732859077
1.0023070192313883,0.37630521047742305,0.20630299157997464,0.20989430295355302,0.22072057669555017,0.1915540216643054
1.0023541012565187,0.3658732131217113,0.1992199324918293,0.20800353236518512,0.21165262351115002,0.19014895692476236
1.002401183281649,0.3393357840705059,0.18756088890554368,0.19716291122807472,0.19737157899788055,0.17992441243421634
1.0024482653067794,0.30043566038503033,0.1719759247168151,0.1783931936762516,0.17637997140705103,0.16221204267338216
1.0024953473319098,0.25183659939415354,0.15094006048553554,0.15384153094853617,0.14717342894821916,0.13956383280985096
1.0025424293570402,0.1956066522565673,0.12099504795646618,0.12081929242955049,0.11053034675009213,0.10946598153479062
1.0025895113821706,0.13475970805500284,0.08338359155628519,0.07564140824241966,0.06566659978381732,0.06854342335141331
1.002636593407301,0.07582916802294695,0.048695897090953864,0.025728531183742454,0.02607232072254052,0.022863792154421376
1.0026836754324313,0.03145358980808763,0.03183327723173052,-0.0040036080406334615,0.011088675454376902,-0.005144286739256465
1.0027307574575617,0.01779891286180085,0.03813841848859115,-0.006351274616742859,0.02631832122791527,-0.009078204600096446
1.002777839482692,0.04358985242398123,0.05596929473831165,0.006591376950054447,0.05944938967254424,0.000323514213238658
1.0028249215078224,0.1037077589167159,0.08958748136670584,0.04281328660270074,0.09907335793481521,0.032372673121639474
1.0028720035329528,0.18101238562213362,0.13397635050964604,0.0979436666785688,0.13772799460091617,0.08394161033991142
1.0029190855580832,0.25636899888384335,0.17378662120873553,0.15380629462607742,0.16819405670037038,0.13782290564362154
1.0029661675832136,0.31832235074100634,0.20188847107658872,0.19704252226634572,0.18666359233550653,0.1805175229537998
1.003013249608344,0.36361141655314383,0.2185673523597989,0.228525784613192,0.19713129132075247,0.2120990423104997
1.0030603316334743,0.39341420767750745,0.22754056115470125,0.24979870354304085,0.2015771386312901,0.23370172333942382
1.0031074136586047,0.4102870696014962,0.23062927323922544,0.26258314989231946,0.20220750672086216,0.24681653826893912
1.003154495683735,0.41662904201390033,0.229484121974469,0.266777273312063,0.19926576827459633,0.25127173771513195
1.0032015777088654,0.41405085665469693,0.22442704235620956,0.26326150551395927,0.1928027632173866,0.24797943113581905
1.0032486597339958,0.4030953535584088,0.21530414220653174,0.251751202986526,0.18253944194930408,0.23672805894003401
1.0032957417591262,0.38301151602067063,0.2017935730000663,0.2324239377319079,0.16833433132251624,0.21782985846736203
1.0033428237842565,0.3514583105172215,0.18336530230318868,0.2047530276495091,0.1499280468155892,0.19093491948511548
1.003389905809387,0.3042863356687068,0.1596410625787657,0.16911475512504195,0.12777014447995783,0.15658983233499751
1.0034369878345173,0.2364892670841809,0.13146125607257095,0.12615890065588273,0.10249298116842454,0.11556283873776253
1.0034840698596477,0.14805992805189566,0.10134359962801938,0.07745804013496241,0.07635064468425579,0.06929508128586183
1.003531151884778,0.05937981673678241,0.08071187565214774,0.035632586371168055,0.058535200606753456,0.029360043858281542
1.0035782339099084,0.016571701488668728,0.08050674793454797,0.012038086514572617,0.05850931360215371,0.00584883548139679
1.0036253159350388,0.04141534161646615,0.10636308255873185,0.014399178728297872,0.08290483516730712,0.005649518034622583
1.0036723979601692,0.0978579156313711,0.14899433968171424,0.03595348541122598,0.12467541500399687,0.022880992376975353
1.0037194799852995,0.14599333246590304,0.19854036060523322,0.06503465797160808,0.17140256168668752,0.047494879744931995
1.00376656201043,0.17300879075255565,0.23840488267046472,0.0922030709843016,0.21193754444728696,0.07131132488368593
1.0038136440355603,0.18229222765708752,0.26479608745074973,0.11374971918924169,0.23849770437838808,0.09111930595482183
1.0038607260606907,0.18262972424027749,0.2780552358232532,0.12736778710133306,0.25497869660409034,0.10386278001056187
1.003907808085821,0.18292620727983336,0.28313980226483626,0.13485525602086357,0.2645084330241471,0.11090550883205319
1.0039548901109514,0.18798821740501145,0.2840080651512144,0.13913083302593265,0.26782040154632414,0.11510967939652184
1.0040019721360818,0.19658928748535154,0.2790717683760343,0.1397247738744464,0.2653527550362341,0.11591059254056406
1.0040490541612122,0.20361099360789395,0.26918356646217484,0.1356935801867525,0.2587005621726644,0.1122164321886273
1.0040961361863425,0.20356945018764083,0.25329457608802186,0.1287855413388881,0.2468121546616664,0.10597428891085099
1.004143218211473,0.19261735903368254,0.23210094341038817,0.11776025800915435,0.2301869698442438,0.09594447422385065
1.0041903002366033,0.1692114287165738,0.20372573266782223,0.09836742477706704,0.20588255876468978,0.078158594567676
1.0042373822617336,0.13469585530973552,0.1712685031961441,0.07519967777083232,0.17595786004813685,0.05735323747847047
1.004284464286864,0.094068350002802,0.1394310889324177,0.051842634052145065,0.1450271167278764,0.036787039873615576
1.0043315463119944,0.0558705414627791,0.11102879826579623,0.03082107495389939,0.1148664092493095,0.018744825327401394
1.0043786283371248,0.029785725493520713,0.09283344828358729,0.019809015244991575,0.09136303448922721,0.010167871910079946
1.0044257103622551,0.022326134922130727,0.08495375394677203,0.01684685304795892,0.07698272824251388,0.008711594698317103
1.0044727923873855,0.03362727707623793,0.08618975704480625,0.01768087969631584,0.07328186963279656,0.00993005710813415
1.004519874412516,0.057935866130881315,0.0951056840878512,0.0238553638180855,0.07903654171283973,0.015491641321853772
1.0045669564376463,0.08691312585069338,0.1118724120478432,0.038233159934289905,0.09541033765312108,0.02816552085521839
1.0046140384627766,0.11302745450084833,0.13367480895579012,0.05542672474865837,0.12094673979916987,0.04280220846507218
1.004661120487907,0.13143773576861661,0.155284046282889,0.07126698378066398,0.1490515269100214,0.055967756326587514
1.0047082025130374,0.140315951549541,0.17367840046201535,0.0817840112464661,0.17462408629541862,0.06415571425198424
1.0047552845381678,0.14016084842095028,0.18279501289865197,0.0846685751900148,0.19306300692445216,0.06535832674569333
1.0048023665632981,0.13271042804166153,0.18271211554814926,0.08028160564993014,0.20255648199111737,0.0600009070852224
1.0048494485884285,0.1199532079956697,0.17559013967632453,0.06958311394397716,0.20506606394364463,0.04885117110748544
1.0048965306135589,0.10352759540252561,0.16535639063508806,0.05738407400153901,0.1995890267065023,0.03695739277133787
1.0049436126386893,0.08458770500586026,0.1511269058534698,0.04469505929439128,0.18708851533912085,0.025319280303302983
1.0049906946638196,0.06411017510052013,0.13670231161422955,0.03435472552873721,0.17077723219020835,0.016523021796876716
1.00503777668895,0.043500849939608656,0.12003764652489675,0.022887706523455283,0.15145926531192735,0.006969867349754377
1.0050848587140804,0.02497562650004661,0.10111731727711157,0.013888116903115118,0.12879009422528978,0.00031408733938170395
1.0051319407392107,0.011013597455985432,0.08511688626362532,0.011624969459267675,0.10710565864540343,0.0003354173475045641
1.0051790227643411,0.003334338693202587,0.07007082470499183,0.009001101837417943,0.08423484791832957,0.00012170785356927501
1.0052261047894715,0.0027948227754708652,0.05167903468361614,0.005716764128480125,0.058635551663793556,-0.00046237944163711144
1.0052731868146019,0.010164673003053454,0.03583239093745425,0.005314070387151807,0.03589673278945074,0.001522681096524353
1.0053202688397322,0.026566180290056158,0.025122616369943472,0.008193549268036414,0.0190826333215245,0.006149188831844034
1.0053673508648626,0.05291846997433676,0.019563667465119502,0.011498759854167706,0.00986087980305895,0.010402353258399652
1.005414432889993,0.08828034555015178,0.017685634849463002,0.017065936640710815,0.006197670180675913,0.016322790925931238
1.0054615149151234,0.12763762777320273,0.019561262730333626,0.025647230237824777,0.007938090161137553,0.024675391036512347
1.0055085969402537,0.16155770115500132,0.02637334396581629,0.038076850744054896,0.018328542766900862,0.03595586467968228
1.0055556789653841,0.18078890709766565,0.0360653062368037,0.05135766337998839,0.034136488933356926,0.047537468111573555
1.0056027609905145,0.18307418566708303,0.04386602318563002,0.06056084021799014,0.05123074382332654,0.05495631514270944
1.0056498430156449,0.1741533504439713,0.05095236995476982,0.06655908741414072,0.0659926872572981,0.05944573483304913
1.0056969250407752,0.16242605985016223,0.0566792488536971,0.07063087442771013,0.07881762860760123,0.0622279945281587
1.0057440070659056,0.15418810481596457,0.05915586888448037,0.07107575192890922,0.0876689890480018,0.061792795725375764
1.005791089091036,0.1523552110015489,0.05818735682055848,0.0660360559428213,0.09163383902708658,0.05635736930791786
1.0058381711161664,0.15691036178882456,0.058419409510942225,0.06130313889977103,0.09288282275960968,0.051497539545488025
1.0058852531412967,0.16538784679386007,0.061829982403047705,0.06307528196508604,0.09293388160142897,0.05326546583677973
1.005932335166427,0.17322460684996496,0.06349062863677309,0.06323184659303546,0.0905052939802937,0.053664695597879446
1.0059794171915575,0.17475929729964576,0.06091867553128342,0.05880087400333982,0.08409402055017476,0.04987713688239348
1.0060264992166879,0.16548577922015562,0.05600969727601885,0.05204155960234529,0.0755434447205779,0.04398878147999542
1.0060735812418182,0.1445721481217929,0.04972395058105666,0.04234591607178599,0.06459582581053312,0.0354304011955689
1.0061206632669486,0.11538472372115638,0.04452881180119788,0.03266210113426135,0.05410166944194468,0.02685748464114827
1.006167745292079,0.08342022676517998,0.04193258076497697,0.0259645785337829,0.04583506977752397,0.021042650035642176
1.0062148273172093,0.053714935068683495,0.042834949712090724,0.01794830890199036,0.040877328409051124,0.013577091257622817
1.0062619093423397,0.029620632829972474,0.044133947466796934,0.006428025048282717,0.03841668652946964,0.0023671420203230423
1.00630899136747,0.012907514843990737,0.044183357782775025,-0.004503164505502606,0.03675657238654297,-0.008337042661095069
1.0063560733926005,0.004292560353454192,0.04633928004549342,-0.010519166817943732,0.03789200111241369,-0.01444298226464343
1.0064031554177308,0.0038095921685766332,0.050677544543456694,-0.007972360122875525,0.04085282903991389,-0.012220697933986332
1.0064502374428612,0.010924293923755681,0.062162100327713764,0.0013341291502741227,0.051727573680432945,-0.004101433997832691
1.0064973194679916,0.02453035587728399,0.07515793694717872,0.011333716656649779,0.06624871761818929,0.004336424173252201
1.006544401493122,0.042966387475684646,0.08685342169173266,0.020787738978896356,0.08087914402576935,0.01223803954792444
1.0065914835182523,0.06411092062196938,0.09661839830047679,0.03329944681240632,0.09294189876063927,0.023486166225711074
1.0066385655433827,0.08556714248621351,0.10775301355893764,0.049462130528264495,0.1038598907070139,0.038541857713751446
1.006685647568513,0.10493697207975199,0.11585809215945374,0.06485229624100503,0.11213485011305692,0.05313600429399729
1.0067327295936435,0.12014720761669652,0.11945844739142387,0.07640706666955516,0.11626351504600616,0.06432421709703212
1.0067798116187738,0.12974860817624662,0.11772100230666244,0.08294186479002422,0.11474615274376992,0.0710313395869563
1.0068268936439042,0.1331160769266914,0.11305818254263064,0.08436945777741765,0.10806371995381976,0.07310926245099075
1.0068739756690346,0.13051634907150206,0.10493232527868132,0.08386978816652868,0.09877637506887164,0.07350858269103727
1.006921057694165,0.12301693370584733,0.09273216698017155,0.08185258015702256,0.08567058383695261,0.0727693293373094
1.0069681397192953,0.11219272060745543,0.07767894645624203,0.07585112215539112,0.07047622651150298,0.06827335885160021
1.0070152217444257,0.09964098937742749,0.06227625606865344,0.06985230351433948,0.05517780785615446,0.06382010904268971
1.007062303769556,0.08648287672211809,0.04992736056542107,0.06302251331950957,0.04292230626169379,0.05825509237373806
1.0071093857946865,0.07315337862299943,0.04065294292684866,0.053521194673379444,0.03347654383957642,0.04975944359035291
1.0071564678198168,0.05967551136841471,0.03380825923652196,0.042771215350936226,0.026639494001935125,0.03976444933294483
1.0072035498449472,0.046352747241279996,0.028740397456375695,0.029687677967592516,0.022846934653994438,0.027139087411025876
1.0072506318700776,0.03458526276589038,0.027029017803381565,0.01916866027493343,0.022510016173667515,0.016708650038977847
1.007297713895208,0.02727830692374265,0.029361712718720963,0.01473006896934623,0.024366984364701923,0.012098736392300464
1.0073447959203383,0.0280866607277734,0.0374357206619946,0.01711698325886342,0.03119537514132383,0.0137602502959587
1.0073918779454687,0.03925806445151868,0.05440840679514925,0.028584290137595406,0.04581960244754476,0.023653229904244125
1.007438959970599,0.059562255279517966,0.07572898498564182,0.043832242766228824,0.06371525326019772,0.03700307268531462
1.0074860419957294,0.08449757331606145,0.09609322809998685,0.058037587268334905,0.08303846640532549,0.049220539192738666
1.0075331240208598,0.10858230355013457,0.11249483142127858,0.06858033205585247,0.10013967057302381,0.05805968747102702
1.0075802060459902,0.12742598805780986,0.12224733133250164,0.07621925524513734,0.11107593369508632,0.06464135620990205
1.0076272880711206,0.13840784538629322,0.12467299453452955,0.07904744927672683,0.11531169001089708,0.06706722078122189
1.007674370096251,0.14057521646913557,0.11926867574107058,0.0769603579802706,0.11379684086431216,0.06511970171859274
1.0077214521213813,0.1345761316442056,0.1082281056243296,0.07084930100861353,0.10648983087552634,0.05970617095056108
1.0077685341465117,0.12269802495893224,0.09275385592945208,0.062425783036096825,0.09327050914922477,0.05258199083530379
1.007815616171642,0.10844877640211482,0.07715622729359538,0.054884533548136764,0.07652751358663859,0.04672797965273438
