freq,gls,usurper,pdc_unbiased,shape_periodogram,shift_periodogram
1.0,0.02176245538732735,0.018854438159338537,-0.007335655112181927,-0.0003783098545114044,-0.0073160499609644936
1.0000470820251304,0.05134779247241603,0.029826154727301664,0.016081221596065367,0.005870329911890615,0.01584755542622529
1.0000941640502607,0.09689124580742478,0.04100870360091934,0.05094334186944231,0.01868934447973683,0.05021000952268058
1.0001412460753911,0.14848755125694818,0.052552211281547814,0.08456655871201842,0.031497332936205345,0.08336621356295669
1.0001883281005215,0.19664060203551523,0.06241488149996883,0.10917973127593883,0.04412206173340737,0.10756295050342037
1.0002354101256519,0.23592916525893703,0.06866025206255144,0.12678225514793529,0.05302177130442902,0.12490361797555269
1.0002824921507822,0.26363730657080775,0.07018412152361407,0.13936052532630389,0.05697294328185258,0.13738370652673965
1.0003295741759126,0.2780607972143743,0.07145343196313952,0.14663287491158739,0.05950045476150575,0.14459685232334643
1.000376656201043,0.27778293516045677,0.07250113187034674,0.14742341655727248,0.060722805027231194,0.14535449770568032
1.0004237382261734,0.2619162710265795,0.07043049193351864,0.139633635428265,0.060955456705915484,0.13754218475338112
1.0004708202513037,0.23107843684954268,0.06526523758967286,0.12167319492364326,0.059210322741947645,0.1195986462239946
1.0005179022764341,0.1884924826566669,0.05835521979085644,0.09811663264576473,0.056091951324639386,0.09610088291947057
1.0005649843015645,0.1401213853463462,0.05372563285358951,0.07552593926328457,0.05283860892272233,0.07358838950360265
1.0006120663266949,0.09311329616242185,0.05126544315064484,0.056936636782797936,0.04858293390800093,0.05512821345664847
1.0006591483518252,0.05338098213176131,0.05258845245874155,0.04656239048066332,0.04301913810030504,0.04494530133661961
1.0007062303769556,0.024158292773911582,0.053568700021459144,0.0379052596807291,0.03598330387510899,0.036540830391826526
1.000753312402086,0.006389706849983347,0.05334587345920635,0.024925530867037873,0.02740587896615821,0.02387889496198104
1.0008003944272164,4.4957735270936574e-05,0.05470259784461633,0.013623927240606612,0.019550666846260934,0.012875863645829499
1.0008474764523467,0.004476680458159687,0.05299094031226983,0.005279248516488982,0.017340423612696377,0.004619005115243126
1.000894558477477,0.016631009383087918,0.05490242649184454,0.00604487589630294,0.019502989018076594,0.005302450918978965
1.0009416405026075,0.030279800796216314,0.06207352438340825,0.01614856324889533,0.025391789164903,0.01517991114568579
1.0009887225277379,0.04019506929021177,0.07226885171930356,0.031662352407458065,0.03634252449510578,0.030284282395658366
1.0010358045528682,0.045271217739530065,0.08125626290593761,0.049643587368788454,0.04946271043927454,0.04779849938124188
1.0010828865779986,0.04665854735345898,0.0836542325280056,0.06394396252727896,0.06271173805734837,0.061656465885310846
1.001129968603129,0.04557434040645729,0.08337426775172724,0.06951556918541625,0.07293207409300151,0.06689844835635828
1.0011770506282593,0.04281463251624272,0.0776737226923901,0.06676401531502141,0.07841258439045767,0.06395966182900858
1.0012241326533897,0.03911406922799136,0.06863926270809598,0.05756222886158259,0.08040745296101635,0.05466452377473731
1.00127121467852,0.035734840091298535,0.05910515860184152,0.04469056838221148,0.08009291103459616,0.0417655738877089
1.0013182967036505,0.034632288517627896,0.05147248057984569,0.03354469161607427,0.07984307352373496,0.030596961940320157
1.0013653787287808,0.03686446430802818,0.052405450640387326,0.03235087082016887,0.08029075205880966,0.0293839049611155
1.0014124607539112,0.040499198873267514,0.059228353575108666,0.04235422606047071,0.08204959788616874,0.03935457158173795
1.0014595427790416,0.04245011553894062,0.0664507796854147,0.05148956578485458,0.0827919051727072,0.04849282015737929
1.001506624804172,0.04142424671447975,0.07061283819920895,0.057489670337512934,0.07907459898415893,0.0546363694810944
1.0015537068293023,0.03772147907862947,0.07098345206547342,0.05838903434484734,0.07210869492306535,0.055772488840912994
1.0016007888544327,0.032149333674356434,0.06949023786233204,0.05286952532393206,0.06108473609489885,0.050620210033023666
1.001647870879563,0.025799799790141527,0.06584453685068718,0.040386054375886556,0.04655316487001336,0.038638763393132956
1.0016949529046935,0.020580986012262138,0.05825961868301884,0.02276083148008517,0.031279602607666906,0.02157047316272194
1.0017420349298238,0.01993155776046648,0.05290204721949751,0.008396000375120035,0.0198130868973609,0.007640662456822259
1.0017891169549542,0.027489951613850306,0.05179282282600428,0.00883020356959996,0.017101115344586564,0.008177026226974533
1.0018361989800846,0.042074300128446054,0.05185651999782838,0.022145335055818467,0.02165427016754296,0.021314353775436164
1.001883281005215,0.05845891480384451,0.05591028661453183,0.04104344236602053,0.03102107662078392,0.03986040034335061
1.0019303630303453,0.07582159493280267,0.0626879473136615,0.05832937685591873,0.040728475023585405,0.05679871410913448
1.0019774450554757,0.09824195100672209,0.06865348711018059,0.07041397317164165,0.050027637899446385,0.06856682987632827
1.002024527080606,0.1303669711588208,0.06679195196536894,0.07896421651578898,0.05723581560859019,0.07688368787781528
1.0020716091057364,0.17464242099810953,0.06036993554494635,0.08832693698111686,0.06194889600231691,0.08610706161285847
1.0021186911308668,0.22917237164395338,0.06178055813267284,0.11355266104308831,0.06557290203553977,0.11127039356604934
1.0021657731559972,0.2864808872447173,0.0680630266732235,0.14880372324738836,0.06923370938409709,0.14650446512888513
1.0022128551811276,0.335488571803669,0.07459733884355359,0.17945522269565434,0.07239526008008784,0.17716654380536906
1.002259937206258,0.3667004160945303,0.07892486618825623,0.20044309409803335,0.07379922166690299,0.1981917902774049
1.0023070192313883,0.37630521047742305,0.0804194971780397,0.20989430295355302,0.07295087983493583,0.20769330027134505
1.0023541012565187,0.3658732131217113,0.07879132966500665,0.20800353236518512,0.06993513365331042,0.20586081135581882
1.002401183281649,0.3393357840705059,0.07477468321204857,0.19716291122807472,0.06436857322376104,0.19511563703590645
1.0024482653067794,0.30043566038503033,0.06913933138022943,0.1783931936762516,0.055764508308200594,0.17652070031478845
1.0024953473319098,0.25183659939415354,0.061429375697444014,0.15384153094853617,0.04324283440153729,0.15229112275227344
1.0025424293570402,0.1956066522565673,0.050638337610957235,0.12081929242955049,0.029089355212734258,0.11970506575081166
1.0025895113821706,0.13475970805500284,0.03590808950431294,0.07564140824241966,0.014564588641821348,0.07504801311789916
1.002636593407301,0.07582916802294695,0.021632694047937162,0.025728531183742454,0.0035864447172807906,0.02557443909831544
1.0026836754324313,0.03145358980808763,0.020386483608927662,-0.0040036080406334615,0.0009778044404183755,-0.004037789915660768
1.0027307574575617,0.01779891286180085,0.030011680522856334,-0.006351274616742859,0.01036072467674907,-0.00673970066200591
1.002777839482692,0.04358985242398123,0.030883282297369467,0.006591376950054447,0.027010262879557014,0.0055650907113884845
1.0028249215078224,0.1037077589167159,0.03368766629516408,0.04281328660270074,0.040892855008079085,0.04127138805640885
1.0028720035329528,0.18101238562213362,0.04364169945776417,0.0979436666785688,0.05201748879420605,0.09605916584446067
1.0029190855580832,0.25636899888384335,0.06022577370314654,0.15380629462607742,0.057567437915123296,0.1518385370330432
1.0029661675832136,0.31832235074100634,0.07669170412906931,0.19704252226634572,0.05527532219231244,0.1952181862886098
1.003013249608344,0.36361141655314383,0.08426975638808909,0.228525784613192,0.054185075005709384,0.2267899769274478
1.0030603316334743,0.39341420767750745,0.0886045074356756,0.24979870354304085,0.05332551280031063,0.24812543177214916
1.0031074136586047,0.4102870696014962,0.08964175437057814,0.26258314989231946,0.05120900989962566,0.26098159533179804
1.003154495683735,0.41662904201390033,0.08915007236214863,0.266777273312063,0.04855191046596168,0.26524153665046835
1.0032015777088654,0.41405085665469693,0.08698323801677815,0.26326150551395927,0.044879710529737195,0.2618028611065923
1.0032486597339958,0.4030953535584088,0.08317296962172831,0.251751202986526,0.04003216637439606,0.25039377408624747
1.0032957417591262,0.38301151602067063,0.07765618168633029,0.2324239377319079,0.034116459948319224,0.23120311249071349
1.0033428237842565,0.3514583105172215,0.07008441410058323,0.2047530276495091,0.02693063609981755,0.2037254248876466
1.003389905809387,0.3042863356687068,0.060179455415972916,0.16911475512504195,0.018641160101698372,0.16834862248627416
1.0034369878345173,0.2364892670841809,0.04858553499651455,0.12615890065588273,0.009793698656046972,0.1257132692888482
1.0034840698596477,0.14805992805189566,0.03588811314682669,0.07745804013496241,0.0013762211648427804,0.07735111270314007
1.003531151884778,0.05937981673678241,0.026869748245611218,0.035632586371168055,-0.004109457724556077,0.03576276562466013
1.0035782339099084,0.016571701488668728,0.025622166612689724,0.012038086514572617,-0.003970664997423878,0.012179983396787126
1.0036253159350388,0.04141534161646615,0.03455657080974775,0.014399178728297872,0.004304593039673131,0.014225882462975294
1.0036723979601692,0.0978579156313711,0.047778753683806977,0.03595348541122598,0.017183232988024304,0.035282918308067665
1.0037194799852995,0.14599333246590304,0.06274083811506449,0.06503465797160808,0.03219771343924865,0.06380842998788133
1.00376656201043,0.17300879075255565,0.0729399453207793,0.0922030709843016,0.04685055422066185,0.09048252910971359
1.0038136440355603,0.18229222765708752,0.08120847570486649,0.11374971918924169,0.05668661118406332,0.11173891739894293
1.0038607260606907,0.18262972424027749,0.08624280839187952,0.12736778710133306,0.06537961247657648,0.1251223670583836
1.003907808085821,0.18292620727983336,0.08691074641461335,0.13485525602086357,0.0740820045178088,0.13238459563385646
1.0039548901109514,0.18798821740501145,0.08701756953776982,0.13913083302593265,0.07849259787942967,0.13655565867704214
1.0040019721360818,0.19658928748535154,0.08619408869495306,0.1397247738744464,0.07966909593006831,0.13712078390678456
1.0040490541612122,0.20361099360789395,0.08547183409345792,0.1356935801867525,0.07742630550002387,0.13313506767155187
1.0040961361863425,0.20356945018764083,0.08151244040303739,0.1287855413388881,0.07427146900581054,0.12629124258621394
1.004143218211473,0.19261735903368254,0.07279531393966007,0.11776025800915435,0.06909249255265416,0.11538346722028942
1.0041903002366033,0.1692114287165738,0.06188112685668528,0.09836742477706704,0.06157989942288715,0.09617748573025593
1.0042373822617336,0.13469585530973552,0.04980931617699093,0.07519967777083232,0.05219699403077139,0.07328345553912025
1.004284464286864,0.094068350002802,0.03889965565983308,0.051842634052145065,0.04033924309137992,0.05032353802470499
1.0043315463119944,0.0558705414627791,0.030184247459816654,0.03082107495389939,0.027258886198050506,0.029778370120661406
1.0043786283371248,0.029785725493520713,0.025770506208024135,0.019809015244991575,0.015401712287515116,0.019213705321341534
1.0044257103622551,0.022326134922130727,0.02522699412654031,0.01684685304795892,0.006493838829676587,0.016589102286486627
1.0044727923873855,0.03362727707623793,0.02811193513629691,0.01768087969631584,0.0028181636165701394,0.017561498156938363
1.004519874412516,0.057935866130881315,0.0337606116280708,0.0238553638180855,0.0041604908998213435,0.02368089957951086
1.0045669564376463,0.08691312585069338,0.04203493456064607,0.038233159934289905,0.010719908880454354,0.03780251799778381
1.0046140384627766,0.11302745450084833,0.05144346426677603,0.05542672474865837,0.022060331195412168,0.05456801041401216
1.004661120487907,0.13143773576861661,0.05950263119900501,0.07126698378066398,0.034714967395348774,0.06995218508220011
1.0047082025130374,0.140315951549541,0.0649183529669987,0.0817840112464661,0.04697002930558216,0.08005078507382327
1.0047552845381678,0.14016084842095028,0.0660581682638253,0.0846685751900148,0.05708431954750283,0.08260118043596378
1.0048023665632981,0.13271042804166153,0.06376212915908805,0.08028160564993014,0.06333605598024833,0.07800210089641643
1.0048494485884285,0.1199532079956697,0.05982720698163733,0.06958311394397716,0.06877399206976471,0.06710331867087747
1.0048965306135589,0.10352759540252561,0.05390152930305584,0.05738407400153901,0.07134741545137605,0.05479097834689349
1.0049436126386893,0.08458770500586026,0.045559911345768395,0.04469505929439128,0.07072923316400657,0.04209529529563441
1.0049906946638196,0.06411017510052013,0.03827107627220993,0.03435472552873721,0.06749536033228737,0.03184887469828701
1.00503777668895,0.043500849939608656,0.031217874227322084,0.022887706523455283,0.061392525295040426,0.020585070382596465
1.0050848587140804,0.02497562650004661,0.02526828832521176,0.013888116903115118,0.05298447498610955,0.011887324921161058
1.0051319407392107,0.011013597455985432,0.022210398086819252,0.011624969459267675,0.04340017181756894,0.009981526065634834
1.0051790227643411,0.003334338693202587,0.019734467741993538,0.009001101837417943,0.032876014789380355,0.007753018616246763
1.0052261047894715,0.0027948227754708652,0.015098561460457186,0.005716764128480125,0.023580933515049377,0.0048203617914955605
1.0052731868146019,0.010164673003053454,0.010745682965756453,0.005314070387151807,0.014821646006052154,0.004749083279036283
1.0053202688397322,0.026566180290056158,0.008341026178269156,0.008193549268036414,0.005826753313891697,0.007966997292581846
1.0053673508648626,0.05291846997433676,0.008461537685354502,0.011498759854167706,0.0016088884348995866,0.01142955327136674
1.005414432889993,0.08828034555015178,0.012272883715414995,0.017065936640710815,0.0005523456928226924,0.017032759024315988
1.0054615149151234,0.12763762777320273,0.016127926966100124,0.025647230237824777,0.0019339703882777653,0.02555564347828871
1.0055085969402537,0.16155770115500132,0.020082096381148423,0.038076850744054896,0.007511501817607472,0.03776654172648825
1.0055556789653841,0.18078890709766565,0.023686605585587456,0.05135766337998839,0.016703114646505205,0.05069737202319851
1.0056027609905145,0.18307418566708303,0.025647868089352106,0.06056084021799014,0.027278880073596433,0.059511321106902146
1.0056498430156449,0.1741533504439713,0.026495377995684466,0.06655908741414072,0.034957062652600665,0.06523498622842397
1.0056969250407752,0.16242605985016223,0.026033038404646373,0.07063087442771013,0.04097544377750333,0.06909658623324995
1.0057440070659056,0.15418810481596457,0.02485340783494156,0.07107575192890922,0.043288875227187024,0.06946129800441543
1.005791089091036,0.1523552110015489,0.022740248631022492,0.0660360559428213,0.04255632799480029,0.06444442757120601
1.0058381711161664,0.15691036178882456,0.021566255992181965,0.06130313889977103,0.04137605949255971,0.05975077096197377
1.0058852531412967,0.16538784679386007,0.023108986998559664,0.06307528196508604,0.04015482417688644,0.06156666817201879
1.005932335166427,0.17322460684996496,0.022070601222772573,0.06323184659303546,0.03726352847633413,0.061825423178591014
1.0059794171915575,0.17475929729964576,0.019817552286606133,0.05880087400333982,0.032670923273815274,0.05755750916923903
1.0060264992166879,0.16548577922015562,0.017785817358209745,0.05204155960234529,0.027322814847592213,0.05099189385006399
1.0060735812418182,0.1445721481217929,0.015656970789726304,0.04234591607178599,0.020482851094003544,0.041550036024537426
1.0061206632669486,0.11538472372115638,0.013916171541590857,0.03266210113426135,0.012272528153322755,0.0321767093303158
1.006167745292079,0.08342022676517998,0.011414609349716148,0.0259645785337829,0.00482626792788474,0.025763515056919536
1.0062148273172093,0.053714935068683495,0.010559870634623407,0.01794830890199036,-0.00034255656904903976,0.017948396165472415
1.0062619093423397,0.029620632829972474,0.00972110017642666,0.006428025048282717,-0.0031835111910975314,0.00654408206026143
1.00630899136747,0.012907514843990737,0.010098570463906009,-0.004503164505502606,-0.00222468651852909,-0.004415631521028671
1.0063560733926005,0.004292560353454192,0.011216303368440312,-0.010519166817943732,0.0014227702867942236,-0.010565532806527934
1.0064031554177308,0.0038095921685766332,0.014566022348776471,-0.007972360122875525,0.0057777382355355044,-0.00818571386136077
1.0064502374428612,0.010924293923755681,0.021542066707197025,0.0013341291502741227,0.014707353604036888,0.0007758744375942036
1.0064973194679916,0.02453035587728399,0.027171038851838997,0.011333716656649779,0.024387012294514468,0.010404611336662296
1.006544401493122,0.042966387475684646,0.03135016238222925,0.020787738978896356,0.03357588113649377,0.019512120130340444
1.0065914835182523,0.06411092062196938,0.03314372793144905,0.03329944681240632,0.039018715795174436,0.031823372669478975
1.0066385655433827,0.08556714248621351,0.035335312567106446,0.049462130528264495,0.04085961759335553,0.04792360645523831
1.006685647568513,0.10493697207975199,0.037387680059663704,0.06485229624100503,0.03973737265198036,0.06335903378409423
1.0067327295936435,0.12014720761669652,0.038184811415031786,0.07640706666955516,0.036976043915418255,0.0750141987586146
1.0067798116187738,0.12974860817624662,0.03724151017109818,0.08294186479002422,0.03306600142375333,0.081686619721318
1.0068268936439042,0.1331160769266914,0.0376238342254872,0.08436945777741765,0.027864683118541168,0.08329647934305241
1.0068739756690346,0.13051634907150206,0.034869260994665,0.08386978816652868,0.022322988513407596,0.08299330879396939
1.006921057694165,0.12301693370584733,0.029254308381303974,0.08185258015702256,0.01765361586692014,0.08114434335448835
1.0069681397192953,0.11219272060745543,0.02250490049277654,0.07585112215539112,0.012631750418083747,0.07532829453294798
1.0070152217444257,0.09964098937742749,0.016812389866575447,0.06985230351433948,0.007892967699212378,0.06950756703719191
1.007062303769556,0.08648287672211809,0.012332219974799706,0.06302251331950957,0.004136240694863726,0.06282212692981325
1.0071093857946865,0.07315337862299943,0.010420789234554964,0.053521194673379444,0.001304694984813268,0.05343366714946664
1.0071564678198168,0.05967551136841471,0.009504401691723627,0.042771215350936226,-0.0010164567508892722,0.04277898326383816
1.0072035498449472,0.046352747241279996,0.007230527222015286,0.029687677967592516,-0.0026417430932778405,0.029766457657713817
1.0072506318700776,0.03458526276589038,0.006563538789752884,0.01916866027493343,-0.0023453236890882555,0.019243781856246603
1.007297713895208,0.02727830692374265,0.007121182377430916,0.01473006896934623,-0.001533612593871581,0.01477760875499939
1.0073447959203383,0.0280866607277734,0.010046285972834232,0.01711698325886342,0.000491519427920737,0.01708607271588019
1.0073918779454687,0.03925806445151868,0.016689749264157006,0.028584290137595406,0.00513329762494098,0.028369839713414977
1.007438959970599,0.059562255279517966,0.02427911188990952,0.043832242766228824,0.010619350599139042,0.04340195070047212
1.0074860419957294,0.08449757331606145,0.03061126137392784,0.058037587268334905,0.016127909982538772,0.05739530568115531
1.0075331240208598,0.10858230355013457,0.03487464833418984,0.06858033205585247,0.021917675951057543,0.06772262574057661
1.0075802060459902,0.12742598805780986,0.03819930751274036,0.07621925524513734,0.025621485941437407,0.07522669843564384
1.0076272880711206,0.13840784538629322,0.0385991553991487,0.07904744927672683,0.027495319320928673,0.07798791197214575
1.007674370096251,0.14057521646913557,0.036682024741556365,0.0769603579802706,0.028770594185035803,0.07585579038298222
1.0077214521213813,0.1345761316442056,0.0341661403375455,0.07084930100861353,0.028073552794407118,0.06976995983430095
1.0077685341465117,0.12269802495893224,0.03004269391385488,0.062425783036096825,0.02549562096067562,0.061440320245814174
