freq,gls,usurper,pdc_unbiased,shape_periodogram,shift_periodogram
1.0,0.02176245538732735,0.02450940992867491,-0.007335655112181927,-0.002944963947887072,-0.0072278018801574815
1.0000470820251304,0.05134779247241603,0.04145536426664196,0.016081221596065367,0.006744267955086502,0.015835031086231233
1.0000941640502607,0.09689124580742478,0.05672559210044688,0.05094334186944231,0.02435160121551799,0.05007533183741121
1.0001412460753911,0.14848755125694818,0.07277207613839864,0.08456655871201842,0.04027731456132954,0.08318293082462046
1.0001883281005215,0.19664060203551523,0.08537855013252584,0.10917973127593883,0.054092532529962566,0.10740319590426557
1.0002354101256519,0.23592916525893703,0.09200086689726682,0.12678225514793529,0.06414367799586543,0.1247598540423437
1.0002824921507822,0.26363730657080775,0.09444672738195223,0.13936052532630389,0.06952843061246362,0.13723111131166124
1.0003295741759126,0.2780607972143743,0.09542317577283634,0.14663287491158739,0.07266470415990935,0.1444480995615845
1.000376656201043,0.27778293516045677,0.09532202605014632,0.14742341655727248,0.07375348992974884,0.14521530034869393
1.0004237382261734,0.2619162710265795,0.0919059545685892,0.139633635428265,0.07329263621342737,0.13741266844679745
1.0004708202513037,0.23107843684954268,0.08428762848409758,0.12167319492364326,0.07076283030601668,0.11946446709240834
1.0005179022764341,0.1884924826566669,0.0742772588885761,0.09811663264576473,0.06653351723323545,0.09596483713389461
1.0005649843015645,0.1401213853463462,0.06604806536985135,0.07552593926328457,0.061908035055271836,0.07346477881394531
1.0006120663266949,0.09311329616242185,0.060462702830347236,0.056936636782797936,0.05601077099255657,0.05503095014868954
1.0006591483518252,0.05338098213176131,0.05907438741226847,0.04656239048066332,0.04794402008082175,0.044907662252327334
1.0007062303769556,0.024158292773911582,0.05752924062257866,0.0379052596807291,0.037696645667480544,0.036587447530988595
1.000753312402086,0.006389706849983347,0.052857985833515024,0.024925530867037873,0.025971659536678536,0.024007448864361347
1.0008003944272164,4.4957735270936574e-05,0.05070833707267145,0.013623927240606612,0.015457260523278815,0.013074667752820367
1.0008474764523467,0.004476680458159687,0.046726832550287485,0.005279248516488982,0.011313321250793233,0.004879209065124399
1.000894558477477,0.016631009383087918,0.04738521884004785,0.00604487589630294,0.012697385072792576,0.005595928175462933
1.0009416405026075,0.030279800796216314,0.055739777968289266,0.01614856324889533,0.01890867021847095,0.01547790817697948
1.0009887225277379,0.04019506929021177,0.06945760679322358,0.031662352407458065,0.03029455276867645,0.030595051082278432
1.0010358045528682,0.045271217739530065,0.08224369340398623,0.049643587368788454,0.04364793253610899,0.048132211224143615
1.0010828865779986,0.04665854735345898,0.08634490500731136,0.06394396252727896,0.056944232819937664,0.06201799633732357
1.001129968603129,0.04557434040645729,0.08624502435546089,0.06951556918541625,0.06766263302538286,0.06726794552675355
1.0011770506282593,0.04281463251624272,0.08003005753020256,0.06676401531502141,0.07416829660671516,0.06431274843569121
1.0012241326533897,0.03911406922799136,0.07108073409218506,0.05756222886158259,0.07747350945862516,0.05498507137288161
1.00127121467852,0.035734840091298535,0.06147196239106062,0.04469056838221148,0.07830979071980392,0.0420509315880711
1.0013182967036505,0.034632288517627896,0.05409892596539846,0.03354469161607427,0.0792283527592969,0.030844190637259537
1.0013653787287808,0.03686446430802818,0.057124971770714635,0.03235087082016887,0.08047138676123024,0.02960627878554298
1.0014124607539112,0.040499198873267514,0.06651529468805573,0.04235422606047071,0.0824896338948783,0.03957459036931696
1.0014595427790416,0.04245011553894062,0.07471596542020197,0.05148956578485458,0.08292065862881978,0.04872560716016846
1.001506624804172,0.04142424671447975,0.07925706244152224,0.057489670337512934,0.07930049883927692,0.05485615462107164
1.0015537068293023,0.03772147907862947,0.07843879272218518,0.05838903434484734,0.0719850853929834,0.055983526782170126
1.0016007888544327,0.032149333674356434,0.07447339618606692,0.05286952532393206,0.05974189852386827,0.050839014177686194
1.001647870879563,0.025799799790141527,0.06693080185441101,0.040386054375886556,0.04401309490233277,0.03885751356340469
1.0016949529046935,0.020580986012262138,0.05558846527818639,0.02276083148008517,0.027087013611938618,0.021804723606759255
1.0017420349298238,0.01993155776046648,0.04606306006902636,0.008396000375120035,0.014061376521224194,0.007898082129744435
1.0017891169549542,0.027489951613850306,0.043328500022156186,0.00883020356959996,0.010844897246039393,0.008444630083248287
1.0018361989800846,0.042074300128446054,0.04389617747989664,0.022145335055818467,0.01579403874645073,0.021580389021431893
1.001883281005215,0.05845891480384451,0.049396231412437944,0.04104344236602053,0.026093765946582175,0.04011816119412425
1.0019303630303453,0.07582159493280267,0.059162099623053035,0.05832937685591873,0.03730672816586555,0.05703012727806747
1.0019774450554757,0.09824195100672209,0.06798984451426718,0.07041397317164165,0.047404114663246996,0.06879587611244836
1.002024527080606,0.1303669711588208,0.0686601427536149,0.07896421651578898,0.055252131802304635,0.07711117545946065
1.0020716091057364,0.17464242099810953,0.06386169385409474,0.08832693698111686,0.060084674352105426,0.08634273621678731
1.0021186911308668,0.22917237164395338,0.06800528573615425,0.11355266104308831,0.06338778622561765,0.11152210405688791
1.0021657731559972,0.2864808872447173,0.07792135924402191,0.14880372324738836,0.06646056725781063,0.14677453827648318
1.0022128551811276,0.335488571803669,0.08726692605285084,0.17945522269565434,0.06867740660041703,0.17745727086945104
1.002259937206258,0.3667004160945303,0.09332932403678162,0.20044309409803335,0.0690609272093055,0.19849853462809347
1.0023070192313883,0.37630521047742305,0.09539009028144481,0.20989430295355302,0.06712207972109674,0.20801565721726217
1.0023541012565187,0.3658732131217113,0.09324357231093432,0.20800353236518512,0.06292175805050398,0.20620374530812283
1.002401183281649,0.3393357840705059,0.08702601580524218,0.19716291122807472,0.056230111030465206,0.19548263445507547
1.0024482653067794,0.30043566038503033,0.07809079104605639,0.1783931936762516,0.046708324878709365,0.17691115307397265
1.0024953473319098,0.25183659939415354,0.06723028131496694,0.15384153094853617,0.034340008590427115,0.15267370185503318
1.0025424293570402,0.1956066522565673,0.05341512599803473,0.12081929242955049,0.02174400445131022,0.12002717577740167
1.0025895113821706,0.13475970805500284,0.03478080150859152,0.07564140824241966,0.008727449841193115,0.07529417802554422
1.002636593407301,0.07582916802294695,0.0161190326108672,0.025728531183742454,-0.00026780653193859624,0.025722078573433754
1.0026836754324313,0.03145358980808763,0.013518686628851072,-0.0040036080406334615,-0.0010526431005079106,-0.003964194664113061
1.0027307574575617,0.01779891286180085,0.026668807248903168,-0.006351274616742859,0.010592281073675113,-0.006719518263998123
1.002777839482692,0.04358985242398123,0.03418595230688865,0.006591376950054447,0.029360193985676842,0.005559183833543245
1.0028249215078224,0.1037077589167159,0.044131060695453174,0.04281328660270074,0.046414381276212176,0.04120637819728517
1.0028720035329528,0.18101238562213362,0.06144915036121117,0.0979436666785688,0.06043816980859963,0.09596601381872898
1.0029190855580832,0.25636899888384335,0.08375821573992297,0.15380629462607742,0.06990372872470749,0.151707768077681
1.0029661675832136,0.31832235074100634,0.10569559737043799,0.19704252226634572,0.06960026516937967,0.19507696822066575
1.003013249608344,0.36361141655314383,0.11636011058622078,0.228525784613192,0.06840517073246037,0.22667859266492396
1.0030603316334743,0.39341420767750745,0.1229667573864748,0.24979870354304085,0.06781140964520758,0.24802716587681847
1.0031074136586047,0.4102870696014962,0.1252305761797224,0.26258314989231946,0.06585567270884166,0.2608815833655451
1.003154495683735,0.41662904201390033,0.12477170929182425,0.266777273312063,0.06317101108062045,0.2651300901236605
1.0032015777088654,0.41405085665469693,0.12179551125833629,0.26326150551395927,0.0591777877401654,0.2616709965980052
1.0032486597339958,0.4030953535584088,0.11630408283443276,0.251751202986526,0.05378417193759776,0.25023276849853177
1.0032957417591262,0.38301151602067063,0.10821711760986362,0.2324239377319079,0.04711248359262324,0.23100874241055014
1.0033428237842565,0.3514583105172215,0.09704392321030382,0.2047530276495091,0.038859508370507716,0.20349970802403064
1.003389905809387,0.3042863356687068,0.08246618089550138,0.16911475512504195,0.029160218811592132,0.16810271116258474
1.0034369878345173,0.2364892670841809,0.06515543920949853,0.12615890065588273,0.018439530940060005,0.12547143101107455
1.0034840698596477,0.14805992805189566,0.04599894489813108,0.07745804013496241,0.008025394897932529,0.07713387866480302
1.003531151884778,0.05937981673678241,0.03118371580770509,0.035632586371168055,0.0005441412895587527,0.03559159723146645
1.0035782339099084,0.016571701488668728,0.02595743737805803,0.012038086514572617,-0.0013088158157877193,0.012076610821183506
1.0036253159350388,0.04141534161646615,0.033718791589480705,0.014399178728297872,0.005045514088500069,0.014213437556943428
1.0036723979601692,0.0978579156313711,0.047733451811193296,0.03595348541122598,0.015869781676067174,0.03537981744607306
1.0037194799852995,0.14599333246590304,0.0639887045830718,0.06503465797160808,0.030471237161086177,0.06396140544459818
1.00376656201043,0.17300879075255565,0.07782799807759971,0.0922030709843016,0.04534519088970685,0.09066743654982294
1.0038136440355603,0.18229222765708752,0.08931940834206815,0.11374971918924169,0.057285404661453446,0.11188935761538185
1.0038607260606907,0.18262972424027749,0.09695991864459798,0.12736778710133306,0.06944080700952182,0.12520852894128826
1.003907808085821,0.18292620727983336,0.1005572061148565,0.13485525602086357,0.08061790326473277,0.13244262105243607
1.0039548901109514,0.18798821740501145,0.10267198703371846,0.13913083302593265,0.08616267348062341,0.1366063814964187
1.0040019721360818,0.19658928748535154,0.10237678452314886,0.1397247738744464,0.0876139902925332,0.13717021079307765
1.0040490541612122,0.20361099360789395,0.10280031616888106,0.1356935801867525,0.08589421100690589,0.13316095442522388
1.0040961361863425,0.20356945018764083,0.10022153505815379,0.1287855413388881,0.08248119704798244,0.1263059133334146
1.004143218211473,0.19261735903368254,0.09094091001539666,0.11776025800915435,0.0758138927774695,0.11540915089842559
1.0041903002366033,0.1692114287165738,0.07780319281025794,0.09836742477706704,0.06724163126986446,0.09619615867802704
1.0042373822617336,0.13469585530973552,0.062421964939098684,0.07519967777083232,0.05687384068367926,0.07329168971749589
1.004284464286864,0.094068350002802,0.04823710163314955,0.051842634052145065,0.04369553760518081,0.05033093721601737
1.0043315463119944,0.0558705414627791,0.036332805895969135,0.03082107495389939,0.029099485894056688,0.029794677811424673
1.0043786283371248,0.029785725493520713,0.029011671913625792,0.019809015244991575,0.015554083049214622,0.019253482570573816
1.0044257103622551,0.022326134922130727,0.026470731741428125,0.01684685304795892,0.005091516152958246,0.016658045700314844
1.0044727923873855,0.03362727707623793,0.027784756316730302,0.01768087969631584,-2.8147178202320477e-05,0.017670974890072213
1.004519874412516,0.057935866130881315,0.03249511562701005,0.0238553638180855,-1.9831114695174108e-05,0.02384136693103818
1.0045669564376463,0.08691312585069338,0.04076938802221202,0.038233159934289905,0.005465382804081155,0.03801877541794234
1.0046140384627766,0.11302745450084833,0.05096386092568583,0.05542672474865837,0.015981654168524526,0.05484123109100625
1.004661120487907,0.13143773576861661,0.059218215403441354,0.07126698378066398,0.027608382244240236,0.0702881209135529
1.0047082025130374,0.140315951549541,0.06518096071043994,0.0817840112464661,0.03876580752456981,0.08044668228251407
1.0047552845381678,0.14016084842095028,0.06698081112662335,0.0846685751900148,0.04831948051472455,0.08303483749910835
1.0048023665632981,0.13271042804166153,0.0643466139433052,0.08028160564993014,0.05446542245131861,0.07845437397744942
1.0048494485884285,0.1199532079956697,0.05942831852795457,0.06958311394397716,0.059939724563628546,0.0675722027831651
1.0048965306135589,0.10352759540252561,0.0524473617978564,0.05738407400153901,0.06231559462554911,0.05527894662814203
1.0049436126386893,0.08458770500586026,0.043761371132088715,0.04469505929439128,0.062069630377605926,0.04257699105112636
1.0049906946638196,0.06411017510052013,0.03574189890082916,0.03435472552873721,0.05977073237996528,0.03229671015778075
1.00503777668895,0.043500849939608656,0.02879359842569076,0.022887706523455283,0.05504792057896593,0.020974529595186503
1.0050848587140804,0.02497562650004661,0.022755878204038085,0.013888116903115118,0.048110972707735726,0.012205358502730246
1.0051319407392107,0.011013597455985432,0.01983526962184517,0.011624969459267675,0.040267290789402686,0.010212901917059689
1.0051790227643411,0.003334338693202587,0.01622116062104119,0.009001101837417943,0.0311626782313844,0.007905657196132027
1.0052261047894715,0.0027948227754708652,0.011859272707851441,0.005716764128480125,0.022843433871296087,0.004912719863541913
1.0052731868146019,0.010164673003053454,0.008197396010574768,0.005314070387151807,0.013778035778876882,0.004827643730831803
1.0053202688397322,0.026566180290056158,0.006412951239053039,0.008193549268036414,0.005283057332092442,0.008003187373371985
1.0053673508648626,0.05291846997433676,0.00703463994299388,0.011498759854167706,0.0004996910837348685,0.011474139758623365
1.005414432889993,0.08828034555015178,0.0114426614832073,0.017065936640710815,-0.00173209009962099,0.01711622079680585
1.0054615149151234,0.12763762777320273,0.01631728366041497,0.025647230237824777,-0.0017216580986527663,0.025691846680267937
1.0055085969402537,0.16155770115500132,0.021983008043668623,0.038076850744054896,0.0031764454234310215,0.03794235477793198
1.0055556789653841,0.18078890709766565,0.02722008603865589,0.05135766337998839,0.012170163645107635,0.05090434079524538
1.0056027609905145,0.18307418566708303,0.03066460606070885,0.06056084021799014,0.02310639001078331,0.059732873651427106
1.0056498430156449,0.1741533504439713,0.03260414313070727,0.06655908741414072,0.030863063727207037,0.0654730373253606
1.0056969250407752,0.16242605985016223,0.03365374249316587,0.07063087442771013,0.03699635712661451,0.06934570403255831
1.0057440070659056,0.15418810481596457,0.03359737105803551,0.07107575192890922,0.04041419246254729,0.06968074081948171
1.005791089091036,0.1523552110015489,0.031932742397056735,0.0660360559428213,0.0407692375795662,0.06462712705922125
1.0058381711161664,0.15691036178882456,0.030637546143954947,0.06130313889977103,0.04001239046402379,0.05991654218520501
1.0058852531412967,0.16538784679386007,0.03231801147904953,0.06307528196508604,0.0391268246012755,0.061718241832956204
1.005932335166427,0.17322460684996496,0.030803997310254662,0.06323184659303546,0.03681393813631174,0.06195022325152851
1.0059794171915575,0.17475929729964576,0.027623290234291418,0.05880087400333982,0.03294184435812076,0.05764550749803294
1.0060264992166879,0.16548577922015562,0.02391224467795967,0.05204155960234529,0.027930176714634734,0.05105295283291145
1.0060735812418182,0.1445721481217929,0.01956299617607724,0.04234591607178599,0.021278182207274017,0.041584341751902065
1.0061206632669486,0.11538472372115638,0.016473996304019092,0.03266210113426135,0.01313194490358283,0.03218454307859731
1.006167745292079,0.08342022676517998,0.012926222483020569,0.0259645785337829,0.005956077841446124,0.02574018755539724
1.0062148273172093,0.053714935068683495,0.011069440452578384,0.01794830890199036,0.0007393010822129776,0.017911318767049062
1.0062619093423397,0.029620632829972474,0.009242105899631502,0.006428025048282717,-0.0017825678478495103,0.006486641060308222
1.00630899136747,0.012907514843990737,0.008493450513472946,-0.004503164505502606,-8.588627767735256e-05,-0.00449737488378058
1.0063560733926005,0.004292560353454192,0.009441823266345028,-0.010519166817943732,0.004866214918773349,-0.010683593990635107
1.0064031554177308,0.0038095921685766332,0.012845853830097302,-0.007972360122875525,0.01131632694299144,-0.008365162712004538
1.0064502374428612,0.010924293923755681,0.020629598722889154,0.0013341291502741227,0.022387985434613556,0.0005475948715173724
1.0064973194679916,0.02453035587728399,0.028300486078487917,0.011333716656649779,0.033905629000062616,0.010142633697379482
1.006544401493122,0.042966387475684646,0.03459790598979407,0.020787738978896356,0.04496093108473911,0.019217113060345466
1.0065914835182523,0.06411092062196938,0.03976952735083757,0.03329944681240632,0.05096510958108312,0.03153375426907013
1.0066385655433827,0.08556714248621351,0.04469252593237953,0.049462130528264495,0.052246891205716066,0.04766921484754071
1.006685647568513,0.10493697207975199,0.04860562075734597,0.06485229624100503,0.05053592619232499,0.06312982405942802
1.0067327295936435,0.12014720761669652,0.050496011804358046,0.07640706666955516,0.04682111495445374,0.07481240624319062
1.0067798116187738,0.12974860817624662,0.051056451117433135,0.08294186479002422,0.04116592915146059,0.08152938429747768
1.0068268936439042,0.1331160769266914,0.05171512360942223,0.08436945777741765,0.03468775786565771,0.08316272426344831
1.0068739756690346,0.13051634907150206,0.04906635975192793,0.08386978816652868,0.027498896244721162,0.08289438792926554
1.006921057694165,0.12301693370584733,0.04294274314480447,0.08185258015702256,0.021995065328732067,0.08105756339675996
1.0069681397192953,0.11219272060745543,0.0352739289090406,0.07585112215539112,0.016739675026035423,0.0752325617887304
1.0070152217444257,0.09964098937742749,0.02865070753665118,0.06985230351433948,0.01183743715843054,0.06940181117854048
1.007062303769556,0.08648287672211809,0.023186509323505227,0.06302251331950957,0.007630957545687778,0.06271937705870659
1.0071093857946865,0.07315337862299943,0.019808004485385083,0.053521194673379444,0.003829681255494156,0.053354844750001906
1.0071564678198168,0.05967551136841471,0.017775752074914795,0.042771215350936226,0.0007312915002505738,0.04271931825798722
1.0072035498449472,0.046352747241279996,0.01379782038058875,0.029687677967592516,-0.001962193434066451,0.0297382410579793
1.0072506318700776,0.03458526276589038,0.011195612842685191,0.01916866027493343,-0.0026839778182856404,0.019251080696944572
1.007297713895208,0.02727830692374265,0.010245146994991072,0.01473006896934623,-0.0026077903813573936,0.014812551209924611
1.0073447959203383,0.0280866607277734,0.012430079045856458,0.01711698325886342,-0.001525017261683406,0.017159964763705557
1.0073918779454687,0.03925806445151868,0.019444948499071038,0.028584290137595406,0.001993510266550169,0.028496856510832898
1.007438959970599,0.059562255279517966,0.02838572708947522,0.043832242766228824,0.006208342734952002,0.04358882373788095
1.0074860419957294,0.08449757331606145,0.036533686324660045,0.058037587268334905,0.010994073890894285,0.05762143825763764
1.0075331240208598,0.10858230355013457,0.042456235398718,0.06858033205585247,0.01716595299008701,0.0679498884624895
1.0075802060459902,0.12742598805780986,0.04662885913899922,0.07621925524513734,0.021837564368175827,0.07543050921968829
1.0076272880711206,0.13840784538629322,0.04716421838746316,0.07904744927672683,0.024963227702183684,0.0781551027622053
1.007674370096251,0.14057521646913557,0.044518820732015706,0.0769603579802706,0.027728194059202255,0.07597747368851632
1.0077214521213813,0.1345761316442056,0.04102626794225241,0.07084930100861353,0.028353728362413802,0.06984591872859262
1.0077685341465117,0.12269802495893224,0.03564873010204898,0.062425783036096825,0.02689510291187296,0.0614709828486764
