freq,gls,usurper,pdc_unbiased,shape_periodogram,shift_periodogram
1.0,0.02176245538732735,0.020262494028323794,-0.007335655112181927,0.007352849769043715,-0.007583669221386681
1.0000470820251304,0.05134779247241603,0.030249628593665676,0.016081221596065367,0.012436367630133914,0.01564666791374003
1.0000941640502607,0.09689124580742478,0.042542233081277886,0.05094334186944231,0.02369659437975587,0.05011799812622851
1.0001412460753911,0.14848755125694818,0.055137663480298305,0.08456655871201842,0.039101757001060666,0.08325364361792677
1.0001883281005215,0.19664060203551523,0.06744266264685163,0.10917973127593883,0.057558058800574595,0.10735295277855683
1.0002354101256519,0.23592916525893703,0.07729751550051277,0.12678225514793529,0.07208762963739994,0.12461422224751174
1.0002824921507822,0.26363730657080775,0.08274336809325661,0.13936052532630389,0.08081473503314124,0.13702738475379786
1.0003295741759126,0.2780607972143743,0.08645774578707109,0.14663287491158739,0.08608522207319277,0.1442134891846196
1.000376656201043,0.27778293516045677,0.08787668275081335,0.14742341655727248,0.08905540445889201,0.14494552829497745
1.0004237382261734,0.2619162710265795,0.0851862088565096,0.139633635428265,0.08943639803520677,0.13711263259892348
1.0004708202513037,0.23107843684954268,0.07881488838928091,0.12167319492364326,0.08618296571224238,0.11914812829674136
1.0005179022764341,0.1884924826566669,0.07020066328681232,0.09811663264576473,0.0808565286006299,0.095635826508585
1.0005649843015645,0.1401213853463462,0.06310145798513046,0.07552593926328457,0.07510751458403861,0.07313289478919711
1.0006120663266949,0.09311329616242185,0.05750877566620326,0.056936636782797936,0.06806802676435128,0.05470644077648378
1.0006591483518252,0.05338098213176131,0.0541562855203507,0.04656239048066332,0.05855754494924636,0.04460964518251742
1.0007062303769556,0.024158292773911582,0.049582083127778204,0.0379052596807291,0.04636435155485101,0.036335372702417115
1.000753312402086,0.006389706849983347,0.044713655392573326,0.024925530867037873,0.032046159586117534,0.023825159606598506
1.0008003944272164,4.4957735270936574e-05,0.04197455306249822,0.013623927240606612,0.019623406340711923,0.012945659282981088
1.0008474764523467,0.004476680458159687,0.03938348709354106,0.005279248516488982,0.015331809477648783,0.004750962584804955
1.000894558477477,0.016631009383087918,0.04318505726742741,0.00604487589630294,0.01822994067833915,0.005417109563211056
1.0009416405026075,0.030279800796216314,0.05315048431052951,0.01614856324889533,0.027442670351396938,0.015204073863774138
1.0009887225277379,0.04019506929021177,0.06622731642377384,0.031662352407458065,0.04295344361348387,0.03020074527038661
1.0010358045528682,0.045271217739530065,0.07719466405594408,0.049643587368788454,0.0615259181756496,0.047602050773781074
1.0010828865779986,0.04665854735345898,0.08475983055100912,0.06394396252727896,0.07900269465006249,0.06140443946688648
1.001129968603129,0.04557434040645729,0.08966764606009828,0.06951556918541625,0.09201949579103208,0.06662256899598792
1.0011770506282593,0.04281463251624272,0.08944735866386232,0.06676401531502141,0.09800157527777235,0.06369092099402511
1.0012241326533897,0.03911406922799136,0.08388398384210875,0.05756222886158259,0.0980773272119905,0.05444265059910332
1.00127121467852,0.035734840091298535,0.07512440890187196,0.04469056838221148,0.09470408736428126,0.04161247133521866
1.0013182967036505,0.034632288517627896,0.06720588162763289,0.03354469161607427,0.0914128678997794,0.030522732783882046
1.0013653787287808,0.03686446430802818,0.06429902093197112,0.03235087082016887,0.08956579757201735,0.02938283173466306
1.0014124607539112,0.040499198873267514,0.066605862986886,0.04235422606047071,0.09048714466913872,0.039395477254126225
1.0014595427790416,0.04245011553894062,0.07098230231923315,0.05148956578485458,0.09273297622019992,0.04849971648072598
1.001506624804172,0.04142424671447975,0.07270807576952175,0.057489670337512934,0.09021792100728432,0.054598704650496016
1.0015537068293023,0.03772147907862947,0.07186439261027636,0.05838903434484734,0.08219750453490215,0.05573782468346915
1.0016007888544327,0.032149333674356434,0.06708432493893499,0.05286952532393206,0.06903590161814736,0.050601023287927774
1.001647870879563,0.025799799790141527,0.05846523497683531,0.040386054375886556,0.05064535560787595,0.03867923250243491
1.0016949529046935,0.020580986012262138,0.04582837891359371,0.02276083148008517,0.031204671235317873,0.021688728463930246
1.0017420349298238,0.01993155776046648,0.038135626250424645,0.008396000375120035,0.016910915171227985,0.007812326770543184
1.0017891169549542,0.027489951613850306,0.03766860179633512,0.00883020356959996,0.015195446304926355,0.008304943552115194
1.0018361989800846,0.042074300128446054,0.04046259073213931,0.022145335055818467,0.022037957724804064,0.021382316961277723
1.001883281005215,0.05845891480384451,0.049556904047055,0.04104344236602053,0.03565521333104733,0.039824929209569114
1.0019303630303453,0.07582159493280267,0.06010450639054153,0.05832937685591873,0.051819857696424595,0.05660276237586513
1.0019774450554757,0.09824195100672209,0.06815154283655846,0.07041397317164165,0.06925731998775084,0.06817777444867741
1.002024527080606,0.1303669711588208,0.06876184723883935,0.07896421651578898,0.08186237621308613,0.0763910145845737
1.0020716091057364,0.17464242099810953,0.0660030986243106,0.08832693698111686,0.09034763939565685,0.08555946030332108
1.0021186911308668,0.22917237164395338,0.06900790430770666,0.11355266104308831,0.09693511800970168,0.11073998237949724
1.0021657731559972,0.2864808872447173,0.07581587141436551,0.14880372324738836,0.10342861129149414,0.14605242955134948
1.0022128551811276,0.335488571803669,0.08227512014628094,0.17945522269565434,0.10903511847188088,0.17681098095986322
1.002259937206258,0.3667004160945303,0.08601977518284658,0.20044309409803335,0.11202498277797264,0.19791064058550933
1.0023070192313883,0.37630521047742305,0.08653485259238243,0.20989430295355302,0.11157929435977752,0.2074356710667068
1.0023541012565187,0.3658732131217113,0.08408773113405343,0.20800353236518512,0.10792587448971773,0.205569324101655
1.002401183281649,0.3393357840705059,0.08064391246458,0.19716291122807472,0.10140068685342525,0.19473743896236087
1.0024482653067794,0.30043566038503033,0.07612164731187708,0.1783931936762516,0.08982612995409606,0.17604436015726396
1.0024953473319098,0.25183659939415354,0.06841592114014927,0.15384153094853617,0.07213425582237801,0.15175166746807114
1.0025424293570402,0.1956066522565673,0.05491867909505334,0.12081929242955049,0.049622402568779325,0.11922898819932297
1.0025895113821706,0.13475970805500284,0.03868098322783384,0.07564140824241966,0.02314809725339078,0.07483004182390127
1.002636593407301,0.07582916802294695,0.02603954065763864,0.025728531183742454,0.0024153751471577387,0.02563073747007793
1.0026836754324313,0.03145358980808763,0.022826323965134433,-0.0040036080406334615,-0.0004896860071387332,-0.003984461912239589
1.0027307574575617,0.01779891286180085,0.030363758217204374,-0.006351274616742859,0.01657829449926245,-0.00691695615186717
1.002777839482692,0.04358985242398123,0.03904342633839312,0.006591376950054447,0.044907660613360635,0.005052700282418433
1.0028249215078224,0.1037077589167159,0.0549824675100816,0.04281328660270074,0.06995562225417142,0.040494499018444145
1.0028720035329528,0.18101238562213362,0.07505446880904856,0.0979436666785688,0.08627508163934756,0.09532144359932401
1.0029190855580832,0.25636899888384335,0.09406783770187811,0.15380629462607742,0.09494303543534181,0.15124225896383903
1.0029661675832136,0.31832235074100634,0.10691466534888487,0.19704252226634572,0.0977068939280247,0.1946668994407965
1.003013249608344,0.36361141655314383,0.11354760025514826,0.228525784613192,0.09895808203720527,0.22631778183028672
1.0030603316334743,0.39341420767750745,0.11605900982871463,0.24979870354304085,0.09780355169422261,0.2477272785436874
1.0031074136586047,0.4102870696014962,0.1152988156037701,0.26258314989231946,0.09516016441875474,0.2606065752340518
1.003154495683735,0.41662904201390033,0.11276217350396237,0.266777273312063,0.09108617665443769,0.26485594883039837
1.0032015777088654,0.41405085665469693,0.10837737372543482,0.26326150551395927,0.08542058756867521,0.2613744776371177
1.0032486597339958,0.4030953535584088,0.1021158238836144,0.251751202986526,0.07793424192224724,0.24990016687696412
1.0032957417591262,0.38301151602067063,0.09380134406076718,0.2324239377319079,0.06860557554394035,0.23064271535132969
1.0033428237842565,0.3514583105172215,0.08313002573618443,0.2047530276495091,0.05729880165527477,0.20311375807109575
1.003389905809387,0.3042863356687068,0.06969437344393914,0.16911475512504195,0.0443141399430347,0.16772274351775032
1.0034369878345173,0.2364892670841809,0.05413643636348992,0.12615890065588273,0.02997561413913179,0.125137529980789
1.0034840698596477,0.14805992805189566,0.038022566030193744,0.07745804013496241,0.015482546901802889,0.07689572373577372
1.003531151884778,0.05937981673678241,0.026794387367602573,0.035632586371168055,0.00455510171224516,0.03545611512561787
1.0035782339099084,0.016571701488668728,0.024756946477371235,0.012038086514572617,0.0006101278774817657,0.012010091621347098
1.0036253159350388,0.04141534161646615,0.034357850584210814,0.014399178728297872,0.007615421688865789,0.014130052500069459
1.0036723979601692,0.0978579156313711,0.05184341354565115,0.03595348541122598,0.023938459327628624,0.03512307383691815
1.0037194799852995,0.14599333246590304,0.0738706473624424,0.06503465797160808,0.04269993063731039,0.06359913631233051
1.00376656201043,0.17300879075255565,0.09065486526494514,0.0922030709843016,0.06071535689623743,0.09025828947242599
1.0038136440355603,0.18229222765708752,0.10156039560319588,0.11374971918924169,0.07201581092949925,0.11154686837443653
1.0038607260606907,0.18262972424027749,0.10701041234781104,0.12736778710133306,0.07967765559947343,0.12501783834784302
1.003907808085821,0.18292620727983336,0.10925299700002787,0.13485525602086357,0.08709507660832705,0.13236421509724708
1.0039548901109514,0.18798821740501145,0.11097785879471489,0.13913083302593265,0.09221421012724926,0.13654867439075707
1.0040019721360818,0.19658928748535154,0.10992573580332633,0.1397247738744464,0.09476184140597665,0.13709249797821402
1.0040490541612122,0.20361099360789395,0.10591732785005194,0.1356935801867525,0.09507916569974544,0.13303433240033427
1.0040961361863425,0.20356945018764083,0.09832346074356524,0.1287855413388881,0.0931178438575514,0.12613435912699827
1.004143218211473,0.19261735903368254,0.08838292878181137,0.11776025800915435,0.08958255081570866,0.11513881189952131
1.0041903002366033,0.1692114287165738,0.07575909855447954,0.09836742477706704,0.08155660259294488,0.09586915912728157
1.0042373822617336,0.13469585530973552,0.06124794726171506,0.07519967777083232,0.06924502795269175,0.07297484620590296
1.004284464286864,0.094068350002802,0.04623612575485368,0.051842634052145065,0.054326367228485384,0.050030191962794415
1.0043315463119944,0.0558705414627791,0.03246436027272944,0.03082107495389939,0.03719762404725261,0.029549555364797874
1.0043786283371248,0.029785725493520713,0.023298093154612936,0.019809015244991575,0.020900184267514988,0.019085232472222817
1.0044257103622551,0.022326134922130727,0.018979505720171905,0.01684685304795892,0.00841809022615623,0.01654898068245285
1.0044727923873855,0.03362727707623793,0.019114503228884194,0.01768087969631584,0.002126704569975113,0.017597628734307584
1.004519874412516,0.057935866130881315,0.02321979477683869,0.0238553638180855,0.0021500490825797675,0.0237677293252404
1.0045669564376463,0.08691312585069338,0.031183886824244143,0.038233159934289905,0.00967171945985776,0.037881532042750694
1.0046140384627766,0.11302745450084833,0.04170864688602072,0.05542672474865837,0.024508947113899397,0.054573915657471245
1.004661120487907,0.13143773576861661,0.05224040290290786,0.07126698378066398,0.042001311924202464,0.06985704249043746
1.0047082025130374,0.140315951549541,0.061829995135298466,0.0817840112464661,0.059746647406449284,0.07984912760360689
1.0047552845381678,0.14016084842095028,0.0659791793974072,0.0846685751900148,0.07453000604624833,0.08231733763405662
1.0048023665632981,0.13271042804166153,0.0660039014750512,0.08028160564993014,0.08483880242193038,0.0776306544777403
1.0048494485884285,0.1199532079956697,0.06326016902336018,0.06958311394397716,0.09244511894503454,0.06667847011224487
1.0048965306135589,0.10352759540252561,0.06070126162052713,0.05738407400153901,0.09619126846586905,0.05431832973764982
1.0049436126386893,0.08458770500586026,0.056025847788169165,0.04469505929439128,0.09520633149107254,0.04160172438931912
1.0049906946638196,0.06411017510052013,0.052130512417702814,0.03435472552873721,0.09013548918676291,0.03137619159106147
1.00503777668895,0.043500849939608656,0.0464194675374019,0.022887706523455283,0.08234611977500769,0.020120694780098262
1.0050848587140804,0.02497562650004661,0.03947505531491359,0.013888116903115118,0.07128884525647827,0.011465064942710547
1.0051319407392107,0.011013597455985432,0.033135713658324045,0.011624969459267675,0.05804179892743072,0.009644355757238928
1.0051790227643411,0.003334338693202587,0.028085531529666953,0.009001101837417943,0.0427701367448307,0.007536178550799631
1.0052261047894715,0.0027948227754708652,0.01981128387994027,0.005716764128480125,0.02656850452861461,0.004804046936285524
1.0052731868146019,0.010164673003053454,0.012909375575093524,0.005314070387151807,0.012789411591404039,0.004872785373660424
1.0053202688397322,0.026566180290056158,0.009174838415360995,0.008193549268036414,0.001718304525496697,0.008129824278111831
1.0053673508648626,0.05291846997433676,0.008331129603089103,0.011498759854167706,-0.004071559565855169,0.01163168836467251
1.005414432889993,0.08828034555015178,0.00926784914407129,0.017065936640710815,-0.005133986894915151,0.0172321067053497
1.0054615149151234,0.12763762777320273,0.01184038474998796,0.025647230237824777,-0.0019126217722565274,0.025697725762601473
1.0055085969402537,0.16155770115500132,0.01612606941555126,0.038076850744054896,0.007814027639993499,0.03778825916747001
1.0055556789653841,0.18078890709766565,0.02217809844252791,0.05135766337998839,0.021549909661815598,0.05060314451591783
1.0056027609905145,0.18307418566708303,0.026477707459948388,0.06056084021799014,0.03630070671754478,0.05932618519180388
1.0056498430156449,0.1741533504439713,0.031081179718046095,0.06655908741414072,0.049434137409708034,0.06491490538575798
1.0056969250407752,0.16242605985016223,0.03423301017471611,0.07063087442771013,0.06069639928173652,0.06864919915178368
1.0057440070659056,0.15418810481596457,0.034501024118199886,0.07107575192890922,0.06709307180225957,0.06890476694662505
1.005791089091036,0.1523552110015489,0.03233862056864816,0.0660360559428213,0.06898863098765871,0.06379790666379162
1.0058381711161664,0.15691036178882456,0.031167898051933894,0.06130313889977103,0.06854083878547755,0.05906796315257158
1.0058852531412967,0.16538784679386007,0.031587435164807595,0.06307528196508604,0.06589469456241881,0.06092357226161241
1.005932335166427,0.17322460684996496,0.030200727412649443,0.06323184659303546,0.06043834114778263,0.061245796506669226
1.0059794171915575,0.17475929729964576,0.02661107668399108,0.05880087400333982,0.052356985347773354,0.05705799919035211
1.0060264992166879,0.16548577922015562,0.022481923339928895,0.05204155960234529,0.043785207812406995,0.05056383326710992
1.0060735812418182,0.1445721481217929,0.01831933835021358,0.04234591607178599,0.033957070223153,0.041183349855128726
1.0061206632669486,0.11538472372115638,0.014511977349146032,0.03266210113426135,0.02413175988696185,0.03182593171811139
1.006167745292079,0.08342022676517998,0.012651669676947837,0.0259645785337829,0.01617889465330605,0.02539838085210659
1.0062148273172093,0.053714935068683495,0.013425152077034756,0.01794830890199036,0.010836746885424626,0.017567348606069396
1.0062619093423397,0.029620632829972474,0.015148050720756638,0.006428025048282717,0.008059348115886331,0.006148089003854878
1.00630899136747,0.012907514843990737,0.016997523185700192,-0.004503164505502606,0.007524593717182441,-0.004758676266096012
1.0063560733926005,0.004292560353454192,0.02002562636393468,-0.010519166817943732,0.009087789315658337,-0.010825013454564941
1.0064031554177308,0.0038095921685766332,0.024515887138793956,-0.007972360122875525,0.010864178402177993,-0.008340681595785309
1.0064502374428612,0.010924293923755681,0.032967015022450176,0.0013341291502741227,0.018031975117137954,0.0007151082222702117
1.0064973194679916,0.02453035587728399,0.04081690627725046,0.011333716656649779,0.02735338644054152,0.010393102109863044
1.006544401493122,0.042966387475684646,0.04730347459349353,0.020787738978896356,0.036372512794026424,0.019541915622766456
1.0065914835182523,0.06411092062196938,0.05126141508754263,0.03329944681240632,0.04326775243486495,0.031828276202121385
1.0066385655433827,0.08556714248621351,0.05640431184570106,0.049462130528264495,0.04855727762544252,0.04783017074945218
1.006685647568513,0.10493697207975199,0.059194512071919315,0.06485229624100503,0.05143358507062446,0.06314460011304303
1.0067327295936435,0.12014720761669652,0.059616922877306376,0.07640706666955516,0.05205870180883138,0.07469314226072733
1.0067798116187738,0.12974860817624662,0.05646523158637479,0.08294186479002422,0.05032490250818553,0.08128738754058104
1.0068268936439042,0.1331160769266914,0.053590702514687866,0.08436945777741765,0.04628930766107514,0.08283760733357438
1.0068739756690346,0.13051634907150206,0.04841861130220177,0.08386978816652868,0.04172168960980755,0.08247621046826481
1.006921057694165,0.12301693370584733,0.04125393400026144,0.08185258015702256,0.03512351763416474,0.08066164521142664
1.0069681397192953,0.11219272060745543,0.03260369134468055,0.07585112215539112,0.027281836090272106,0.07490689701859271
1.0070152217444257,0.09964098937742749,0.024150189212231336,0.06985230351433948,0.01977079684721649,0.06915179383323045
1.007062303769556,0.08648287672211809,0.017632157377683283,0.06302251331950957,0.013989978631988632,0.06251477341677399
1.0071093857946865,0.07315337862299943,0.013297829114439387,0.053521194673379444,0.00942551258943431,0.053170319359715244
1.0071564678198168,0.05967551136841471,0.009517742023480404,0.042771215350936226,0.005340045532280367,0.04256408980006785
1.0072035498449472,0.046352747241279996,0.006529751195108914,0.029687677967592516,0.0032634646801735488,0.029558626199950255
1.0072506318700776,0.03458526276589038,0.0054222520354216775,0.01916866027493343,0.003353746559323265,0.019042553559528455
1.007297713895208,0.02727830692374265,0.006304920665034726,0.01473006896934623,0.003889806047101114,0.014588171276510029
1.0073447959203383,0.0280866607277734,0.009732771539358835,0.01711698325886342,0.006634015884238101,0.016879894745733426
1.0073918779454687,0.03925806445151868,0.018093014494318813,0.028584290137595406,0.013639474334463761,0.0281029417598942
1.007438959970599,0.059562255279517966,0.028990444766378715,0.043832242766228824,0.022573499811021407,0.04304555720691754
1.0074860419957294,0.08449757331606145,0.03940006687881274,0.058037587268334905,0.033066906405561335,0.056906261665693285
1.0075331240208598,0.10858230355013457,0.04785547629752972,0.06858033205585247,0.04285457190293003,0.06714214425292754
1.0075802060459902,0.12742598805780986,0.053711837488601526,0.07621925524513734,0.04986703146969147,0.0745714407235977
1.0076272880711206,0.13840784538629322,0.056760474668158055,0.07904744927672683,0.05397715054636789,0.07727915254782666
1.007674370096251,0.14057521646913557,0.05572747761077673,0.0769603579802706,0.05535688325597551,0.0751480537925695
1.0077214521213813,0.1345761316442056,0.05168513618384735,0.07084930100861353,0.05372585783023055,0.06907824761100823
1.0077685341465117,0.12269802495893224,0.04515806303205859,0.062425783036096825,0.048200101645082476,0.060816145148018044
