freq,gls,usurper,pdc_unbiased,shape_periodogram,shift_periodogram
1.0,0.02176245538732735,0.011730362605566563,-0.007335655112181927,0.0032735765449874157,-0.007412563837448711
1.0000470820251304,0.05134779247241603,0.01822590845309998,0.016081221596065367,0.005826698404594054,0.015936226819838913
1.0000941640502607,0.09689124580742478,0.02633834606785238,0.05094334186944231,0.011210047219012484,0.050662190514053004
1.0001412460753911,0.14848755125694818,0.03611471915830464,0.08456655871201842,0.015815943345860443,0.08417487937608599
1.0001883281005215,0.19664060203551523,0.04446406709545665,0.10917973127593883,0.021456669034574067,0.10866432204767569
1.0002354101256519,0.23592916525893703,0.04919589238532007,0.12678225514793529,0.024811436619146674,0.12619959328116118
1.0002824921507822,0.26363730657080775,0.048424740099441706,0.13936052532630389,0.02622622830252617,0.1387527751141637
1.0003295741759126,0.2780607972143743,0.04793633338032527,0.14663287491158739,0.027365722082050525,0.14600516423714727
1.000376656201043,0.27778293516045677,0.0477978326001275,0.14742341655727248,0.0278294236910113,0.14678699787439528
1.0004237382261734,0.2619162710265795,0.04461975327102116,0.139633635428265,0.028195611560662834,0.13898710103172857
1.0004708202513037,0.23107843684954268,0.039316614096833215,0.12167319492364326,0.02739711810087622,0.12103631740080369
1.0005179022764341,0.1884924826566669,0.032619417313179466,0.09811663264576473,0.026275576849135385,0.09749654042605936
1.0005649843015645,0.1401213853463462,0.027110205979186678,0.07552593926328457,0.02442807201796573,0.07494168965602398
1.0006120663266949,0.09311329616242185,0.023773996051984544,0.056936636782797936,0.02216370314770358,0.05640153526406614
1.0006591483518252,0.05338098213176131,0.023695739645893013,0.04656239048066332,0.017492958513783873,0.0461350411981459
1.0007062303769556,0.024158292773911582,0.02342575800359911,0.0379052596807291,0.01100327398715309,0.03763149593290325
1.000753312402086,0.006389706849983347,0.023054576262234727,0.024925530867037873,0.0036050721627723017,0.024831502421078813
1.0008003944272164,4.4957735270936574e-05,0.02543518375401325,0.013623927240606612,-0.004633156345062016,0.013731902748882814
1.0008474764523467,0.004476680458159687,0.02599777991116574,0.005279248516488982,-0.0066648344441424786,0.005438689652533547
1.000894558477477,0.016631009383087918,0.02830549550176341,0.00604487589630294,-0.0039432263324302615,0.006138332705489912
1.0009416405026075,0.030279800796216314,0.03475307001471956,0.01614856324889533,0.002627939949419155,0.016080511144228905
1.0009887225277379,0.04019506929021177,0.04179361504714583,0.031662352407458065,0.012757835372191877,0.031348216120160546
1.0010358045528682,0.045271217739530065,0.048013794747717393,0.049643587368788454,0.025430201068955507,0.04903342446749712
1.0010828865779986,0.04665854735345898,0.04974432111489549,0.06394396252727896,0.03665190832553642,0.06308832836985484
1.001129968603129,0.04557434040645729,0.05001345190670544,0.06951556918541625,0.04579560414778881,0.06846944580046777
1.0011770506282593,0.04281463251624272,0.046928245159585234,0.06676401531502141,0.05180119227157441,0.06559023039787573
1.0012241326533897,0.03911406922799136,0.03946992974155943,0.05756222886158259,0.05470709230586392,0.056315555769917466
1.00127121467852,0.035734840091298535,0.029676093219432483,0.04469056838221148,0.05521665734014661,0.04341482293075495
1.0013182967036505,0.034632288517627896,0.021812823674420882,0.03354469161607427,0.05479065908335295,0.0322630368015338
1.0013653787287808,0.03686446430802818,0.02174620888475969,0.03235087082016887,0.053898318779823075,0.031087648065629095
1.0014124607539112,0.040499198873267514,0.0266156120041996,0.04235422606047071,0.05261914786298418,0.04113207055401576
1.0014595427790416,0.04245011553894062,0.03208675860485481,0.05148956578485458,0.0494420262150737,0.05034730247021026
1.001506624804172,0.04142424671447975,0.03406399752314718,0.057489670337512934,0.042957052347962356,0.05649317115716693
1.0015537068293023,0.03772147907862947,0.03270208580226681,0.05838903434484734,0.034513381625292903,0.057577435615699876
1.0016007888544327,0.032149333674356434,0.030876955299012163,0.05286952532393206,0.024175036677312002,0.05228832395711401
1.001647870879563,0.025799799790141527,0.02931390741034316,0.040386054375886556,0.012399694477670309,0.04007882626218341
1.0016949529046935,0.020580986012262138,0.024685148174691612,0.02276083148008517,0.001332379844998583,0.02272209032065585
1.0017420349298238,0.01993155776046648,0.022249056312905052,0.008396000375120035,-0.007825685332951644,0.008582680945830893
1.0017891169549542,0.027489951613850306,0.022942950063272502,0.00883020356959996,-0.009336898690043303,0.009053358149294248
1.0018361989800846,0.042074300128446054,0.023606906210770523,0.022145335055818467,-0.0052427118558837455,0.02226563927754217
1.001883281005215,0.05845891480384451,0.027375646892069214,0.04104344236602053,0.002699510881236244,0.0409666622089434
1.0019303630303453,0.07582159493280267,0.032231092141039246,0.05832937685591873,0.011876538078738463,0.05803131755615151
1.0019774450554757,0.09824195100672209,0.03608656990835741,0.07041397317164165,0.023798933783873256,0.06984305591618374
1.002024527080606,0.1303669711588208,0.03411666072589241,0.07896421651578898,0.03276424904144993,0.0781995800414609
1.0020716091057364,0.17464242099810953,0.029885423989024034,0.08832693698111686,0.03931829763831404,0.08743045410616423
1.0021186911308668,0.22917237164395338,0.03199881981801063,0.11355266104308831,0.04271324095622026,0.11261021987689343
1.0021657731559972,0.2864808872447173,0.03780640136902766,0.14880372324738836,0.0451060400569759,0.14785552219832904
1.0022128551811276,0.335488571803669,0.04395441147297711,0.17945522269565434,0.04700711689485294,0.17851511202894293
1.002259937206258,0.3667004160945303,0.04876459285357333,0.20044309409803335,0.0479439206408309,0.19951879899699995
1.0023070192313883,0.37630521047742305,0.05159409495255445,0.20989430295355302,0.04740495083390333,0.20899072944841116
1.0023541012565187,0.3658732131217113,0.0521977663518597,0.20800353236518512,0.04546017876201995,0.20712332315317952
1.002401183281649,0.3393357840705059,0.051625430805592364,0.19716291122807472,0.04138470475822288,0.19632791837839914
1.0024482653067794,0.30043566038503033,0.04830224805302632,0.1783931936762516,0.03434259755146437,0.17765451792314202
1.0024953473319098,0.25183659939415354,0.03945074040501697,0.15384153094853617,0.025069435319481265,0.15326098502857316
1.0025424293570402,0.1956066522565673,0.027491088247594376,0.12081929242955049,0.014475126662168871,0.12045526375664344
1.0025895113821706,0.13475970805500284,0.015512133353558595,0.07564140824241966,0.003313315255575547,0.07554062296629459
1.002636593407301,0.07582916802294695,0.006855948385914848,0.025728531183742454,-0.0054610665360152666,0.02585310513452648
1.0026836754324313,0.03145358980808763,0.006885445429502349,-0.0040036080406334615,-0.00811204834267194,-0.0038067756707667413
1.0027307574575617,0.01779891286180085,0.013805823243065547,-0.006351274616742859,-0.0005233667753131636,-0.006336793834258999
1.002777839482692,0.04358985242398123,0.012322741992489334,0.006591376950054447,0.013386920540051223,0.006266926103905749
1.0028249215078224,0.1037077589167159,0.01358060883833307,0.04281328660270074,0.024562665939834243,0.042222304200765476
1.0028720035329528,0.18101238562213362,0.022133370036096393,0.0979436666785688,0.029634015777648393,0.09725264396185947
1.0029190855580832,0.25636899888384335,0.03787336926787587,0.15380629462607742,0.030063215233987434,0.15312998639600803
1.0029661675832136,0.31832235074100634,0.05034414378552734,0.19704252226634572,0.02961786483954719,0.19639638032334372
1.003013249608344,0.36361141655314383,0.05714752719096983,0.228525784613192,0.0314834390083216,0.2278684200202617
1.0030603316334743,0.39341420767750745,0.06110828458225128,0.24979870354304085,0.031667970927575256,0.24915351554377282
1.0031074136586047,0.4102870696014962,0.0621412469976098,0.26258314989231946,0.03076532097807152,0.2619600911149401
1.003154495683735,0.41662904201390033,0.061853064613675394,0.266777273312063,0.029525247687506546,0.26617476837009024
1.0032015777088654,0.41405085665469693,0.05989946296134523,0.26326150551395927,0.02757722613288842,0.26268532046802057
1.0032486597339958,0.4030953535584088,0.056454685659788666,0.251751202986526,0.02433531509438752,0.25121964700512617
1.0032957417591262,0.38301151602067063,0.0514823810501189,0.2324239377319079,0.020289580120768504,0.2319543914595776
1.0033428237842565,0.3514583105172215,0.04481144613248071,0.2047530276495091,0.01527489793402348,0.2043729333963002
1.003389905809387,0.3042863356687068,0.036268875447053046,0.16911475512504195,0.009743429219993735,0.16884950859686784
1.0034369878345173,0.2364892670841809,0.02690840914546653,0.12615890065588273,0.0038080966092322952,0.1260339003851335
1.0034840698596477,0.14805992805189566,0.01814560872091228,0.07745804013496241,-0.0017682246121623554,0.07747802544205835
1.003531151884778,0.05937981673678241,0.013919728274321483,0.035632586371168055,-0.005646826079263989,0.03575882205257219
1.0035782339099084,0.016571701488668728,0.01467176709540659,0.012038086514572617,-0.006796815665373243,0.012198876392195867
1.0036253159350388,0.04141534161646615,0.021514732076725777,0.014399178728297872,-0.00409596402429289,0.014493937253210706
1.0036723979601692,0.0978579156313711,0.03027807150559597,0.03595348541122598,0.003332695684468706,0.035862939831995226
1.0037194799852995,0.14599333246590304,0.0402148823879452,0.06503465797160808,0.012018869293273374,0.0647321846324962
1.00376656201043,0.17300879075255565,0.04499912070157123,0.0922030709843016,0.021951818037026373,0.09167520552300587
1.0038136440355603,0.18229222765708752,0.050012972815407945,0.11374971918924169,0.027616111807970085,0.11310585614393918
1.0038607260606907,0.18262972424027749,0.054294464681533795,0.12736778710133306,0.03308844822650059,0.12662009587731202
1.003907808085821,0.18292620727983336,0.05391812893692457,0.13485525602086357,0.040303426841110386,0.13397702584876214
1.0039548901109514,0.18798821740501145,0.05283129525386683,0.13913083302593265,0.04534593714272063,0.13816738172813592
1.0040019721360818,0.19658928748535154,0.04927053548788035,0.1397247738744464,0.04773896160114607,0.1387210321815322
1.0040490541612122,0.20361099360789395,0.04565467803393966,0.1356935801867525,0.04809357097378981,0.13467862454117707
1.0040961361863425,0.20356945018764083,0.04012199622529904,0.1287855413388881,0.04793667163418659,0.12776451244211323
1.004143218211473,0.19261735903368254,0.03254055661822458,0.11776025800915435,0.04665997541870836,0.11674876571829305
1.0041903002366033,0.1692114287165738,0.023613674305544476,0.09836742477706704,0.042391765772473625,0.09741725682390617
1.0042373822617336,0.13469585530973552,0.014200416272107372,0.07519967777083232,0.036120549208898796,0.07436162683032917
1.004284464286864,0.094068350002802,0.006263421418560657,0.051842634052145065,0.027368934829278664,0.05118873483358177
1.0043315463119944,0.0558705414627791,0.00028705637201860955,0.03082107495389939,0.016682452994417795,0.03041424431311539
1.0043786283371248,0.029785725493520713,-0.001464277787961652,0.019809015244991575,0.005370538907641897,0.019673980441587104
1.0044257103622551,0.022326134922130727,-0.0001212287540901579,0.01684685304795892,-0.003971954597873654,0.01693790781651874
1.0044727923873855,0.03362727707623793,0.003187071839479772,0.01768087969631584,-0.008654950359300492,0.017885200504652747
1.004519874412516,0.057935866130881315,0.007305129515854579,0.0238553638180855,-0.008515594961231488,0.024054648866787272
1.0045669564376463,0.08691312585069338,0.013101105703973926,0.038233159934289905,-0.0034504150937838484,0.03830536341334022
1.0046140384627766,0.11302745450084833,0.020199411001465477,0.05542672474865837,0.006475050564239413,0.055256214615359865
1.004661120487907,0.13143773576861661,0.026839657120910694,0.07126698378066398,0.017338241106229477,0.0708416034923434
1.0047082025130374,0.140315951549541,0.031158821883292262,0.0817840112464661,0.027117436534611395,0.08114197052014976
1.0047552845381678,0.14016084842095028,0.03232752015265807,0.0846685751900148,0.0342916601305609,0.08387418400487819
1.0048023665632981,0.13271042804166153,0.031695680128896474,0.08028160564993014,0.038533792734240596,0.07939576624514727
1.0048494485884285,0.1199532079956697,0.029884187048961845,0.06958311394397716,0.04230815736210445,0.06861021354391225
1.0048965306135589,0.10352759540252561,0.02549619413472679,0.05738407400153901,0.04457081408773626,0.05635266397423038
1.0049436126386893,0.08458770500586026,0.01679560732669257,0.04469505929439128,0.04355163901848931,0.043675318474302095
1.0049906946638196,0.06411017510052013,0.010662828180749326,0.03435472552873721,0.039055249454219745,0.03342917356486739
1.00503777668895,0.043500849939608656,0.004186387926428682,0.022887706523455283,0.03286156149265269,0.022100413744622426
1.0050848587140804,0.02497562650004661,-0.0009936739631026586,0.013888116903115118,0.025519462788340042,0.013272615473644724
1.0051319407392107,0.011013597455985432,-0.0029552471442834357,0.011624969459267675,0.015996231269866868,0.011237004802692047
1.0051790227643411,0.003334338693202587,-0.00437782752492766,0.009001101837417943,0.006168939117526291,0.008849769889847994
1.0052261047894715,0.0027948227754708652,-0.007409792755676058,0.005716764128480125,-0.0006021017090611227,0.0057296316440864055
1.0052731868146019,0.010164673003053454,-0.01128012657646339,0.005314070387151807,-0.005603673515844618,0.005447854555600748
1.0053202688397322,0.026566180290056158,-0.013864663871873078,0.008193549268036414,-0.0088505516040176,0.008405090137940118
1.0053673508648626,0.05291846997433676,-0.01439400667532517,0.011498759854167706,-0.009103939383049247,0.011715587928649058
1.005414432889993,0.08828034555015178,-0.010820181493945641,0.017065936640710815,-0.006255132355200218,0.017212212946748587
1.0054615149151234,0.12763762777320273,-0.008087169838186957,0.025647230237824777,-0.000871553130947128,0.0256607886035491
1.0055085969402537,0.16155770115500132,-0.0056159979063674864,0.038076850744054896,0.007670653112307778,0.03788214518900015
1.0055556789653841,0.18078890709766565,-0.0028073953233532724,0.05135766337998839,0.018714211760640243,0.0509017074543104
1.0056027609905145,0.18307418566708303,-0.0013009145327744893,0.06056084021799014,0.029925006280316406,0.05985160916310275
1.0056498430156449,0.1741533504439713,-0.0007563764824130702,0.06655908741414072,0.037575232157253106,0.06568497373615383
1.0056969250407752,0.16242605985016223,-0.00039646626079910236,0.07063087442771013,0.04209171749188947,0.06966337793026202
1.0057440070659056,0.15418810481596457,-4.599667996661028e-05,0.07107575192890922,0.04183972601240083,0.07011391531765603
1.005791089091036,0.1523552110015489,0.00020137430095809063,0.0660360559428213,0.03839624062318504,0.06514395614510468
1.0058381711161664,0.15691036178882456,0.001626496609535038,0.06130313889977103,0.03396322484372599,0.060504927902351006
1.0058852531412967,0.16538784679386007,0.00464881364301509,0.06307528196508604,0.029701331570657224,0.06237172961106763
1.005932335166427,0.17322460684996496,0.004696406747205488,0.06323184659303546,0.02380108813511347,0.06266011622911032
1.0059794171915575,0.17475929729964576,0.003321874869955395,0.05880087400333982,0.016602670828933196,0.05839315643326142
1.0060264992166879,0.16548577922015562,0.0019882093277943476,0.05204155960234529,0.009934152565656709,0.05179018190025166
1.0060735812418182,0.1445721481217929,0.00028987148269194076,0.04234591607178599,0.003734663145024091,0.04224399612430679
1.0061206632669486,0.11538472372115638,-0.0011603262813545305,0.03266210113426135,-0.0017271542464432155,0.03269426525839833
1.006167745292079,0.08342022676517998,-0.0032042777035267618,0.0259645785337829,-0.006399051441539694,0.02611184689883199
1.0062148273172093,0.053714935068683495,-0.0035267521243194646,0.01794830890199036,-0.009712840928385829,0.01817825745077939
1.0062619093423397,0.029620632829972474,-0.00437417758522296,0.006428025048282717,-0.01121438796525815,0.006697231242318629
1.00630899136747,0.012907514843990737,-0.004411799897416017,-0.004503164505502606,-0.009285122626932077,-0.004277933958085855
1.0063560733926005,0.004292560353454192,-0.005025439181222311,-0.010519166817943732,-0.005181917205961421,-0.010391189748858519
1.0064031554177308,0.0038095921685766332,-0.00388955520504997,-0.007972360122875525,-0.0006861153057411759,-0.007953480799721918
1.0064502374428612,0.010924293923755681,0.0006166663135570194,0.0013341291502741227,0.0069466565283895125,0.0011661016286399564
1.0064973194679916,0.02453035587728399,0.003619995071512183,0.011333716656649779,0.015127214279065089,0.010966621301764796
1.006544401493122,0.042966387475684646,0.00541040219616368,0.020787738978896356,0.02308363886173801,0.020230269023043604
1.0065914835182523,0.06411092062196938,0.004877951065790758,0.03329944681240632,0.02760807444574902,0.03263690919610449
1.0066385655433827,0.08556714248621351,0.005800114918055403,0.049462130528264495,0.029233931119857778,0.04876549657411892
1.006685647568513,0.10493697207975199,0.007324675345948873,0.06485229624100503,0.02763263031632701,0.06419510009562183
1.0067327295936435,0.12014720761669652,0.008514352411510545,0.07640706666955516,0.023992468442221183,0.07583257170838989
1.0067798116187738,0.12974860817624662,0.008396390383115435,0.08294186479002422,0.020531885799263856,0.08244463501766201
1.0068268936439042,0.1331160769266914,0.010002448700853744,0.08436945777741765,0.015742047252632112,0.08397945927699471
1.0068739756690346,0.13051634907150206,0.00851071735808234,0.08386978816652868,0.012117972702862159,0.08356220311599827
1.006921057694165,0.12301693370584733,0.004761550961996245,0.08185258015702256,0.008146474261158023,0.08163692523695636
1.0069681397192953,0.11219272060745543,0.0002770068767710678,0.07585112215539112,0.0032902180940476786,0.07575082871285453
1.0070152217444257,0.09964098937742749,-0.0038878091212746885,0.06985230351433948,-0.0007323371741565711,0.06984961845619313
1.007062303769556,0.08648287672211809,-0.006754864752535468,0.06302251331950957,-0.004577708884542958,0.06311471590256265
1.0071093857946865,0.07315337862299943,-0.007372138632114294,0.053521194673379444,-0.007200112781296849,0.05368007140933596
1.0071564678198168,0.05967551136841471,-0.006871901648076906,0.042771215350936226,-0.008364597447076518,0.042961613330093094
1.0072035498449472,0.046352747241279996,-0.0067139472590661015,0.029687677967592516,-0.009071930474215797,0.029898938566792193
1.0072506318700776,0.03458526276589038,-0.005891591715657599,0.01916866027493343,-0.00911129019870277,0.019383673653605455
1.007297713895208,0.02727830692374265,-0.005099546315321817,0.01473006896934623,-0.009442587419482007,0.014954280126408138
1.0073447959203383,0.0280866607277734,-0.003284276583341406,0.01711698325886342,-0.008331302882093723,0.017313597232151142
1.0073918779454687,0.03925806445151868,0.002365235554064062,0.028584290137595406,-0.0047345048771786895,0.0286904243652636
1.007438959970599,0.059562255279517966,0.008928979014335217,0.043832242766228824,-0.0014175685711631844,0.043853658254649916
1.0074860419957294,0.08449757331606145,0.01450826773910131,0.058037587268334905,0.001651154316286516,0.057981163115053226
1.0075331240208598,0.10858230355013457,0.0176481071214222,0.06858033205585247,0.004603713038900018,0.06845083291079572
1.0075802060459902,0.12742598805780986,0.020104325361472834,0.07621925524513734,0.007324762015228453,0.07602394765528715
1.0076272880711206,0.13840784538629322,0.02068215687256123,0.07904744927672683,0.008907379660168227,0.07881468496432865
1.007674370096251,0.14057521646913557,0.019092042879887645,0.0769603579802706,0.010204437853872103,0.07669791833440247
