freq,gls,usurper,pdc_unbiased,shape_periodogram,shift_periodogram
1.0,0.02176245538732735,0.025661154019220894,-0.007335655112181927,0.001805477055759512,-0.007432535416237405
1.0000470820251304,0.05134779247241603,0.04605314891263201,0.016081221596065367,0.018622530275432928,0.014912475634169055
1.0000941640502607,0.09689124580742478,0.06693399790601358,0.05094334186944231,0.04158807258938003,0.04834968688318014
1.0001412460753911,0.14848755125694818,0.08871420350730307,0.08456655871201842,0.06249710745837123,0.08077370660856963
1.0001883281005215,0.19664060203551523,0.10575611410893074,0.10917973127593883,0.0800007364281421,0.10448761690555199
1.0002354101256519,0.23592916525893703,0.11587999144341156,0.12678225514793529,0.09223898176432546,0.1215336563837878
1.0002824921507822,0.26363730657080775,0.12186251507835899,0.13936052532630389,0.09890081262561531,0.13385359019505474
1.0003295741759126,0.2780607972143743,0.12464224100695157,0.14663287491158739,0.10264219561935464,0.14099423099634426
1.000376656201043,0.27778293516045677,0.1246100730088072,0.14742341655727248,0.10433990618081726,0.14171263344022783
1.0004237382261734,0.2619162710265795,0.12044418970760376,0.139633635428265,0.10291163813286254,0.1339414958302977
1.0004708202513037,0.23107843684954268,0.11062987056762583,0.12167319492364326,0.0980602662661571,0.11611527914846889
1.0005179022764341,0.1884924826566669,0.09757571848442914,0.09811663264576473,0.09090564263727227,0.09281823720203963
1.0005649843015645,0.1401213853463462,0.08732430475975733,0.07552593926328457,0.08477440261864178,0.07048203815996358
1.0006120663266949,0.09311329616242185,0.08105419514315929,0.056936636782797936,0.07926899112390778,0.05215619962721536
1.0006591483518252,0.05338098213176131,0.08054602095361031,0.04656239048066332,0.07362817856844243,0.04208910108239626
1.0007062303769556,0.024158292773911582,0.08052506821326132,0.0379052596807291,0.06735189847250206,0.03379016910906781
1.000753312402086,0.006389706849983347,0.07622350093551888,0.024925530867037873,0.05934357478599566,0.021281487627471816
1.0008003944272164,4.4957735270936574e-05,0.07434409244945588,0.013623927240606612,0.05146492738769512,0.010458199875338423
1.0008474764523467,0.004476680458159687,0.07148339470400226,0.005279248516488982,0.048958574465348376,0.0022710862998149596
1.000894558477477,0.016631009383087918,0.07339776308580097,0.00604487589630294,0.05201606894797118,0.002849022474226787
1.0009416405026075,0.030279800796216314,0.08482753265788119,0.01614856324889533,0.06066044508688048,0.0124239023377157
1.0009887225277379,0.04019506929021177,0.10227182804972523,0.031662352407458065,0.07470248078409952,0.0271054107305151
1.0010358045528682,0.045271217739530065,0.12119634656781662,0.049643587368788454,0.09026638089276985,0.04421572096807544
1.0010828865779986,0.04665854735345898,0.1306040632977995,0.06394396252727896,0.10489700745426415,0.05774729640046323
1.001129968603129,0.04557434040645729,0.1330911062947613,0.06951556918541625,0.1153014808294178,0.06278089521903422
1.0011770506282593,0.04281463251624272,0.12705916506418188,0.06676401531502141,0.1197247881471789,0.059772328937850935
1.0012241326533897,0.03911406922799136,0.11645629926820421,0.05756222886158259,0.11971443770022927,0.050510401483977924
1.00127121467852,0.035734840091298535,0.10372953309786011,0.04469056838221148,0.11614748507649655,0.037760417492162836
1.0013182967036505,0.034632288517627896,0.09422515894208483,0.03354469161607427,0.11378235977094603,0.026689802605682905
1.0013653787287808,0.03686446430802818,0.09732283632149794,0.03235087082016887,0.1151187731544851,0.02541127004390757
1.0014124607539112,0.040499198873267514,0.10872476152413008,0.04235422606047071,0.11981917459583702,0.03519988385412386
1.0014595427790416,0.04245011553894062,0.12023037418730664,0.05148956578485458,0.12454090037683638,0.044127855584745836
1.001506624804172,0.04142424671447975,0.12775431638952445,0.057489670337512934,0.12520591273621023,0.050133735104145816
1.0015537068293023,0.03772147907862947,0.12801179734674933,0.05838903434484734,0.12084470871067766,0.0512801363938612
1.0016007888544327,0.032149333674356434,0.122296687767468,0.05286952532393206,0.10960998703561911,0.046354943120175504
1.001647870879563,0.025799799790141527,0.1097311523213422,0.040386054375886556,0.09307157919311304,0.034767964111687054
1.0016949529046935,0.020580986012262138,0.09255409205614828,0.02276083148008517,0.07335473748052465,0.018273661557268967
1.0017420349298238,0.01993155776046648,0.07751931361006978,0.008396000375120035,0.05769462142500337,0.004852011060088381
1.0017891169549542,0.027489951613850306,0.0719471683284909,0.00883020356959996,0.05291373101329359,0.005578204258388611
1.0018361989800846,0.042074300128446054,0.07293012106335613,0.022145335055818467,0.057733222055364034,0.01859803507411681
1.001883281005215,0.05845891480384451,0.08007894619069801,0.04104344236602053,0.06848875746318471,0.03686418475923955
1.0019303630303453,0.07582159493280267,0.09034272060910019,0.05832937685591873,0.07923211433639886,0.05355391798319416
1.0019774450554757,0.09824195100672209,0.09926481517917446,0.07041397317164165,0.08547143374780095,0.06531703524332379
1.002024527080606,0.1303669711588208,0.0984653540843448,0.07896421651578898,0.08738878731995013,0.07378728054046854
1.0020716091057364,0.17464242099810953,0.09217535092029808,0.08832693698111686,0.08690725000932631,0.08320597461420899
1.0021186911308668,0.22917237164395338,0.09774423808115187,0.11355266104308831,0.08904081000735713,0.10840946680441808
1.0021657731559972,0.2864808872447173,0.11189062395983329,0.14880372324738836,0.09446566901727686,0.14355189865255985
1.0022128551811276,0.335488571803669,0.12583648539197237,0.17945522269565434,0.09989519509572067,0.17413309659585285
1.002259937206258,0.3667004160945303,0.13530915488862336,0.20044309409803335,0.10241816494788414,0.19515313550962085
1.0023070192313883,0.37630521047742305,0.13893993482147426,0.20989430295355302,0.10103165496888045,0.20472025712306935
1.0023541012565187,0.3658732131217113,0.13666465051981688,0.20800353236518512,0.0958960656544575,0.2030146244431832
1.002401183281649,0.3393357840705059,0.1285090401852557,0.19716291122807472,0.08729974983935783,0.19246315172787917
1.0024482653067794,0.30043566038503033,0.11605468085011948,0.1783931936762516,0.07544670676240198,0.17413793041001785
1.0024953473319098,0.25183659939415354,0.10095441106636742,0.15384153094853617,0.06077833962953613,0.15023297762406526
1.0025424293570402,0.1956066522565673,0.08152244527413476,0.12081929242955049,0.04520062521336944,0.11800254434860026
1.0025895113821706,0.13475970805500284,0.05474858680022215,0.07564140824241966,0.027298286573731647,0.07386802433539692
1.002636593407301,0.07582916802294695,0.027380588497186283,0.025728531183742454,0.012404712734239442,0.024922453681563102
1.0026836754324313,0.03145358980808763,0.018441897469075503,-0.0040036080406334615,0.006714299665930397,-0.004407736142102575
1.0027307574575617,0.01779891286180085,0.028295311083170162,-0.006351274616742859,0.015175375578815181,-0.007270313102204348
1.002777839482692,0.04358985242398123,0.03808535315923873,0.006591376950054447,0.03351945658492864,0.004526972179429085
1.0028249215078224,0.1037077589167159,0.054863535769789966,0.04281328660270074,0.0544424872010754,0.03946263077744528
1.0028720035329528,0.18101238562213362,0.08147049967446797,0.0979436666785688,0.0783036867259231,0.09331085539819046
1.0029190855580832,0.25636899888384335,0.1127544604039246,0.15380629462607742,0.09632040815405567,0.1484949774570769
1.0029661675832136,0.31832235074100634,0.14120226556875035,0.19704252226634572,0.10301753910178912,0.191706503739321
1.003013249608344,0.36361141655314383,0.15601006510623858,0.228525784613192,0.10688150324512341,0.2232741984749284
1.0030603316334743,0.39341420767750745,0.16562734640681911,0.24979870354304085,0.10957792938671171,0.24462895530249604
1.0031074136586047,0.4102870696014962,0.169598129077685,0.26258314989231946,0.10954684304036376,0.2575210921212073
1.003154495683735,0.41662904201390033,0.1695299414391384,0.266777273312063,0.10752805985901295,0.261808497010486
1.0032015777088654,0.41405085665469693,0.16591615720886774,0.26326150551395927,0.10320077758569332,0.25839329518912935
1.0032486597339958,0.4030953535584088,0.1586476330324133,0.251751202986526,0.09642356829078085,0.2470179472344269
1.0032957417591262,0.38301151602067063,0.14756523081508188,0.2324239377319079,0.08727389012209473,0.22790266429419567
1.0033428237842565,0.3514583105172215,0.1322061372972879,0.2047530276495091,0.07553752737213829,0.2005850501584886
1.003389905809387,0.3042863356687068,0.11235454167015779,0.16911475512504195,0.061514532086175515,0.16549664185897991
1.0034369878345173,0.2364892670841809,0.08851446730477137,0.12615890065588273,0.04548679644708587,0.12332757234941985
1.0034840698596477,0.14805992805189566,0.06198168442712272,0.07745804013496241,0.029244729144363057,0.07556845531871696
1.003531151884778,0.05937981673678241,0.04174088938108,0.035632586371168055,0.01823681802596313,0.034455577190346205
1.0035782339099084,0.016571701488668728,0.03591270309626136,0.012038086514572617,0.01783516492404009,0.010924159528468343
1.0036253159350388,0.04141534161646615,0.049093812349405616,0.014399178728297872,0.031077377531332925,0.012473689254124938
1.0036723979601692,0.0978579156313711,0.07178656403843593,0.03595348541122598,0.05143826134343112,0.03278186148361178
1.0037194799852995,0.14599333246590304,0.0978454703046221,0.06503465797160808,0.07651023355676684,0.060427030458377634
1.00376656201043,0.17300879075255565,0.12110852686266346,0.0922030709843016,0.09969959443133303,0.08641975008582264
1.0038136440355603,0.18229222765708752,0.13846796715794166,0.11374971918924169,0.1171924514732136,0.10721545767487485
1.0038607260606907,0.18262972424027749,0.15091005793019732,0.12736778710133306,0.13153416459949635,0.12028251490709262
1.003907808085821,0.18292620727983336,0.15781584150022274,0.13485525602086357,0.14183372763681287,0.12740039905717318
1.0039548901109514,0.18798821740501145,0.16167624398691233,0.13913083302593265,0.1458071116401473,0.1315603178559465
1.0040019721360818,0.19658928748535154,0.16100815907059338,0.1397247738744464,0.14625243018282247,0.1321431832894429
1.0040490541612122,0.20361099360789395,0.1597260172330633,0.1356935801867525,0.14246636384074243,0.1282215872118448
1.0040961361863425,0.20356945018764083,0.15478125507002907,0.1287855413388881,0.13529475916277015,0.12154760528992864
1.004143218211473,0.19261735903368254,0.14114178295182503,0.11776025800915435,0.12333899705431585,0.11096501817850506
1.0041903002366033,0.1692114287165738,0.12112986233603255,0.09836742477706704,0.1078927460631044,0.0921935670582044
1.0042373822617336,0.13469585530973552,0.0977862328864061,0.07519967777083232,0.09008783166308076,0.06986291364918641
1.004284464286864,0.094068350002802,0.07613139622131289,0.051842634052145065,0.07101321078473548,0.04752826355610532
1.0043315463119944,0.0558705414627791,0.05777969842119359,0.03082107495389939,0.05251009176896469,0.02758658558389343
1.0043786283371248,0.029785725493520713,0.04624122608184194,0.019809015244991575,0.03813407034795553,0.01744816884313621
1.0044257103622551,0.022326134922130727,0.04164700404183565,0.01684685304795892,0.0291030621137974,0.01503829250545953
1.0044727923873855,0.03362727707623793,0.04305342039681613,0.01768087969631584,0.026825914880470956,0.016009746273184054
1.004519874412516,0.057935866130881315,0.04943704050097594,0.0238553638180855,0.030263862686658066,0.021966954073070106
1.0045669564376463,0.08691312585069338,0.06082779097438934,0.038233159934289905,0.03946492957166923,0.03577506792640519
1.0046140384627766,0.11302745450084833,0.07484944126014263,0.05542672474865837,0.05329693866863048,0.05214389569254496
1.004661120487907,0.13143773576861661,0.0866139083030852,0.07126698378066398,0.0677051839889742,0.06716661179538032
1.0047082025130374,0.140315951549541,0.09545301645577958,0.0817840112464661,0.08018853390976638,0.07700862306113039
1.0047552845381678,0.14016084842095028,0.09891594754388953,0.0846685751900148,0.08922228964520108,0.07941096990779087
1.0048023665632981,0.13271042804166153,0.09700240130980488,0.08028160564993014,0.09251831265673482,0.07483046117131566
1.0048494485884285,0.1199532079956697,0.0910705227013761,0.06958311394397716,0.09338288773259061,0.06404558287833167
1.0048965306135589,0.10352759540252561,0.0806890743561933,0.05738407400153901,0.08948823328441316,0.05202378570852612
1.0049436126386893,0.08458770500586026,0.06773067418248112,0.04469505929439128,0.08207465276308037,0.03972743921500045
1.0049906946638196,0.06411017510052013,0.0551270020556573,0.03435472552873721,0.07406871450746746,0.02983887548038801
1.00503777668895,0.043500849939608656,0.04423542140969234,0.022887706523455283,0.06478450638511905,0.018915900456805045
1.0050848587140804,0.02497562650004661,0.034295850129592756,0.013888116903115118,0.0541235075673611,0.010560607140016715
1.0051319407392107,0.011013597455985432,0.028445025979299324,0.011624969459267675,0.04442491702694016,0.008889193445396962
1.0051790227643411,0.003334338693202587,0.02293748686153865,0.009001101837417943,0.03553530932700108,0.00681046652890834
1.0052261047894715,0.0027948227754708652,0.017367293601399617,0.005716764128480125,0.027515981229041704,0.0040209433435770435
1.0052731868146019,0.010164673003053454,0.01315619535849225,0.005314070387151807,0.01849058252816055,0.004171407505485689
1.0053202688397322,0.026566180290056158,0.011550405522149577,0.008193549268036414,0.011831718755319756,0.007453479166617779
1.0053673508648626,0.05291846997433676,0.012412296398174753,0.011498759854167706,0.009374443742636527,0.010903099298265266
1.005414432889993,0.08828034555015178,0.01725333448138199,0.017065936640710815,0.00889260963649172,0.016489643448709762
1.0054615149151234,0.12763762777320273,0.023243746924616355,0.025647230237824777,0.00990991207009971,0.024993392818910786
1.0055085969402537,0.16155770115500132,0.030345631608574772,0.038076850744054896,0.015136036971134227,0.037083758688218
1.0055556789653841,0.18078890709766565,0.03709322866141059,0.05135766337998839,0.02388529358015468,0.049817021305773736
1.0056027609905145,0.18307418566708303,0.04159591995591744,0.06056084021799014,0.03407154132096698,0.05840372554748758
1.0056498430156449,0.1741533504439713,0.04379046204089155,0.06655908741414072,0.04039058492592235,0.06402645624482005
1.0056969250407752,0.16242605985016223,0.045200541531402495,0.07063087442771013,0.04499642796499756,0.0678286957223574
1.0057440070659056,0.15418810481596457,0.046102568766286926,0.07107575192890922,0.047471012110499686,0.06813044155627947
1.005791089091036,0.1523552110015489,0.04552724032153929,0.0660360559428213,0.047513428222939615,0.0630890854877823
1.0058381711161664,0.15691036178882456,0.04437059743822036,0.06130313889977103,0.04668829857232307,0.058405225597659205
1.0058852531412967,0.16538784679386007,0.04627178631276496,0.06307528196508604,0.0463629887287803,0.06019585031665698
1.005932335166427,0.17322460684996496,0.04540492048900553,0.06323184659303546,0.04526638936591989,0.06041626496632876
1.0059794171915575,0.17475929729964576,0.04223238252449654,0.05880087400333982,0.042274167973794755,0.05616224026290612
1.0060264992166879,0.16548577922015562,0.03805425838543101,0.05204155960234529,0.037400258030590466,0.04969498308662782
1.0060735812418182,0.1445721481217929,0.032249036747454156,0.04234591607178599,0.0304590737800333,0.04042288075393875
1.0061206632669486,0.11538472372115638,0.027559867650486188,0.03266210113426135,0.022231455971189085,0.031247817993705743
1.006167745292079,0.08342022676517998,0.022228494261526482,0.0259645785337829,0.014688687331168682,0.025018983575433258
1.0062148273172093,0.053714935068683495,0.01867634295011404,0.01794830890199036,0.009353435059468774,0.01734225475523871
1.0062619093423397,0.029620632829972474,0.015183127387962384,0.006428025048282717,0.00598784323156077,0.006049029515391773
1.00630899136747,0.012907514843990737,0.01264771116263916,-0.004503164505502606,0.006499044478577704,-0.004893160436401251
1.0063560733926005,0.004292560353454192,0.012673985803816464,-0.010519166817943732,0.010283469378243308,-0.011130214515974526
1.0064031554177308,0.0038095921685766332,0.016311551565961986,-0.007972360122875525,0.0173931143965044,-0.009024769204989052
1.0064502374428612,0.010924293923755681,0.02557846661296984,0.0013341291502741227,0.030518964785257674,-0.0005393581642358388
1.0064973194679916,0.02453035587728399,0.03593418985877843,0.011333716656649779,0.04453828904944875,0.008591264804743752
1.006544401493122,0.042966387475684646,0.04571896755000141,0.020787738978896356,0.058360737201198505,0.01720255981625398
1.0065914835182523,0.06411092062196938,0.054801187528235366,0.03329944681240632,0.06788141504518429,0.02914920042177863
1.0066385655433827,0.08556714248621351,0.06365355590292442,0.049462130528264495,0.07299287580516516,0.04502987714148979
1.006685647568513,0.10493697207975199,0.0713570714520753,0.06485229624100503,0.0746935506295908,0.06034708801752506
1.0067327295936435,0.12014720761669652,0.07579041794885313,0.07640706666955516,0.07317195545051612,0.07200785845545414
1.0067798116187738,0.12974860817624662,0.07768245734031186,0.08294186479002422,0.06807152613641555,0.07883682864342687
1.0068268936439042,0.1331160769266914,0.07733759987478359,0.08436945777741765,0.06060171747036266,0.08068229345644688
1.0068739756690346,0.13051634907150206,0.07293807920255566,0.08386978816652868,0.0512283344095655,0.08071005671975129
1.006921057694165,0.12301693370584733,0.06406261928894419,0.08185258015702256,0.042530854471466636,0.07918911533047061
1.0069681397192953,0.11219272060745543,0.05316779286529844,0.07585112215539112,0.03384458115083184,0.07369404902577253
1.0070152217444257,0.09964098937742749,0.04292061383877202,0.06985230351433948,0.02511887278890988,0.06821426456848435
1.007062303769556,0.08648287672211809,0.0337200252190342,0.06302251331950957,0.01757306962037344,0.06184308395630352
1.0071093857946865,0.07315337862299943,0.026788879293091355,0.053521194673379444,0.011287588002836057,0.05273521238735071
1.0071564678198168,0.05967551136841471,0.022154475299854495,0.042771215350936226,0.006964362052647644,0.04226621504773818
1.0072035498449472,0.046352747241279996,0.0163242121082736,0.029687677967592516,0.003715141641604607,0.02940467336638665
1.0072506318700776,0.03458526276589038,0.012630540476875524,0.01916866027493343,0.003101264909098727,0.018942723274837796
1.007297713895208,0.02727830692374265,0.011116816503881022,0.01473006896934623,0.0036186494656830223,0.014480728257384678
1.0073447959203383,0.0280866607277734,0.013703248710352034,0.01711698325886342,0.0059529434515822825,0.016720358622874867
1.0073918779454687,0.03925806445151868,0.022535098367914057,0.028584290137595406,0.011775177641301302,0.027811582491009543
1.007438959970599,0.059562255279517966,0.03427914653504681,0.043832242766228824,0.018785056909862246,0.04260922770019917
1.0074860419957294,0.08449757331606145,0.045351484306576796,0.058037587268334905,0.025666239195736244,0.05638176334978431
1.0075331240208598,0.10858230355013457,0.0537924232432145,0.06858033205585247,0.033004602825446476,0.06647873206214697
1.0075802060459902,0.12742598805780986,0.05910536793210023,0.07621925524513734,0.03794612025899027,0.07382320534870962
1.0076272880711206,0.13840784538629322,0.060488339662945416,0.07904744927672683,0.04046014759454377,0.07650432533509743
1.007674370096251,0.14057521646913557,0.05800898461058858,0.0769603579802706,0.04228197084879076,0.074312964560067
1.0077214521213813,0.1345761316442056,0.053025952809921235,0.07084930100861353,0.040978779551931965,0.06828010415487855
1.0077685341465117,0.12269802495893224,0.045199632057573574,0.062425783036096825,0.03641979160604973,0.06012869586623466
1.007815616171642,0.10844877640211482,0.037007577025570663,0.054884533548136764,0.030482869275796735,0.052945778672945115
