freq,gls,usurper,pdc_unbiased,shape_periodogram,shift_periodogram
1.0,0.02176245538732735,0.008635997127417893,-0.007335655112181927,0.0053108374533489405,-0.007447581612667349
1.0000470820251304,0.05134779247241603,0.014896002730193604,0.016081221596065367,0.006741553292271076,0.015933882258684497
1.0000941640502607,0.09689124580742478,0.02343367407647068,0.05094334186944231,0.010889899585226497,0.05070289007095321
1.0001412460753911,0.14848755125694818,0.03251982696896485,0.08456655871201842,0.017930551989556894,0.0841816789816975
1.0001883281005215,0.19664060203551523,0.041476049056355484,0.10917973127593883,0.028097476360897516,0.10860759118845216
1.0002354101256519,0.23592916525893703,0.048626191524096016,0.12678225514793529,0.035781405567874465,0.12608672684481095
1.0002824921507822,0.26363730657080775,0.05100632781724008,0.13936052532630389,0.039782636209561725,0.13861117087836416
1.0003295741759126,0.2780607972143743,0.052591754941279385,0.14663287491158739,0.04210868792500324,0.1458554357429823
1.000376656201043,0.27778293516045677,0.0531251502520614,0.14742341655727248,0.0434666381120623,0.1466270094591598
1.0004237382261734,0.2619162710265795,0.05011912734149487,0.139633635428265,0.044024564213650946,0.13882064093017035
1.0004708202513037,0.23107843684954268,0.04429984760886776,0.12167319492364326,0.04271008468908761,0.12086170471676885
1.0005179022764341,0.1884924826566669,0.03677160675673346,0.09811663264576473,0.04046586716501426,0.0973208814581939
1.0005649843015645,0.1401213853463462,0.03092069457279768,0.07552593926328457,0.03791264501428473,0.0747587889978109
1.0006120663266949,0.09311329616242185,0.026828254071003407,0.056936636782797936,0.03310568922894348,0.05625024920198929
1.0006591483518252,0.05338098213176131,0.026056489059205035,0.04656239048066332,0.025351624622539357,0.04602644991319404
1.0007062303769556,0.024158292773911582,0.025350193034182116,0.0379052596807291,0.01577800101722488,0.03756478647182792
1.000753312402086,0.006389706849983347,0.02565269235871082,0.024925530867037873,0.005669029315146768,0.024799189696262665
1.0008003944272164,4.4957735270936574e-05,0.0276046210850629,0.013623927240606612,-0.002705737281791919,0.013678678330330343
1.0008474764523467,0.004476680458159687,0.027440552371420453,0.005279248516488982,-0.0043966429864147364,0.005372058190291869
1.000894558477477,0.016631009383087918,0.0305776319639522,0.00604487589630294,-0.0006545944796287911,0.006057486080098843
1.0009416405026075,0.030279800796216314,0.03754194289938449,0.01614856324889533,0.006831782865558603,0.015999292590113266
1.0009887225277379,0.04019506929021177,0.04667959553572014,0.031662352407458065,0.01901290167268616,0.031255019629244575
1.0010358045528682,0.045271217739530065,0.053674053271715656,0.049643587368788454,0.03452375664898749,0.048926194882606085
1.0010828865779986,0.04665854735345898,0.05821229044602698,0.06394396252727896,0.049130568896445494,0.06296142916823468
1.001129968603129,0.04557434040645729,0.06165422083016406,0.06951556918541625,0.061195659598067026,0.06832861332563123
1.0011770506282593,0.04281463251624272,0.06126417474178319,0.06676401531502141,0.06843551491172001,0.065448529294347
1.0012241326533897,0.03911406922799136,0.05573044722968607,0.05756222886158259,0.07132031288485313,0.056174795175514436
1.00127121467852,0.035734840091298535,0.04742189520544683,0.04469056838221148,0.07155716601225973,0.04326614832021438
1.0013182967036505,0.034632288517627896,0.04047927918327195,0.03354469161607427,0.07092641918121838,0.03210437079637535
1.0013653787287808,0.03686446430802818,0.038532208749171605,0.03235087082016887,0.06925382919769144,0.03093978688662708
1.0014124607539112,0.040499198873267514,0.041526743730347974,0.04235422606047071,0.06787035347664878,0.04099213585773039
1.0014595427790416,0.04245011553894062,0.045945827085505764,0.05148956578485458,0.06616493898297314,0.050178866454407875
1.001506624804172,0.04142424671447975,0.04720279329040822,0.057489670337512934,0.05990262719584575,0.056303296277100796
1.0015537068293023,0.03772147907862947,0.04658695508956526,0.05838903434484734,0.04993340756777388,0.05738523886046189
1.0016007888544327,0.032149333674356434,0.04374475298774969,0.05286952532393206,0.037077423566152,0.05210404167211152
1.001647870879563,0.025799799790141527,0.039359498940688034,0.040386054375886556,0.021343617033440575,0.03993086065184312
1.0016949529046935,0.020580986012262138,0.03145118980739436,0.02276083148008517,0.006199869032560382,0.022623664860861963
1.0017420349298238,0.01993155776046648,0.027397673928405086,0.008396000375120035,-0.004644136559865499,0.008493420847027587
1.0017891169549542,0.027489951613850306,0.02733575919234188,0.00883020356959996,-0.0058100707949497645,0.00895249930461524
1.0018361989800846,0.042074300128446054,0.028365755989692255,0.022145335055818467,-0.0009290543557116801,0.02216013034120127
1.001883281005215,0.05845891480384451,0.03446506736433163,0.04104344236602053,0.008970903362707663,0.04084447429541957
1.0019303630303453,0.07582159493280267,0.04001621809557759,0.05832937685591873,0.021014370611395838,0.05788197800413536
1.0019774450554757,0.09824195100672209,0.04309707261044127,0.07041397317164165,0.03596295076974198,0.06967984868696146
1.002024527080606,0.1303669711588208,0.040316339896636036,0.07896421651578898,0.04684192062317838,0.07803952933065697
1.0020716091057364,0.17464242099810953,0.035354553868958825,0.08832693698111686,0.05472084262878124,0.0872806482790844
1.0021186911308668,0.22917237164395338,0.03755578315832598,0.11355266104308831,0.05887311498645219,0.11248541920510348
1.0021657731559972,0.2864808872447173,0.04379692809847322,0.14880372324738836,0.06196755369782152,0.14776723187351115
1.0022128551811276,0.335488571803669,0.05014356685387797,0.17945522269565434,0.06445555999438828,0.1784627864404434
1.002259937206258,0.3667004160945303,0.054394580261099,0.20044309409803335,0.06561547968736639,0.19949271088191783
1.0023070192313883,0.37630521047742305,0.05610711373170648,0.20989430295355302,0.06498237674728297,0.2089722491365958
1.0023541012565187,0.3658732131217113,0.05536494637690501,0.20800353236518512,0.06275490440963583,0.20709311675661524
1.002401183281649,0.3393357840705059,0.05441634035264913,0.19716291122807472,0.058635934439787075,0.19626303228027772
1.0024482653067794,0.30043566038503033,0.05161859610016919,0.1783931936762516,0.05063372946819912,0.1775430691233531
1.0024953473319098,0.25183659939415354,0.044672806550463066,0.15384153094853617,0.03838553834292608,0.15312582503137723
1.0025424293570402,0.1956066522565673,0.03387956219062916,0.12081929242955049,0.0229029841617358,0.12034434392449081
1.0025895113821706,0.13475970805500284,0.023041916945880255,0.07564140824241966,0.00622430789802812,0.07549379122110392
1.002636593407301,0.07582916802294695,0.015144073567026472,0.025728531183742454,-0.005734690707761254,0.025845525804423567
1.0026836754324313,0.03145358980808763,0.014250866180943168,-0.0040036080406334615,-0.00566562121725872,-0.0038816697363768557
1.0027307574575617,0.01779891286180085,0.020226422018117137,-0.006351274616742859,0.008318066089242637,-0.006527817214248826
1.002777839482692,0.04358985242398123,0.021179766119876736,0.006591376950054447,0.030023043940181706,0.005950921932398053
1.0028249215078224,0.1037077589167159,0.028805029732101365,0.04281328660270074,0.04534267815505582,0.041880036090318325
1.0028720035329528,0.18101238562213362,0.043645722535149874,0.0979436666785688,0.051592787547005345,0.09696240737190842
1.0029190855580832,0.25636899888384335,0.06091597029591428,0.15380629462607742,0.05281898001197697,0.15289107936234467
1.0029661675832136,0.31832235074100634,0.07212517711255581,0.19704252226634572,0.05188840798114245,0.19620802186951983
1.003013249608344,0.36361141655314383,0.0782562215469796,0.228525784613192,0.05031288531667607,0.22775724663751776
1.0030603316334743,0.39341420767750745,0.08069939467767608,0.24979870354304085,0.04706276869489344,0.24909055197704694
1.0031074136586047,0.4102870696014962,0.08018735647415508,0.26258314989231946,0.0436904777076201,0.26192105072414773
1.003154495683735,0.41662904201390033,0.07834999945094241,0.266777273312063,0.04008394876664692,0.2661522607000083
1.0032015777088654,0.41405085665469693,0.07486297518525083,0.26326150551395927,0.03582001220686043,0.26267488068763223
1.0032486597339958,0.4030953535584088,0.06974675140614423,0.251751202986526,0.030538905237040923,0.2512153185580983
1.0032957417591262,0.38301151602067063,0.0629448592375979,0.2324239377319079,0.024527281238835522,0.23195732725649015
1.0033428237842565,0.3514583105172215,0.05423895446874147,0.2047530276495091,0.017562571635267386,0.2043863730959203
1.003389905809387,0.3042863356687068,0.04319641868691262,0.16911475512504195,0.009954238987161534,0.16888165763404542
1.0034369878345173,0.2364892670841809,0.03082815828795446,0.12615890065588273,0.002061635870393089,0.12608779013735405
1.0034840698596477,0.14805992805189566,0.018340989476678834,0.07745804013496241,-0.0052001798259890515,0.07755163714633563
1.003531151884778,0.05937981673678241,0.010346207387492702,0.035632586371168055,-0.010295458660341412,0.035845974072724364
1.0035782339099084,0.016571701488668728,0.010218123627609325,0.012038086514572617,-0.011702535095601364,0.01228623625474766
1.0036253159350388,0.04141534161646615,0.019910189454708793,0.014399178728297872,-0.006692176544014319,0.014539200029880522
1.0036723979601692,0.0978579156313711,0.034991289422311646,0.03595348541122598,0.00493539521532258,0.035840441131231075
1.0037194799852995,0.14599333246590304,0.05266630675573043,0.06503465797160808,0.01738099283115409,0.06466045563688291
1.00376656201043,0.17300879075255565,0.06465861810397833,0.0922030709843016,0.02967529970057655,0.09159596516994567
1.0038136440355603,0.18229222765708752,0.07458607669858838,0.11374971918924169,0.037317198909898236,0.11301954164341228
1.0038607260606907,0.18262972424027749,0.08056029624348128,0.12736778710133306,0.04340471064501822,0.12655116619681805
1.003907808085821,0.18292620727983336,0.08256881447054822,0.13485525602086357,0.05102849649195176,0.13393513920143424
1.0039548901109514,0.18798821740501145,0.08399425770860923,0.13913083302593265,0.057400404892029105,0.138131415430395
1.0040019721360818,0.19658928748535154,0.08221401273685396,0.1397247738744464,0.06087265496400578,0.13868227895317636
1.0040490541612122,0.20361099360789395,0.07745781345133954,0.1356935801867525,0.06142787499750662,0.1346356834610672
1.0040961361863425,0.20356945018764083,0.06953991873592406,0.1287855413388881,0.06049298039355471,0.12772553478839424
1.004143218211473,0.19261735903368254,0.05948980190562947,0.11776025800915435,0.05893401388884995,0.11670006989049003
1.0041903002366033,0.1692114287165738,0.04736864445088382,0.09836742477706704,0.053668961510581044,0.09735352053298378
1.0042373822617336,0.13469585530973552,0.03457303287449509,0.07519967777083232,0.04507093033069466,0.07430245921524636
1.004284464286864,0.094068350002802,0.02181865947563122,0.051842634052145065,0.034206676532141204,0.05113248755351306
1.0043315463119944,0.0558705414627791,0.01108378697691083,0.03082107495389939,0.02093683240534063,0.030373847157895244
1.0043786283371248,0.029785725493520713,0.00473581047283454,0.019809015244991575,0.007152899347706202,0.019652208138862856
1.0044257103622551,0.022326134922130727,0.002609598753008564,0.01684685304795892,-0.004444874835541599,0.01693813105188497
1.0044727923873855,0.03362727707623793,0.004277829420554707,0.01768087969631584,-0.010956909678989603,0.017911983394799155
1.004519874412516,0.057935866130881315,0.00896388892916168,0.0238553638180855,-0.012303333335984188,0.02411446917761635
1.0045669564376463,0.08691312585069338,0.01596219932520112,0.038233159934289905,-0.007474409744472326,0.038384906115401796
1.0046140384627766,0.11302745450084833,0.0241264421334928,0.05542672474865837,0.003366801111275326,0.05534278931739445
1.004661120487907,0.13143773576861661,0.03192719130949018,0.07126698378066398,0.01620960844292664,0.07091623907169016
1.0047082025130374,0.140315951549541,0.037747571213374666,0.0817840112464661,0.02881316694154769,0.08118924940866243
1.0047552845381678,0.14016084842095028,0.03931029924728145,0.0846685751900148,0.039374666410482304,0.0838813675553198
1.0048023665632981,0.13271042804166153,0.03825472374940147,0.08028160564993014,0.04721900686574371,0.07935176548322591
1.0048494485884285,0.1199532079956697,0.035039002397891504,0.06958311394397716,0.054120461946437916,0.06851880188006758
1.0048965306135589,0.10352759540252561,0.0318856872077476,0.05738407400153901,0.05927001590308057,0.05620887373069886
1.0049436126386893,0.08458770500586026,0.02601036009648602,0.04469505929439128,0.06022043531597098,0.04348031138566032
1.0049906946638196,0.06411017510052013,0.021746780190799238,0.03435472552873721,0.05696904964065304,0.033185226034512814
1.00503777668895,0.043500849939608656,0.015387947994641379,0.022887706523455283,0.052357696479269626,0.0217941776148472
1.0050848587140804,0.02497562650004661,0.010367565564361468,0.013888116903115118,0.04547424647121794,0.012926675371966604
1.0051319407392107,0.011013597455985432,0.007038363753028994,0.011624969459267675,0.035396686142183297,0.010872752193651967
1.0051790227643411,0.003334338693202587,0.0054216838205389025,0.009001101837417943,0.0238676726306928,0.00849140957445818
1.0052261047894715,0.0027948227754708652,0.0004618460856298042,0.005716764128480125,0.012822474984951612,0.005441869152828648
1.0052731868146019,0.010164673003053454,-0.0035912677128906384,0.005314070387151807,0.0037929342253624257,0.005231832809023435
1.0053202688397322,0.026566180290056158,-0.004722966570067218,0.008193549268036414,-0.0037488312843312176,0.008271849997006402
1.0053673508648626,0.05291846997433676,-0.003646740684717402,0.011498759854167706,-0.007344512159428855,0.011653387546405686
1.005414432889993,0.08828034555015178,-0.00041760786045272515,0.017065936640710815,-0.006838248891040049,0.017208528468123714
1.0054615149151234,0.12763762777320273,0.0031651440820412236,0.025647230237824777,-0.0029295672177613355,0.025704036503597365
1.0055085969402537,0.16155770115500132,0.006448583828561216,0.038076850744054896,0.005519796557903241,0.03795102644128185
1.0055556789653841,0.18078890709766565,0.009799804819372017,0.05135766337998839,0.016779069376250632,0.050995919091836504
1.0056027609905145,0.18307418566708303,0.011168489775700256,0.06056084021799014,0.028281702659307698,0.05996979481753023
1.0056498430156449,0.1741533504439713,0.012701755849550453,0.06655908741414072,0.03758328791091628,0.06579224668461472
1.0056969250407752,0.16242605985016223,0.013000733846404329,0.07063087442771013,0.04482113560055948,0.06973367862145516
1.0057440070659056,0.15418810481596457,0.01192231871753055,0.07107575192890922,0.04808687031877583,0.07012024185599376
1.005791089091036,0.1523552110015489,0.00953141701516387,0.0660360559428213,0.047849429775804656,0.06507917806777166
1.0058381711161664,0.15691036178882456,0.008913428845340932,0.06130313889977103,0.0456743658838106,0.06038120387329781
1.0058852531412967,0.16538784679386007,0.010437119145059282,0.06307528196508604,0.04215458657189564,0.062220366259500684
1.005932335166427,0.17322460684996496,0.010330071338270038,0.06323184659303546,0.03606761646960472,0.06249166513554783
1.0059794171915575,0.17475929729964576,0.00819209201753797,0.05880087400333982,0.027907522694727162,0.05821668974584612
1.0060264992166879,0.16548577922015562,0.005719368703835622,0.05204155960234529,0.020035494391350404,0.05161355054510852
1.0060735812418182,0.1445721481217929,0.0025571418412473628,0.04234591607178599,0.012323625106673931,0.042076766148216
1.0061206632669486,0.11538472372115638,-0.0006040831242445275,0.03266210113426135,0.005356622261293157,0.03254081238224305
1.006167745292079,0.08342022676517998,-0.002675609482956051,0.0259645785337829,-0.00026073931458727904,0.025964219631235054
1.0062148273172093,0.053714935068683495,-0.002375749158892286,0.01794830890199036,-0.0034207009919635877,0.018017389604692347
1.0062619093423397,0.029620632829972474,-0.001389932036673056,0.006428025048282717,-0.004283170924812883,0.006518153266354755
1.00630899136747,0.012907514843990737,0.0006159391841407413,-0.004503164505502606,-0.002115369594234997,-0.0044569363435113364
1.0063560733926005,0.004292560353454192,0.003700608242840842,-0.010519166817943732,0.0013932646790762488,-0.010546547240082346
1.0064031554177308,0.0038095921685766332,0.009158450981349714,-0.007972360122875525,0.004644353740257239,-0.008069878464094784
1.0064502374428612,0.010924293923755681,0.017452359761330416,0.0013341291502741227,0.011744489204648694,0.0010828896215821669
1.0064973194679916,0.02453035587728399,0.023922261030373128,0.011333716656649779,0.020277813615507963,0.010900060242847115
1.006544401493122,0.042966387475684646,0.02906067124827423,0.020787738978896356,0.027994808108232853,0.02019295904621908
1.0065914835182523,0.06411092062196938,0.03181024996529849,0.03329944681240632,0.03265230494671654,0.032612492252464945
1.0066385655433827,0.08556714248621351,0.035495778858561124,0.049462130528264495,0.03492669430681141,0.04873674687284545
1.006685647568513,0.10493697207975199,0.03781688129890735,0.06485229624100503,0.035029384599301605,0.06413273649686019
1.0067327295936435,0.12014720761669652,0.03854831158991863,0.07640706666955516,0.03322984655730677,0.07572724038413683
1.0067798116187738,0.12974860817624662,0.03610749111064918,0.08294186479002422,0.03027772765004415,0.08232003434741972
1.0068268936439042,0.1331160769266914,0.03458898902454527,0.08436945777741765,0.025391793759016255,0.08384022213430531
1.0068739756690346,0.13051634907150206,0.030699955759266293,0.08386978816652868,0.021128765047453743,0.0834224114859943
1.006921057694165,0.12301693370584733,0.02480116612434357,0.08185258015702256,0.015175312954623682,0.08152223794399521
1.0069681397192953,0.11219272060745543,0.017017681376893044,0.07585112215539112,0.008090171677256217,0.07566493614136438
1.0070152217444257,0.09964098937742749,0.009262010846564644,0.06985230351433948,0.0017793350260269052,0.06979878439602603
1.007062303769556,0.08648287672211809,0.003046121727472059,0.06302251331950957,-0.0031157467216332696,0.06307467480502423
1.0071093857946865,0.07315337862299943,-0.0005816325829497169,0.053521194673379444,-0.0062691398471841665,0.05364346672865524
1.0071564678198168,0.05967551136841471,-0.0034422936398393464,0.042771215350936226,-0.008416297856611544,0.042942364319928754
1.0072035498449472,0.046352747241279996,-0.005786688663813955,0.029687677967592516,-0.00883924988370332,0.02987073500107079
1.0072506318700776,0.03458526276589038,-0.00655945325678573,0.01916866027493343,-0.007917373326611125,0.01933400979229009
1.007297713895208,0.02727830692374265,-0.006028221275412704,0.01473006896934623,-0.00719666971173819,0.014880851171073696
1.0073447959203383,0.0280866607277734,-0.0037206705960792816,0.01711698325886342,-0.005203061793343092,0.017224461315852573
1.0073918779454687,0.03925806445151868,0.0022572365212852755,0.028584290137595406,-0.0006583755175678985,0.028591826388633182
1.007438959970599,0.059562255279517966,0.009646277573669941,0.043832242766228824,0.004259206375018773,0.04373187708607613
1.0074860419957294,0.08449757331606145,0.016004379149187183,0.058037587268334905,0.010019123557722593,0.057814209182416504
1.0075331240208598,0.10858230355013457,0.0204599733409489,0.06858033205585247,0.014943943273130382,0.06825517556204459
1.0075802060459902,0.12742598805780986,0.023831485466943688,0.07621925524513734,0.01839836139924226,0.07582488918009112
1.0076272880711206,0.13840784538629322,0.02511346428813345,0.07904744927672683,0.020625347157042354,0.07860940872569325
1.007674370096251,0.14057521646913557,0.024121665552953864,0.0769603579802706,0.02190213781644835,0.07649714628798603
1.0077214521213813,0.1345761316442056,0.021767559340960644,0.07084930100861353,0.021516962413448602,0.0703929767445911
