freq,gls,usurper,pdc_unbiased,shape_periodogram,shift_periodogram
1.0,0.02176245538732735,0.009233005413145303,-0.007335655112181927,-0.002838334607402903,-0.00730547301062355
1.0000470820251304,0.05134779247241603,0.015260476719088992,0.016081221596065367,-0.0016122245530154795,0.016097281509205946
1.0000941640502607,0.09689124580742478,0.02119858237097867,0.05094334186944231,0.005794980118862781,0.05088076684035655
1.0001412460753911,0.14848755125694818,0.028108453180337844,0.08456655871201842,0.011751338677645074,0.08444561946832749
1.0001883281005215,0.19664060203551523,0.03369951656027821,0.10917973127593883,0.019179032712488348,0.10899574932163326
1.0002354101256519,0.23592916525893703,0.036571457513546346,0.12678225514793529,0.02468998465563411,0.1265602479787638
1.0002824921507822,0.26363730657080775,0.03512107600878537,0.13936052532630389,0.027469297371053667,0.13912432378026018
1.0003295741759126,0.2780607972143743,0.034464655567176386,0.14663287491158739,0.029292051464825556,0.14638864246206795
1.000376656201043,0.27778293516045677,0.03435778171252057,0.14742341655727248,0.030128296636913184,0.1471746448278148
1.0004237382261734,0.2619162710265795,0.031883120653149945,0.139633635428265,0.03094915348069709,0.13937595167870462
1.0004708202513037,0.23107843684954268,0.027761604745206038,0.12167319492364326,0.03061824672750086,0.12140819709204172
1.0005179022764341,0.1884924826566669,0.022707892284761912,0.09811663264576473,0.029099659819182097,0.09785108723861956
1.0005649843015645,0.1401213853463462,0.01837102522932317,0.07552593926328457,0.02741666938076202,0.07526443929508253
1.0006120663266949,0.09311329616242185,0.015250057886982023,0.056936636782797936,0.025224202282329508,0.05668785185861115
1.0006591483518252,0.05338098213176131,0.01464149714802886,0.04656239048066332,0.020491579922360174,0.04635502563140452
1.0007062303769556,0.024158292773911582,0.013994064440785811,0.0379052596807291,0.014061175721600672,0.037759540424164864
1.000753312402086,0.006389706849983347,0.013248623998309268,0.024925530867037873,0.006157263165879714,0.024860021944562265
1.0008003944272164,4.4957735270936574e-05,0.014905978800334528,0.013623927240606612,-0.0017825214996229197,0.013641913226597168
1.0008474764523467,0.004476680458159687,0.01566238649982428,0.005279248516488982,-0.004386620657131545,0.005325076767189796
1.000894558477477,0.016631009383087918,0.017750399546842467,0.00604487589630294,-0.0033995720552396445,0.0060802794064133674
1.0009416405026075,0.030279800796216314,0.02442004026692772,0.01614856324889533,0.0003889682321775153,0.01614359056953497
1.0009887225277379,0.04019506929021177,0.031472537554137446,0.031662352407458065,0.010228745927559487,0.0315549914729022
1.0010358045528682,0.045271217739530065,0.03796696115074114,0.049643587368788454,0.023042277749544347,0.04941283373437641
1.0010828865779986,0.04665854735345898,0.03945620411419657,0.06394396252727896,0.03489919750943009,0.06361475217536014
1.001129968603129,0.04557434040645729,0.04104085188734891,0.06951556918541625,0.04461965433424406,0.06911501630364116
1.0011770506282593,0.04281463251624272,0.039901542125692135,0.06676401531502141,0.051124563129465464,0.06631331357728375
1.0012241326533897,0.03911406922799136,0.034601163722326356,0.05756222886158259,0.054319482779229725,0.05707537561253297
1.00127121467852,0.035734840091298535,0.027408911959707218,0.04469056838221148,0.05505216695828234,0.04417850381342842
1.0013182967036505,0.034632288517627896,0.022322658309902998,0.03354469161607427,0.05531360368275597,0.03301336798459135
1.0013653787287808,0.03686446430802818,0.022418314569505365,0.03235087082016887,0.05498165426907237,0.03182062277716344
1.0014124607539112,0.040499198873267514,0.02542896317140759,0.04235422606047071,0.05457105988997071,0.04184252807978639
1.0014595427790416,0.04245011553894062,0.02845410878240086,0.05148956578485458,0.05218713708309765,0.051010127342369704
1.001506624804172,0.04142424671447975,0.028773638894644495,0.057489670337512934,0.04624117981983524,0.057064094040042854
1.0015537068293023,0.03772147907862947,0.0270981261421195,0.05838903434484734,0.038281785283663876,0.05802820643136772
1.0016007888544327,0.032149333674356434,0.025285611579742726,0.05286952532393206,0.027813655011158164,0.052596015905638865
1.001647870879563,0.025799799790141527,0.024029883320942774,0.040386054375886556,0.015341035210974652,0.04022783150347667
1.0016949529046935,0.020580986012262138,0.01952426844584401,0.02276083148008517,0.0036913386598569115,0.02272099364084137
1.0017420349298238,0.01993155776046648,0.01713479337281971,0.008396000375120035,-0.005734529921256849,0.008455896382277015
1.0017891169549542,0.027489951613850306,0.017846849112988093,0.00883020356959996,-0.008273768168198765,0.008916906080365754
1.0018361989800846,0.042074300128446054,0.0173064903395771,0.022145335055818467,-0.0046897718052096565,0.02219357586920125
1.001883281005215,0.05845891480384451,0.01935575611243517,0.04104344236602053,0.002003966955180114,0.04102027141543731
1.0019303630303453,0.07582159493280267,0.024197221704331938,0.05832937685591873,0.010408919992861638,0.05822055171911289
1.0019774450554757,0.09824195100672209,0.02909625569104695,0.07041397317164165,0.022123856605274175,0.07019657196728676
1.002024527080606,0.1303669711588208,0.028297687560376487,0.07896421651578898,0.032229572893135765,0.07866516194695322
1.0020716091057364,0.17464242099810953,0.023947218578696042,0.08832693698111686,0.03963215701774737,0.08797929619130197
1.0021186911308668,0.22917237164395338,0.02518514097119736,0.11355266104308831,0.044708786976445564,0.11319768613093717
1.0021657731559972,0.2864808872447173,0.029165332301267673,0.14880372324738836,0.04699770919363668,0.14847881618913833
1.0022128551811276,0.335488571803669,0.03339253971131575,0.17945522269565434,0.04834529411839199,0.17916494992935222
1.002259937206258,0.3667004160945303,0.03668201853033363,0.20044309409803335,0.048455217904727114,0.20017960401235746
1.0023070192313883,0.37630521047742305,0.03860880334889441,0.20989430295355302,0.04726189850733513,0.20964322584233008
1.0023541012565187,0.3658732131217113,0.039018919845080796,0.20800353236518512,0.04481371981355459,0.20775177013802043
1.002401183281649,0.3393357840705059,0.03926921771429539,0.19716291122807472,0.04075365973841986,0.196906358702524
1.0024482653067794,0.30043566038503033,0.03737524913154968,0.1783931936762516,0.03443583308249651,0.1781414039324299
1.0024953473319098,0.25183659939415354,0.03117907286264879,0.15384153094853617,0.024717482276327984,0.1536286289259249
1.0025424293570402,0.1956066522565673,0.02247551997561775,0.12081929242955049,0.013745358100982877,0.12068274723344802
1.0025895113821706,0.13475970805500284,0.013529598149265937,0.07564140824241966,0.0024162111676766396,0.07561232112359273
1.002636593407301,0.07582916802294695,0.005648093744358477,0.025728531183742454,-0.0057932434881539695,0.025788328122806164
1.0026836754324313,0.03145358980808763,0.007005567481939472,-0.0040036080406334615,-0.007476261829122755,-0.00392497997188591
1.0027307574575617,0.01779891286180085,0.014014638940847444,-0.006351274616742859,0.001960284996392565,-0.0063715230656857325
1.002777839482692,0.04358985242398123,0.011377160549772457,0.006591376950054447,0.016494765384892387,0.006418662761524074
1.0028249215078224,0.1037077589167159,0.011918119931672315,0.04281328660270074,0.027332227964716054,0.04254052300399168
1.0028720035329528,0.18101238562213362,0.017416225535515143,0.0979436666785688,0.03804067007765715,0.09761449089973698
1.0029190855580832,0.25636899888384335,0.028558243205126004,0.15380629462607742,0.03881100810046597,0.1535176851822214
1.0029661675832136,0.31832235074100634,0.040941033056463266,0.19704252226634572,0.033974156206566124,0.19680502282607001
1.003013249608344,0.36361141655314383,0.046053515299349757,0.228525784613192,0.03332428214530142,0.22831106971381981
1.0030603316334743,0.39341420767750745,0.048624848212655496,0.24979870354304085,0.03185837721824072,0.2496007912228502
1.0031074136586047,0.4102870696014962,0.049080653385468326,0.26258314989231946,0.029329342971154318,0.26239801951468716
1.003154495683735,0.41662904201390033,0.048503143451259875,0.266777273312063,0.02686055257509887,0.2666004078566708
1.0032015777088654,0.41405085665469693,0.04670270835024212,0.26326150551395927,0.023832523158195583,0.26309279127185403
1.0032486597339958,0.4030953535584088,0.043830472333412106,0.251751202986526,0.019816036781895682,0.251595810324733
1.0032957417591262,0.38301151602067063,0.03994898096347668,0.2324239377319079,0.015204939533084685,0.2322902815314679
1.0033428237842565,0.3514583105172215,0.03496537468716638,0.2047530276495091,0.009878930768618378,0.20465447630993358
1.003389905809387,0.3042863356687068,0.028478371074877527,0.16911475512504195,0.0042518441592702865,0.16906442596533744
1.0034369878345173,0.2364892670841809,0.021370036225272542,0.12615890065588273,-0.0014575803451673428,0.12616712947959957
1.0034840698596477,0.14805992805189566,0.014648473774297954,0.07745804013496241,-0.006604177591844768,0.07752421033858399
1.003531151884778,0.05937981673678241,0.011034632371319958,0.035632586371168055,-0.009897883177912577,0.03573612518163316
1.0035782339099084,0.016571701488668728,0.011942622680879917,0.012038086514572617,-0.00957292654362496,0.01213849562864235
1.0036253159350388,0.04141534161646615,0.018526054464621106,0.014399178728297872,-0.0043153546307949054,0.01444382672258353
1.0036723979601692,0.0978579156313711,0.027317167383054494,0.03595348541122598,0.004651322168857991,0.03590313738323076
1.0037194799852995,0.14599333246590304,0.0365443692902496,0.06503465797160808,0.013580313159469238,0.06489532133138018
1.00376656201043,0.17300879075255565,0.04115315258248218,0.0922030709843016,0.022561249401432473,0.09198730477545235
1.0038136440355603,0.18229222765708752,0.045648486024877,0.11374971918924169,0.027753921289906586,0.11350082702762693
1.0038607260606907,0.18262972424027749,0.04867948183754736,0.12736778710133306,0.03293612925989,0.12709116699849388
1.003907808085821,0.18292620727983336,0.04639926436670729,0.13485525602086357,0.039936619469676186,0.1345452741197233
1.0039548901109514,0.18798821740501145,0.04514316530589523,0.13913083302593265,0.0435398004625407,0.13880830487637186
1.0040019721360818,0.19658928748535154,0.04266474477344586,0.1397247738744464,0.04428858941820497,0.1393997184417747
1.0040490541612122,0.20361099360789395,0.03965746364750639,0.1356935801867525,0.042527181722262365,0.13537206285377087
1.0040961361863425,0.20356945018764083,0.03540409049808895,0.1287855413388881,0.04078657657457193,0.12846591285351167
1.004143218211473,0.19261735903368254,0.029308352881926524,0.11776025800915435,0.03846676505235382,0.11744392983685682
1.0041903002366033,0.1692114287165738,0.021969672737787615,0.09836742477706704,0.03382102000929555,0.09806753868801799
1.0042373822617336,0.13469585530973552,0.014011080308878663,0.07519967777083232,0.027173918448803937,0.074940088580914
1.004284464286864,0.094068350002802,0.0069590119640101965,0.051842634052145065,0.01868085625845504,0.05165336535774241
1.0043315463119944,0.0558705414627791,0.0013953168170404498,0.03082107495389939,0.008677511155820319,0.030729527214018452
1.0043786283371248,0.029785725493520713,-0.0010525514911837357,0.019809015244991575,-0.0005856955174649595,0.019814074163026652
1.0044257103622551,0.022326134922130727,-0.0011377970126621828,0.01684685304795892,-0.007754183871971911,0.016927835780944946
1.0044727923873855,0.03362727707623793,0.0006460771142900758,0.01768087969631584,-0.011405397274706896,0.017800790011315425
1.004519874412516,0.057935866130881315,0.004165530083377513,0.0238553638180855,-0.011465466753563264,0.023975935761030437
1.0045669564376463,0.08691312585069338,0.009119137418578005,0.038233159934289905,-0.007186419223892356,0.0383073511544703
1.0046140384627766,0.11302745450084833,0.014946933329495688,0.05542672474865837,0.0019394018813023303,0.055403506464900706
1.004661120487907,0.13143773576861661,0.01995643612191896,0.07126698378066398,0.012085235535635744,0.07114228216353306
1.0047082025130374,0.140315951549541,0.023168305926060322,0.0817840112464661,0.021977845713388844,0.08157058731070975
1.0047552845381678,0.14016084842095028,0.02398550996972674,0.0846685751900148,0.03050932051432867,0.08438594722261082
1.0048023665632981,0.13271042804166153,0.023179456521983943,0.08028160564993014,0.035893415595059985,0.07995505229121057
1.0048494485884285,0.1199532079956697,0.02217606846996134,0.06958311394397716,0.04068977012282932,0.06921207996644926
1.0048965306135589,0.10352759540252561,0.018629416064126738,0.05738407400153901,0.04421870881216675,0.05697433708162813
1.0049436126386893,0.08458770500586026,0.01171066249025218,0.04469505929439128,0.04431790802304334,0.044271946533694664
1.0049906946638196,0.06411017510052013,0.0074053000968323434,0.03435472552873721,0.04164160800214493,0.03394566988839161
1.00503777668895,0.043500849939608656,0.002515547294981099,0.022887706523455283,0.03651667201381057,0.02251823895220733
1.0050848587140804,0.02497562650004661,-0.001064371564721835,0.013888116903115118,0.028657628043873687,0.013592043380714958
1.0051319407392107,0.011013597455985432,-0.003672997784361152,0.011624969459267675,0.01907856564602762,0.011426076713198972
1.0051790227643411,0.003334338693202587,-0.005488715680104853,0.009001101837417943,0.009462453910333062,0.008901637264318215
1.0052261047894715,0.0027948227754708652,-0.009199535330028168,0.005716764128480125,0.0022471667774531306,0.005692863694437561
1.0052731868146019,0.010164673003053454,-0.01351530862186858,0.005314070387151807,-0.0032612642064511967,0.005348055446235316
1.0053202688397322,0.026566180290056158,-0.016851651060381476,0.008193549268036414,-0.008796059406622484,0.008285788395948374
1.0053673508648626,0.05291846997433676,-0.0172543029600264,0.011498759854167706,-0.011527954659584875,0.011619944898319159
1.005414432889993,0.08828034555015178,-0.013688619038886986,0.017065936640710815,-0.010846631094658164,0.017179871766144068
1.0054615149151234,0.12763762777320273,-0.010579019999703133,0.025647230237824777,-0.00753996665020296,0.025725656978672077
1.0055085969402537,0.16155770115500132,-0.007741234764906431,0.038076850744054896,-0.0007793962967675728,0.038082933075180014
1.0055556789653841,0.18078890709766565,-0.005294709367312457,0.05135766337998839,0.00875914115001243,0.05126517073538532
1.0056027609905145,0.18307418566708303,-0.004615873774469525,0.06056084021799014,0.01917851556055143,0.06036825774732548
1.0056498430156449,0.1741533504439713,-0.004425064492995831,0.06655908741414072,0.02676943334131937,0.06629980244130278
1.0056969250407752,0.16242605985016223,-0.004437507455095922,0.07063087442771013,0.03203908955609306,0.07032894055271856
1.0057440070659056,0.15418810481596457,-0.004561954316198293,0.07107575192890922,0.03350604235250075,0.0707621403103415
1.005791089091036,0.1523552110015489,-0.004594870039500403,0.0660360559428213,0.03196010744968972,0.06573238810995051
1.0058381711161664,0.15691036178882456,-0.0030965498208621305,0.06130313889977103,0.029833767925541398,0.06101525787946511
1.0058852531412967,0.16538784679386007,-0.0009267673511102328,0.06307528196508604,0.02773666294621924,0.06280631220136677
1.005932335166427,0.17322460684996496,-0.0021192003720689563,0.06323184659303546,0.024568211164517975,0.06299082512264488
1.0059794171915575,0.17475929729964576,-0.003990523341880705,0.05880087400333982,0.019767976209127656,0.058602514593102666
1.0060264992166879,0.16548577922015562,-0.005363027500813246,0.05204155960234529,0.014326445014679187,0.05189415541264886
1.0060735812418182,0.1445721481217929,-0.00613685064300951,0.04234591607178599,0.008076010035506195,0.04226037045832407
1.0061206632669486,0.11538472372115638,-0.006957981502540689,0.03266210113426135,0.0006484747803657355,0.032653508878060324
1.006167745292079,0.08342022676517998,-0.007950080274406895,0.0259645785337829,-0.006073888783764231,0.026027353141393615
1.0062148273172093,0.053714935068683495,-0.00785952368883128,0.01794830890199036,-0.011011125986079118,0.01806400128859034
1.0062619093423397,0.029620632829972474,-0.007772064263090061,0.006428025048282717,-0.01323680025605367,0.006567255454040083
1.00630899136747,0.012907514843990737,-0.006924274020166051,-0.004503164505502606,-0.012460748639165393,-0.004372391515244488
1.0063560733926005,0.004292560353454192,-0.006289508583114711,-0.010519166817943732,-0.009566193129669361,-0.010418611782363208
1.0064031554177308,0.0038095921685766332,-0.0037208937903255245,-0.007972360122875525,-0.006177967170194878,-0.007907193906276573
1.0064502374428612,0.010924293923755681,0.0016023625123000502,0.0013341291502741227,0.0005191710871035706,0.0013286032136937194
1.0064973194679916,0.02453035587728399,0.004722751305882169,0.011333716656649779,0.008359223012634797,0.01124570927281669
1.006544401493122,0.042966387475684646,0.007051061665358025,0.020787738978896356,0.01626373028511925,0.020618620249023084
1.0065914835182523,0.06411092062196938,0.006977455809421106,0.03329944681240632,0.02139299961168001,0.03308086768260855
1.0066385655433827,0.08556714248621351,0.007966719695858309,0.049462130528264495,0.023741057230415124,0.04922482142566958
1.006685647568513,0.10493697207975199,0.009383776364105768,0.06485229624100503,0.024115294668727805,0.06461576835502982
1.0067327295936435,0.12014720761669652,0.010791670832553179,0.07640706666955516,0.022304283114880044,0.07618951411927083
1.0067798116187738,0.12974860817624662,0.010808249304983038,0.08294186479002422,0.01979908191129029,0.0827476294050791
1.0068268936439042,0.1331160769266914,0.012983906761563965,0.08436945777741765,0.016105261584020914,0.08420833686728726
1.0068739756690346,0.13051634907150206,0.011655349937956144,0.08386978816652868,0.012547411858548112,0.0837413487081634
1.006921057694165,0.12301693370584733,0.007655961573998158,0.08185258015702256,0.008345416391968763,0.08176415566041514
1.0069681397192953,0.11219272060745543,0.002621997479793248,0.07585112215539112,0.0037336521080416117,0.07580861358942921
1.0070152217444257,0.09964098937742749,-0.001968486858062958,0.06985230351433948,0.0003067675108161235,0.06984527484249096
1.007062303769556,0.08648287672211809,-0.005367975689122484,0.06302251331950957,-0.003114561517130087,0.0630518715686571
1.0071093857946865,0.07315337862299943,-0.005917342495439043,0.053521194673379444,-0.005760606438945864,0.05357937804249112
1.0071564678198168,0.05967551136841471,-0.005240707077582161,0.042771215350936226,-0.008167042528401959,0.042855825375114835
1.0072035498449472,0.046352747241279996,-0.005578148857891071,0.029687677967592516,-0.009869532248379767,0.02979100822525093
1.0072506318700776,0.03458526276589038,-0.005362660542083431,0.01916866027493343,-0.010268291343245601,0.0192764014581744
1.007297713895208,0.02727830692374265,-0.005054559215181939,0.01473006896934623,-0.010580940612124315,0.014841176377488852
1.0073447959203383,0.0280866607277734,-0.003565530297671916,0.01711698325886342,-0.010045343890101746,0.01722236194343403
1.0073918779454687,0.03925806445151868,0.0007655300528080142,0.028584290137595406,-0.0072014885682359225,0.028658997610354925
1.007438959970599,0.059562255279517966,0.0061588646327309015,0.043832242766228824,-0.0029883277867989297,0.04386131964800424
1.0074860419957294,0.08449757331606145,0.01069537663660989,0.058037587268334905,0.002187637619371857,0.0580116759635739
1.0075331240208598,0.10858230355013457,0.013297582509068073,0.06858033205585247,0.006786312272055479,0.06850736662887945
1.0075802060459902,0.12742598805780986,0.015375990236826153,0.07621925524513734,0.00953672043611077,0.0761192292259307
1.0076272880711206,0.13840784538629322,0.015519709558858683,0.07904744927672683,0.011511804863417283,0.07892854218110171
1.007674370096251,0.14057521646913557,0.01454516901878862,0.0769603579802706,0.012582265060186264,0.07683121063527446
