freq,gls,usurper,pdc_unbiased,shape_periodogram,shift_periodogram
1.0,0.02176245538732735,0.02074931666010691,-0.007335655112181927,0.002641324900665707,-0.00741533719095932
1.0000470820251304,0.05134779247241603,0.02770587796598015,0.016081221596065367,0.006080106328491267,0.015881809844445084
1.0000941640502607,0.09689124580742478,0.03370074465738034,0.05094334186944231,0.014141970505451506,0.05047874618093217
1.0001412460753911,0.14848755125694818,0.03962552554759325,0.08456655871201842,0.022740588221793197,0.08383663295703629
1.0001883281005215,0.19664060203551523,0.04507078413681432,0.10917973127593883,0.03242002437529515,0.10817770442519066
1.0002354101256519,0.23592916525893703,0.04870509155720703,0.12678225514793529,0.039287120573394625,0.12560587857467412
1.0002824921507822,0.26363730657080775,0.04847736187295642,0.13936052532630389,0.04215792123553681,0.1381213945905468
1.0003295741759126,0.2780607972143743,0.048795579867163597,0.14663287491158739,0.04399682228355713,0.14535558199541784
1.000376656201043,0.27778293516045677,0.049644607984981604,0.14742341655727248,0.04481350633088325,0.14612718248375714
1.0004237382261734,0.2619162710265795,0.04793738086817907,0.139633635428265,0.04513700300822953,0.13832106712591274
1.0004708202513037,0.23107843684954268,0.04403331358919127,0.12167319492364326,0.04376140597617506,0.12037704753990912
1.0005179022764341,0.1884924826566669,0.038787933234042615,0.09811663264576473,0.04120167988238144,0.09686864096720654
1.0005649843015645,0.1401213853463462,0.03505677176697619,0.07552593926328457,0.03802527667209272,0.07435273175834169
1.0006120663266949,0.09311329616242185,0.03297183485838176,0.056936636782797936,0.03381093600216048,0.055878861398191954
1.0006591483518252,0.05338098213176131,0.03370464016155169,0.04656239048066332,0.02761926641930144,0.04568827298823365
1.0007062303769556,0.024158292773911582,0.03399194937973876,0.0379052596807291,0.01987202520912574,0.03726829730753406
1.000753312402086,0.006389706849983347,0.034111981981694926,0.024925530867037873,0.010985656317138708,0.0245684256901279
1.0008003944272164,4.4957735270936574e-05,0.03623802506464189,0.013623927240606612,0.0030578955106665066,0.013520787067432444
1.0008474764523467,0.004476680458159687,0.03617949723249017,0.005279248516488982,0.001735670042650538,0.00522188527477613
1.000894558477477,0.016631009383087918,0.03891965621112079,0.00604487589630294,0.005101652632968782,0.005881036664311604
1.0009416405026075,0.030279800796216314,0.04627987122447531,0.01614856324889533,0.012403442607002917,0.015750660526533764
1.0009887225277379,0.04019506929021177,0.05597618506678056,0.031662352407458065,0.024868304545142855,0.030872904006852216
1.0010358045528682,0.045271217739530065,0.06387945196528616,0.049643587368788454,0.03994057008762433,0.048402203574738234
1.0010828865779986,0.04665854735345898,0.06635056563361927,0.06394396252727896,0.05491546658735191,0.062284070228426566
1.001129968603129,0.04557434040645729,0.06757101298911894,0.06951556918541625,0.06713865747599247,0.06752999170585819
1.0011770506282593,0.04281463251624272,0.06489065384922196,0.06676401531502141,0.07464655752407054,0.0645710038662833
1.0012241326533897,0.03911406922799136,0.058615124223516425,0.05756222886158259,0.07800348659035855,0.05525282438713837
1.00127121467852,0.035734840091298535,0.05073282130312487,0.04469056838221148,0.078153012468202,0.04233951380503204
1.0013182967036505,0.034632288517627896,0.04349503641651402,0.03354469161607427,0.07749291076760927,0.031181234818169756
1.0013653787287808,0.03686446430802818,0.04226196074050472,0.03235087082016887,0.07634214814247887,0.030017826268738567
1.0014124607539112,0.040499198873267514,0.04567357728654045,0.04235422606047071,0.07565966322066275,0.04006744761939067
1.0014595427790416,0.04245011553894062,0.04961019907958158,0.05148956578485458,0.0738751193560849,0.04927700400834852
1.001506624804172,0.04142424671447975,0.050673241734889976,0.057489670337512934,0.06753711032207496,0.055467313952400794
1.0015537068293023,0.03772147907862947,0.0492561044569123,0.05838903434484734,0.05822239960897425,0.05662846465352093
1.0016007888544327,0.032149333674356434,0.047026104876284586,0.05286952532393206,0.045694602743820374,0.05146147221268962
1.001647870879563,0.025799799790141527,0.04417974055128535,0.040386054375886556,0.030345057592912388,0.0394292593985012
1.0016949529046935,0.020580986012262138,0.03797292122029656,0.02276083148008517,0.015095230601022877,0.022276276135328735
1.0017420349298238,0.01993155776046648,0.0338585120322997,0.008396000375120035,0.003489939210649826,0.008281805039969413
1.0017891169549542,0.027489951613850306,0.03375033671720383,0.00883020356959996,0.001506385338154725,0.008778311197645444
1.0018361989800846,0.042074300128446054,0.033880636103727914,0.022145335055818467,0.006207170085894001,0.021939099558789976
1.001883281005215,0.05845891480384451,0.037823471172423725,0.04104344236602053,0.01589755696695042,0.04052797593627599
1.0019303630303453,0.07582159493280267,0.04432097184489787,0.05832937685591873,0.02658113387871137,0.057486483832144435
1.0019774450554757,0.09824195100672209,0.050157636807638566,0.07041397317164165,0.03818355786651522,0.06923375622194533
1.002024527080606,0.1303669711588208,0.04895894574867685,0.07896421651578898,0.047628088978519646,0.07752408645744464
1.0020716091057364,0.17464242099810953,0.043720149975991926,0.08832693698111686,0.054450296943712936,0.08671318834249982
1.0021186911308668,0.22917237164395338,0.04445421489237472,0.11355266104308831,0.05944040234696765,0.1118528488164414
1.0021657731559972,0.2864808872447173,0.048962136330174114,0.14880372324738836,0.06388857411016179,0.14707576545775758
1.0022128551811276,0.335488571803669,0.05378992999631801,0.17945522269565434,0.06783152311079309,0.1777269823889926
1.002259937206258,0.3667004160945303,0.05707907231796862,0.20044309409803335,0.07019725999547495,0.19873476662102765
1.0023070192313883,0.37630521047742305,0.05844734868637336,0.20989430295355302,0.0704730601730021,0.20821062285256234
1.0023541012565187,0.3658732131217113,0.05767984693005001,0.20800353236518512,0.06878871862764338,0.20634060757067096
1.002401183281649,0.3393357840705059,0.056048114356040096,0.19716291122807472,0.06474386542779724,0.19553774503120874
1.0024482653067794,0.30043566038503033,0.053710514842295505,0.1783931936762516,0.05757936912171319,0.1768604444578126
1.0024953473319098,0.25183659939415354,0.04936620850323967,0.15384153094853617,0.046218665270670825,0.1525190970112798
1.0025424293570402,0.1956066522565673,0.041385877873597605,0.12081929242955049,0.0319366532332322,0.11983473240239965
1.0025895113821706,0.13475970805500284,0.030524920183415117,0.07564140824241966,0.016503811050833463,0.07509801890112165
1.002636593407301,0.07582916802294695,0.02031374443250144,0.025728531183742454,0.004099788442219322,0.025586764483191218
1.0026836754324313,0.03145358980808763,0.01966765723680833,-0.0040036080406334615,0.0001095723377288294,-0.004005072057090902
1.0027307574575617,0.01779891286180085,0.027148461430766078,-0.006351274616742859,0.007759710933284202,-0.00659305495335305
1.002777839482692,0.04358985242398123,0.026594588688336127,0.006591376950054447,0.02377279053863646,0.005839948280760565
1.0028249215078224,0.1037077589167159,0.027299368788930797,0.04281328660270074,0.036214051177870216,0.04168010247109878
1.0028720035329528,0.18101238562213362,0.03469848915668924,0.0979436666785688,0.04486915965758388,0.09659652092654435
1.0029190855580832,0.25636899888384335,0.04850385079785602,0.15380629462607742,0.04854202929497559,0.15242942492638756
1.0029661675832136,0.31832235074100634,0.06137151733097611,0.19704252226634572,0.046328807432129984,0.19577275564869023
1.003013249608344,0.36361141655314383,0.06708272873487242,0.228525784613192,0.04546511629492074,0.22731700413502479
1.0030603316334743,0.39341420767750745,0.06991897332286837,0.24979870354304085,0.04444037820909582,0.248639268445856
1.0031074136586047,0.4102870696014962,0.07001320879761308,0.26258314989231946,0.042323502023173955,0.2614797541735759
1.003154495683735,0.41662904201390033,0.06922042795711576,0.266777273312063,0.03979121283141512,0.26572539456884203
1.0032015777088654,0.41405085665469693,0.06723099614003933,0.26326150551395927,0.03642550936976505,0.2622695299064118
1.0032486597339958,0.4030953535584088,0.06407948982341494,0.251751202986526,0.0319876039110059,0.2508391682923511
1.0032957417591262,0.38301151602067063,0.059714214662591907,0.2324239377319079,0.02654728709779575,0.23162107840436935
1.0033428237842565,0.3514583105172215,0.053884504378209255,0.2047530276495091,0.019930172499249114,0.20410459596933164
1.003389905809387,0.3042863356687068,0.04636358735003655,0.16911475512504195,0.012514920639677752,0.16866785913747132
1.0034369878345173,0.2364892670841809,0.037633505662585935,0.12615890065588273,0.0044416778370932825,0.12596157321178073
1.0034840698596477,0.14805992805189566,0.02824102353404211,0.07745804013496241,-0.0034187083268151382,0.07752704411205728
1.003531151884778,0.05937981673678241,0.02178067916126357,0.035632586371168055,-0.008893252504778992,0.03589627053269202
1.0035782339099084,0.016571701488668728,0.021569741818844114,0.012038086514572617,-0.009325307483463188,0.012326707471219705
1.0036253159350388,0.04141534161646615,0.029426974026671708,0.014399178728297872,-0.002065044469227654,0.01445716180774206
1.0036723979601692,0.0978579156313711,0.04102200910168707,0.03595348541122598,0.010289778668746856,0.03561356394987157
1.0037194799852995,0.14599333246590304,0.054261592288912315,0.06503465797160808,0.02510498249994638,0.06423568747788024
1.00376656201043,0.17300879075255565,0.06307813073133464,0.0922030709843016,0.04020872799946293,0.09097818713298468
1.0038136440355603,0.18229222765708752,0.06961693984022017,0.11374971918924169,0.04992298152787334,0.11228745327251402
1.0038607260606907,0.18262972424027749,0.07354570925996624,0.12736778710133306,0.057825586405985806,0.12573211828973216
1.003907808085821,0.18292620727983336,0.07380761198353261,0.13485525602086357,0.0663557771991837,0.13304035003665074
1.0039548901109514,0.18798821740501145,0.07370433864602238,0.13913083302593265,0.07103411806687375,0.1372262028715308
1.0040019721360818,0.19658928748535154,0.07252792359175714,0.1397247738744464,0.07229837562667682,0.13779529727155204
1.0040490541612122,0.20361099360789395,0.07117844596756046,0.1356935801867525,0.07021323813382237,0.13379682301316476
1.0040961361863425,0.20356945018764083,0.06659115386515937,0.1287855413388881,0.06741430110073218,0.1269320514474075
1.004143218211473,0.19261735903368254,0.05830253402775086,0.11776025800915435,0.06308657453862275,0.11598105488861324
1.0041903002366033,0.1692114287165738,0.04866248928213348,0.09836742477706704,0.05581190867343089,0.09673291830613641
1.0042373822617336,0.13469585530973552,0.03820190530064978,0.07519967777083232,0.04630184235472721,0.07379285113065184
1.004284464286864,0.094068350002802,0.02875356240168607,0.051842634052145065,0.0345640357855692,0.050761235742818295
1.0043315463119944,0.0558705414627791,0.021200205425434125,0.03082107495389939,0.021263115586242456,0.030142813644211938
1.0043786283371248,0.029785725493520713,0.01702606053836007,0.019809015244991575,0.008504070027472502,0.019531788279878302
1.0044257103622551,0.022326134922130727,0.015741114758308857,0.01684685304795892,-0.0016837084176229496,0.01689158178003884
1.0044727923873855,0.03362727707623793,0.017363276140650613,0.01768087969631584,-0.0066762240658218884,0.017882965392455298
1.004519874412516,0.057935866130881315,0.021396033041374756,0.0238553638180855,-0.006507848361422842,0.02404910417576764
1.0045669564376463,0.08691312585069338,0.02777831321323004,0.038233159934289905,-0.0004976404081922992,0.038229830814530165
1.0046140384627766,0.11302745450084833,0.03549006869514722,0.05542672474865837,0.010710431418864817,0.055066094872072646
1.004661120487907,0.13143773576861661,0.04217791006285348,0.07126698378066398,0.02343591709186499,0.07051731913323196
1.0047082025130374,0.140315951549541,0.0472246423804673,0.0817840112464661,0.03658270158946657,0.08065471840793498
1.0047552845381678,0.14016084842095028,0.04837904755687636,0.0846685751900148,0.04796979205818494,0.0832247687731725
1.0048023665632981,0.13271042804166153,0.04664623552293913,0.08028160564993014,0.055724279642898805,0.07862225193563528
1.0048494485884285,0.1199532079956697,0.04378459132771363,0.06958311394397716,0.06283477775184995,0.06771387512394483
1.0048965306135589,0.10352759540252561,0.0401329677455308,0.05738407400153901,0.0670843163166026,0.0553740510614707
1.0049436126386893,0.08458770500586026,0.0336846429466733,0.04469505929439128,0.06768309562999492,0.04264169365138077
1.0049906946638196,0.06411017510052013,0.02876498645444122,0.03435472552873721,0.06512353381957085,0.03235555248088109
1.00503777668895,0.043500849939608656,0.02411692829368881,0.022887706523455283,0.060070431894330076,0.02102089002984521
1.0050848587140804,0.02497562650004661,0.02004246916180615,0.013888116903115118,0.05192642198105327,0.012260298596376657
1.0051319407392107,0.011013597455985432,0.018111653374427442,0.011624969459267675,0.04204757265215816,0.010302267912673281
1.0051790227643411,0.003334338693202587,0.017103534597853114,0.009001101837417943,0.03122583548975556,0.0080157115996491
1.0052261047894715,0.0027948227754708652,0.013095407799797421,0.005716764128480125,0.021218048661783655,0.005045823591055725
1.0052731868146019,0.010164673003053454,0.00852993960874934,0.005314070387151807,0.011995584550624206,0.0049334306217636474
1.0053202688397322,0.026566180290056158,0.005511832027800454,0.008193549268036414,0.002060962955291203,0.008124489346228572
1.0053673508648626,0.05291846997433676,0.004724861853698777,0.011498759854167706,-0.00327003901534362,0.011596224281195543
1.005414432889993,0.08828034555015178,0.007720314482359495,0.017065936640710815,-0.004274716457274665,0.017192378654107
1.0054615149151234,0.12763762777320273,0.010859990514684423,0.025647230237824777,-0.002209045893083668,0.025704148904411705
1.0055085969402537,0.16155770115500132,0.013768602207321203,0.038076850744054896,0.00437859427928507,0.037920484045885605
1.0055556789653841,0.18078890709766565,0.01686207894724166,0.05135766337998839,0.01420783005176011,0.05089091033418097
1.0056027609905145,0.18307418566708303,0.018407702304807996,0.06056084021799014,0.024952612318099768,0.059766568969601815
1.0056498430156449,0.1741533504439713,0.01929619654762249,0.06655908741414072,0.03302847655488472,0.06552672826579863
1.0056969250407752,0.16242605985016223,0.019203945421849954,0.07063087442771013,0.039610307478018726,0.06940989064456025
1.0057440070659056,0.15418810481596457,0.018066004958994675,0.07107575192890922,0.042342424473388166,0.06977718285631533
1.005791089091036,0.1523552110015489,0.016264982411052734,0.0660360559428213,0.042066896682172415,0.06474202389988211
1.0058381711161664,0.15691036178882456,0.015670421841402063,0.06130313889977103,0.04122998036321744,0.06003029638963879
1.0058852531412967,0.16538784679386007,0.017040131776585782,0.06307528196508604,0.03993750017256305,0.061840814931157444
1.005932335166427,0.17322460684996496,0.016291092863463662,0.06323184659303546,0.03641201498353473,0.062099772559915306
1.0059794171915575,0.17475929729964576,0.014544386112412188,0.05880087400333982,0.03110009353082814,0.05782362762340622
1.0060264992166879,0.16548577922015562,0.013022616726502036,0.05204155960234529,0.025234430752196262,0.05123924195073352
1.0060735812418182,0.1445721481217929,0.011740670181867441,0.04234591607178599,0.018369764094754226,0.04175403156620456
1.0061206632669486,0.11538472372115638,0.010370513047951684,0.03266210113426135,0.010387828509805222,0.03232047348659847
1.006167745292079,0.08342022676517998,0.008193422169024434,0.0259645785337829,0.003218774924195291,0.02585037707101913
1.0062148273172093,0.053714935068683495,0.007774282785433753,0.01794830890199036,-0.001585359587475771,0.017989385064862865
1.0062619093423397,0.029620632829972474,0.007718837233488405,0.006428025048282717,-0.004232373944524492,0.006558374881561578
1.00630899136747,0.012907514843990737,0.008818892817649476,-0.004503164505502606,-0.0035886826581848384,-0.004387761026005831
1.0063560733926005,0.004292560353454192,0.010462330734163762,-0.010519166817943732,-0.0006596877064535484,-0.010493131136297629
1.0064031554177308,0.0038095921685766332,0.014048918982316493,-0.007972360122875525,0.0028467937598112896,-0.008058211292699775
1.0064502374428612,0.010924293923755681,0.021372156701107196,0.0013341291502741227,0.011093358229330066,0.0009836191011307796
1.0064973194679916,0.02453035587728399,0.026928165590839083,0.011333716656649779,0.02041511640261071,0.010686486978910874
1.006544401493122,0.042966387475684646,0.03100309435656197,0.020787738978896356,0.029115687201812925,0.019868019516335614
1.0065914835182523,0.06411092062196938,0.03200833625296989,0.03329944681240632,0.03409367395528418,0.03222795718358488
1.0066385655433827,0.08556714248621351,0.033847120141262343,0.049462130528264495,0.036160445703213785,0.04833262390766986
1.006685647568513,0.10493697207975199,0.03533573629194012,0.06485229624100503,0.03580636248193907,0.06373845118487002
1.0067327295936435,0.12014720761669652,0.035618336818236875,0.07640706666955516,0.03399731144476156,0.0753494733439677
1.0067798116187738,0.12974860817624662,0.03389380991168046,0.08294186479002422,0.03135240652735062,0.08196203923858805
1.0068268936439042,0.1331160769266914,0.03407814480026921,0.08436945777741765,0.027462157918022808,0.08350196682203467
1.0068739756690346,0.13051634907150206,0.031038751085827408,0.08386978816652868,0.023444321274857412,0.08311926908994072
1.006921057694165,0.12301693370584733,0.02553298496289819,0.08185258015702256,0.019254602357731902,0.08122579668529495
1.0069681397192953,0.11219272060745543,0.01893926277176122,0.07585112215539112,0.013928782104497512,0.07538528723675554
1.0070152217444257,0.09964098937742749,0.013096941910810891,0.06985230351433948,0.008717347797471645,0.06954738303933661
1.007062303769556,0.08648287672211809,0.008320913515260674,0.06302251331950957,0.004102161418815186,0.06286318332494359
1.0071093857946865,0.07315337862299943,0.0059883982593221564,0.053521194673379444,0.00013847070244878617,0.0534902916952312
1.0071564678198168,0.05967551136841471,0.0044622530620795214,0.042771215350936226,-0.003263108328875255,0.04285284258523337
1.0072035498449472,0.046352747241279996,0.0022767332683733604,0.029687677967592516,-0.005524682815938162,0.0298474027062908
1.0072506318700776,0.03458526276589038,0.0017769156193714146,0.01916866027493343,-0.005681260337977293,0.019338537026407407
1.007297713895208,0.02727830692374265,0.0024039084625499503,0.01473006896934623,-0.005031593024866508,0.014881584275539405
1.0073447959203383,0.0280866607277734,0.004682048390027657,0.01711698325886342,-0.0031007421231972624,0.017206312098950315
1.0073918779454687,0.03925806445151868,0.010413227198736056,0.028584290137595406,0.001525992052822308,0.028522037986143025
1.007438959970599,0.059562255279517966,0.017181864119088834,0.043832242766228824,0.007478607086317424,0.04357647557229046
1.0074860419957294,0.08449757331606145,0.022842946688544294,0.058037587268334905,0.01341141305114374,0.05759306329833685
1.0075331240208598,0.10858230355013457,0.026814476861697464,0.06858033205585247,0.019521999172018953,0.06794778980996945
1.0075802060459902,0.12742598805780986,0.02992535607036603,0.07621925524513734,0.023454288165070992,0.07546876563817856
1.0076272880711206,0.13840784538629322,0.031141658155735674,0.07904744927672683,0.02572027701535222,0.07823032172786237
1.007674370096251,0.14057521646913557,0.029799263952856824,0.0769603579802706,0.027217551704544637,0.07609934691886189
1.0077214521213813,0.1345761316442056,0.02801436282032012,0.07084930100861353,0.026774288215912344,0.07000095047450336
