freq,gls,usurper,pdc_unbiased,shape_periodogram,shift_periodogram
1.0,0.02176245538732735,0.019667098486071396,-0.007335655112181927,-0.007060958547979457,-0.007218997980598189
1.0000470820251304,0.05134779247241603,0.030575823976641815,0.016081221596065367,-0.0011602638264503258,0.016098098672491075
1.0000941640502607,0.09689124580742478,0.040158484560267084,0.05094334186944231,0.010860112942443111,0.050761981188625536
1.0001412460753911,0.14848755125694818,0.0508624122786778,0.08456655871201842,0.02085952523796867,0.0842348321414527
1.0001883281005215,0.19664060203551523,0.060076088059008846,0.10917973127593883,0.03094562298782267,0.1087179026882192
1.0002354101256519,0.23592916525893703,0.06461242142005673,0.12678225514793529,0.03809362822135325,0.12624551447364077
1.0002824921507822,0.26363730657080775,0.06333026057060318,0.13936052532630389,0.04165122189415919,0.13879654213169432
1.0003295741759126,0.2780607972143743,0.06200507664816524,0.14663287491158739,0.04341420750127793,0.1460587171698351
1.000376656201043,0.27778293516045677,0.0614445614333058,0.14742341655727248,0.04376492699959624,0.1468467284542291
1.0004237382261734,0.2619162710265795,0.05790045828601947,0.139633635428265,0.04367136489105102,0.1390494726350718
1.0004708202513037,0.23107843684954268,0.05157376388857535,0.12167319492364326,0.04229422499951266,0.1210851031219691
1.0005179022764341,0.1884924826566669,0.043859038704827234,0.09811663264576473,0.04039139111770802,0.09752910963469438
1.0005649843015645,0.1401213853463462,0.037711564347881615,0.07552593926328457,0.03747934325063177,0.07495843554445188
1.0006120663266949,0.09311329616242185,0.0331797180570889,0.056936636782797936,0.032609264721820026,0.05642642007123581
1.0006591483518252,0.05338098213176131,0.032363022744899196,0.04656239048066332,0.025317528342760263,0.04615681788599094
1.0007062303769556,0.024158292773911582,0.03161507378731947,0.0379052596807291,0.016958169513341274,0.03762790635849206
1.000753312402086,0.006389706849983347,0.029266965394903182,0.024925530867037873,0.006605461377407859,0.024814434067273416
1.0008003944272164,4.4957735270936574e-05,0.02942071145023329,0.013623927240606612,-0.003436845163883403,0.013678551453307335
1.0008474764523467,0.004476680458159687,0.028934393492709345,0.005279248516488982,-0.006611777736125947,0.005387139377709511
1.000894558477477,0.016631009383087918,0.030342653277090195,0.00604487589630294,-0.005503715335199532,0.006134456967013182
1.0009416405026075,0.030279800796216314,0.03688989505875217,0.01614856324889533,-0.0020332331573179826,0.01617977218457544
1.0009887225277379,0.04019506929021177,0.044839778986951656,0.031662352407458065,0.006133507515382499,0.031558197085506605
1.0010358045528682,0.045271217739530065,0.05260029226451482,0.049643587368788454,0.016749448216863715,0.049370007818444514
1.0010828865779986,0.04665854735345898,0.05326571412683244,0.06394396252727896,0.02723224688649477,0.06351473118489406
1.001129968603129,0.04557434040645729,0.05214597355780911,0.06951556918541625,0.03588083912527059,0.06896593341312163
1.0011770506282593,0.04281463251624272,0.04746476325311044,0.06676401531502141,0.041592962790167734,0.06613408542629143
1.0012241326533897,0.03911406922799136,0.03970916330333732,0.05756222886158259,0.044600994297384775,0.05688268559809006
1.00127121467852,0.035734840091298535,0.030731497476844113,0.04469056838221148,0.04573132495076478,0.043982323138800836
1.0013182967036505,0.034632288517627896,0.024543862233980963,0.03354469161607427,0.04668513562298822,0.032811154118906186
1.0013653787287808,0.03686446430802818,0.027086502844138292,0.03235087082016887,0.047596186591552056,0.0316025214152974
1.0014124607539112,0.040499198873267514,0.03487307108653802,0.04235422606047071,0.04870133934708721,0.04160081245474058
1.0014595427790416,0.04245011553894062,0.04238208369517328,0.05148956578485458,0.0474293957937267,0.05076444297179098
1.001506624804172,0.04142424671447975,0.045683871523454725,0.057489670337512934,0.04300526982023407,0.05683217118961025
1.0015537068293023,0.03772147907862947,0.04423269949986663,0.05838903434484734,0.03643773162092127,0.05782461163639394
1.0016007888544327,0.032149333674356434,0.04177746914073688,0.05286952532393206,0.02645736415500603,0.052448418639258296
1.001647870879563,0.025799799790141527,0.03909544823194061,0.040386054375886556,0.014348571900673186,0.04014988853858934
1.0016949529046935,0.020580986012262138,0.03309248263570955,0.02276083148008517,0.0023034631338117793,0.02272006235878266
1.0017420349298238,0.01993155776046648,0.028614260185457985,0.008396000375120035,-0.0073602571356649925,0.008515857601890789
1.0017891169549542,0.027489951613850306,0.028486140679381253,0.00883020356959996,-0.009288536375508524,0.00898179386511759
1.0018361989800846,0.042074300128446054,0.028526932164383637,0.022145335055818467,-0.004866602356483693,0.022222412246844146
1.001883281005215,0.05845891480384451,0.03134875710627356,0.04104344236602053,0.002270300966864994,0.04100087369362235
1.0019303630303453,0.07582159493280267,0.03764463266869905,0.05832937685591873,0.009833282588439102,0.05816382567767124
1.0019774450554757,0.09824195100672209,0.04416499824475869,0.07041397317164165,0.020286753130870132,0.07008848171909993
1.002024527080606,0.1303669711588208,0.04395195173488803,0.07896421651578898,0.030509159143896233,0.07849400613876416
1.0020716091057364,0.17464242099810953,0.039244319123016846,0.08832693698111686,0.03849489801989189,0.08775536799210516
1.0021186911308668,0.22917237164395338,0.042093826982543436,0.11355266104308831,0.04369314368417374,0.11294085566548623
1.0021657731559972,0.2864808872447173,0.04842295577223601,0.14880372324738836,0.04619213439435333,0.14820583113880215
1.0022128551811276,0.335488571803669,0.05468859770740848,0.17945522269565434,0.04709492380465623,0.1788881064777711
1.002259937206258,0.3667004160945303,0.05880586987257328,0.20044309409803335,0.04671638143237816,0.19990575872788333
1.0023070192313883,0.37630521047742305,0.060344043443642886,0.20989430295355302,0.044884484812834975,0.20938054989087138
1.0023541012565187,0.3658732131217113,0.05898544315917889,0.20800353236518512,0.04180983606825104,0.20750824630325454
1.002401183281649,0.3393357840705059,0.05584981480685405,0.19716291122807472,0.0368527286087648,0.19669596221260735
1.0024482653067794,0.30043566038503033,0.05025302557338933,0.1783931936762516,0.029624018247596078,0.17798245408937902
1.0024953473319098,0.25183659939415354,0.04068217441868738,0.15384153094853617,0.0199352744820298,0.1535355143511868
1.0025424293570402,0.1956066522565673,0.028630954719426827,0.12081929242955049,0.010020916375531557,0.12064838860765822
1.0025895113821706,0.13475970805500284,0.015461261206412977,0.07564140824241966,9.622669010667566e-06,0.07563112664131635
1.002636593407301,0.07582916802294695,0.004225857575875301,0.025728531183742454,-0.00699600269975133,0.02584038019994512
1.0026836754324313,0.03145358980808763,0.006971241615853251,-0.0040036080406334615,-0.007073730829271863,-0.0038871006791074774
1.0027307574575617,0.01779891286180085,0.019860752147998165,-0.006351274616742859,0.004876044636413856,-0.006430499052453196
1.002777839482692,0.04358985242398123,0.02402116515977078,0.006591376950054447,0.02290959946678924,0.00621623516978559
1.0028249215078224,0.1037077589167159,0.027649668680114453,0.04281328660270074,0.03811693324135117,0.042214413587091035
1.0028720035329528,0.18101238562213362,0.03653723466517866,0.0979436666785688,0.04990016140272795,0.09724348283835182
1.0029190855580832,0.25636899888384335,0.053197753915610095,0.15380629462607742,0.05080053515268808,0.1531749117701695
1.0029661675832136,0.31832235074100634,0.0701894106920318,0.19704252226634572,0.0442748402665816,0.1965175640001807
1.003013249608344,0.36361141655314383,0.0776804757709774,0.228525784613192,0.043004510031957766,0.228045386161538
1.0030603316334743,0.39341420767750745,0.0819526111441419,0.24979870354304085,0.04216799347193164,0.24934684529593887
1.0031074136586047,0.4102870696014962,0.08335052739043802,0.26258314989231946,0.03996207774680468,0.2621560301752655
1.003154495683735,0.41662904201390033,0.08293684538463186,0.266777273312063,0.03748714702077572,0.2663671032348951
1.0032015777088654,0.41405085665469693,0.08049716955271333,0.26326150551395927,0.03429914208055499,0.2628670758155976
1.0032486597339958,0.4030953535584088,0.07631855025233329,0.251751202986526,0.030005302973472894,0.2513791228895614
1.0032957417591262,0.38301151602067063,0.07046605348571784,0.2324239377319079,0.025089992396312686,0.2320846228310365
1.0033428237842565,0.3514583105172215,0.06262918720883122,0.2047530276495091,0.019243729594826266,0.20446675400148473
1.003389905809387,0.3042863356687068,0.05246709469745561,0.16911475512504195,0.01268139394474037,0.16890660245096947
1.0034369878345173,0.2364892670841809,0.04108101428174085,0.12615890065588273,0.005983328524585886,0.12604856260459096
1.0034840698596477,0.14805992805189566,0.029206230343499798,0.07745804013496241,0.00013817760085717173,0.07744542863683491
1.003531151884778,0.05937981673678241,0.02041713550259581,0.035632586371168055,-0.0030732976561546536,0.03567829532089989
1.0035782339099084,0.016571701488668728,0.017538395458660712,0.012038086514572617,-0.0026284923210054853,0.01207962767887006
1.0036253159350388,0.04141534161646615,0.023983974783281133,0.014399178728297872,0.0011488445167006573,0.014378405305277769
1.0036723979601692,0.0978579156313711,0.03279042686343516,0.03595348541122598,0.00766155405629537,0.035824230687241596
1.0037194799852995,0.14599333246590304,0.04261121432004059,0.06503465797160808,0.015161333382001433,0.06478615242369185
1.00376656201043,0.17300879075255565,0.048990952508526996,0.0922030709843016,0.022761299143084012,0.09184561412767453
1.0038136440355603,0.18229222765708752,0.05528924166826153,0.11374971918924169,0.02713806870503204,0.11333909899334547
1.0038607260606907,0.18262972424027749,0.060316397928930204,0.12736778710133306,0.03233476537529813,0.126898448460392
1.003907808085821,0.18292620727983336,0.06028728134873476,0.13485525602086357,0.038854520189274544,0.1343167181087505
1.0039548901109514,0.18798821740501145,0.06092950313405033,0.13913083302593265,0.04136075616600907,0.1385696182698396
1.0040019721360818,0.19658928748535154,0.06034774604135797,0.1397247738744464,0.04188094792609143,0.13915879351047913
1.0040490541612122,0.20361099360789395,0.05897012224441914,0.1356935801867525,0.04112424640324071,0.13513155478338013
1.0040961361863425,0.20356945018764083,0.055160094637256796,0.1287855413388881,0.0405399989612474,0.12822336871406917
1.004143218211473,0.19261735903368254,0.04870364334031078,0.11776025800915435,0.03814239113849149,0.11721579830427954
1.0041903002366033,0.1692114287165738,0.040118524422659285,0.09836742477706704,0.03410092505659941,0.09785919484483327
1.0042373822617336,0.13469585530973552,0.03057158240262886,0.07519967777083232,0.02903106838608714,0.07474859735432192
1.004284464286864,0.094068350002802,0.021666012991243957,0.051842634052145065,0.022597889984368836,0.05147947312238066
1.0043315463119944,0.0558705414627791,0.014061588298669056,0.03082107495389939,0.014697441268858066,0.030579409299195656
1.0043786283371248,0.029785725493520713,0.010286219313768243,0.019809015244991575,0.005858200908062961,0.01971062036818411
1.0044257103622551,0.022326134922130727,0.00940108928892115,0.01684685304795892,-0.0024361964071899964,0.01688459269555636
1.0044727923873855,0.03362727707623793,0.01101842003861768,0.01768087969631584,-0.007459567100119059,0.017801336766400225
1.004519874412516,0.057935866130881315,0.015204572382620948,0.0238553638180855,-0.00836690451583769,0.023990162720486662
1.0045669564376463,0.08691312585069338,0.02110778767405816,0.038233159934289905,-0.004855583958507063,0.0383079684330109
1.0046140384627766,0.11302745450084833,0.028097536513443298,0.05542672474865837,0.0035923798138568584,0.05536096789544584
1.004661120487907,0.13143773576861661,0.03361555540835379,0.07126698378066398,0.013145115517642084,0.07104949180242394
1.0047082025130374,0.140315951549541,0.03699770402544181,0.0817840112464661,0.02193117674219764,0.08143626461638019
1.0047552845381678,0.14016084842095028,0.03754701661482043,0.0846685751900148,0.028940775366110467,0.08422248354885432
1.0048023665632981,0.13271042804166153,0.03589358105507457,0.08028160564993014,0.032770209388413137,0.07978089293044714
1.0048494485884285,0.1199532079956697,0.03355391715378492,0.06958311394397716,0.03638171006274215,0.0690266001375205
1.0048965306135589,0.10352759540252561,0.027465583355999024,0.05738407400153901,0.038931404668909646,0.056783600340470974
1.0049436126386893,0.08458770500586026,0.01882807928756552,0.04469505929439128,0.039637425021819495,0.04407515840762295
1.0049906946638196,0.06411017510052013,0.01226612131158464,0.03435472552873721,0.03886607124295682,0.03373894814664778
1.00503777668895,0.043500849939608656,0.005840599129186348,0.022887706523455283,0.034983713194841004,0.02232469960393413
1.0050848587140804,0.02497562650004661,0.0016154799030392458,0.013888116903115118,0.029326863777167783,0.013410943503929768
1.0051319407392107,0.011013597455985432,-2.5785871532759753e-05,0.011624969459267675,0.021331353505459724,0.011276026291199488
1.0051790227643411,0.003334338693202587,-0.0015857009304074412,0.009001101837417943,0.012332980848231164,0.00879821925688966
1.0052261047894715,0.0027948227754708652,-0.004541434632880779,0.005716764128480125,0.00535563262103428,0.005628202320835602
1.0052731868146019,0.010164673003053454,-0.008013453950253194,0.005314070387151807,-0.0011644978541091463,0.005332465300345709
1.0053202688397322,0.026566180290056158,-0.010300710281680399,0.008193549268036414,-0.00626258574578052,0.008295357239477087
1.0053673508648626,0.05291846997433676,-0.010433187310779196,0.011498759854167706,-0.008197846869038072,0.01163208910294024
1.005414432889993,0.08828034555015178,-0.005898791656628869,0.017065936640710815,-0.008286462278408084,0.017200137573082454
1.0054615149151234,0.12763762777320273,-0.001880873305393983,0.025647230237824777,-0.006642130506740783,0.02575322597799142
1.0055085969402537,0.16155770115500132,0.0023116547596971296,0.038076850744054896,-0.0010019269456648737,0.03808815535569193
1.0055556789653841,0.18078890709766565,0.005868777881187919,0.05135766337998839,0.008013726102744152,0.05122143425847256
1.0056027609905145,0.18307418566708303,0.008117832988755437,0.06056084021799014,0.018881972730791455,0.06025529192737194
1.0056498430156449,0.1741533504439713,0.009059851044190001,0.06655908741414072,0.02709940745440369,0.0661326222990023
1.0056969250407752,0.16242605985016223,0.009398284915442952,0.07063087442771013,0.033461367781965914,0.0701155086297101
1.0057440070659056,0.15418810481596457,0.00908612283738287,0.07107575192890922,0.03660577884149906,0.07051712414631331
1.005791089091036,0.1523552110015489,0.007828123585611415,0.0660360559428213,0.03658335115458086,0.06547445805742773
1.0058381711161664,0.15691036178882456,0.008354763074115194,0.06130313889977103,0.03562641109148233,0.06075203057936333
1.0058852531412967,0.16538784679386007,0.010964292491593136,0.06307528196508604,0.03356070187621655,0.06255450212098589
1.005932335166427,0.17322460684996496,0.00953450791636912,0.06323184659303546,0.02939869774520294,0.06277087595631826
1.0059794171915575,0.17475929729964576,0.006572050532809312,0.05880087400333982,0.0232440077799424,0.05842928466936052
1.0060264992166879,0.16548577922015562,0.004381720356100125,0.05204155960234529,0.016308767503848232,0.05177492023233114
1.0060735812418182,0.1445721481217929,0.0017883689738331064,0.04234591607178599,0.008657574187508895,0.0422001280933038
1.0061206632669486,0.11538472372115638,-0.000561422424487694,0.03266210113426135,0.0010524125094854748,0.0326404859427692
1.006167745292079,0.08342022676517998,-0.0037636752955664734,0.0259645785337829,-0.005220562205521292,0.026047014089753687
1.0062148273172093,0.053714935068683495,-0.005217128556183242,0.01794830890199036,-0.009572329611850207,0.01810371224987756
1.0062619093423397,0.029620632829972474,-0.006319233758226933,0.006428025048282717,-0.011951869177012684,0.0066237308661358215
1.00630899136747,0.012907514843990737,-0.0056826462500249204,-0.004503164505502606,-0.010928004046699897,-0.004323511022739495
1.0063560733926005,0.004292560353454192,-0.004897306724182962,-0.010519166817943732,-0.007746151330547795,-0.010390981711170208
1.0064031554177308,0.0038095921685766332,-0.0022566554355914633,-0.007972360122875525,-0.0026371532754481493,-0.00792804720356136
1.0064502374428612,0.010924293923755681,0.002987673028519534,0.0013341291502741227,0.006056638142503971,0.0012345929179422592
1.0064973194679916,0.02453035587728399,0.006957839853567346,0.011333716656649779,0.015848776513114025,0.011073578185950797
1.006544401493122,0.042966387475684646,0.01027135359841464,0.020787738978896356,0.025728549972251276,0.0203697865589954
1.0065914835182523,0.06411092062196938,0.011894171159806326,0.03329944681240632,0.03248106046569938,0.032780157529393034
1.0066385655433827,0.08556714248621351,0.01416695678789499,0.049462130528264495,0.03453416898431103,0.048920002916564925
1.006685647568513,0.10493697207975199,0.0176487929235341,0.06485229624100503,0.03234607811812408,0.06434970580595809
1.0067327295936435,0.12014720761669652,0.020036726460151737,0.07640706666955516,0.02739055725452277,0.07597965466820107
1.0067798116187738,0.12974860817624662,0.020821857148693463,0.08294186479002422,0.02119316378176861,0.08260502332364686
1.0068268936439042,0.1331160769266914,0.023110634124727133,0.08436945777741765,0.014128272842059713,0.08413716012200217
1.0068739756690346,0.13051634907150206,0.022472385629755374,0.08386978816652868,0.00792141811498796,0.08373257423030538
1.006921057694165,0.12301693370584733,0.018723549817486244,0.08185258015702256,0.0033470409142391045,0.08178772055298514
1.0069681397192953,0.11219272060745543,0.012943806664221654,0.07585112215539112,-0.001564598050206398,0.07586651290815052
1.0070152217444257,0.09964098937742749,0.007659625434786399,0.06985230351433948,-0.005726162433509997,0.06993735580773812
1.007062303769556,0.08648287672211809,0.0037150190416916197,0.06302251331950957,-0.010063725317180843,0.0631813934329569
1.0071093857946865,0.07315337862299943,0.0021995036018224176,0.053521194673379444,-0.013082643804510744,0.053732334788691175
1.0071564678198168,0.05967551136841471,0.0014793002800035774,0.042771215350936226,-0.014879145129743164,0.04301368972171144
1.0072035498449472,0.046352747241279996,-0.00014078349728711956,0.029687677967592516,-0.015967297492065335,0.02994914734959127
1.0072506318700776,0.03458526276589038,-0.0012356256513209212,0.01916866027493343,-0.015969152245827133,0.01943043864774104
1.007297713895208,0.02727830692374265,-0.0022710510331828884,0.01473006896934623,-0.015277388844986752,0.014980428240307368
1.0073447959203383,0.0280866607277734,-0.0009886222737009315,0.01711698325886342,-0.013632684638324375,0.017339880905399365
1.0073918779454687,0.03925806445151868,0.00429685739399831,0.028584290137595406,-0.010420294260117457,0.02875277412136865
1.007438959970599,0.059562255279517966,0.011283838819176968,0.043832242766228824,-0.006064765572871827,0.04392638506827983
1.0074860419957294,0.08449757331606145,0.017557448392200647,0.058037587268334905,-0.0014853582508669047,0.05805411326528061
1.0075331240208598,0.10858230355013457,0.021584716884595803,0.06858033205585247,0.003336809653045734,0.06851715623515654
1.0075802060459902,0.12742598805780986,0.02479594787124047,0.07621925524513734,0.006325224372393381,0.07610768245978339
1.0076272880711206,0.13840784538629322,0.025722224850296294,0.07904744927672683,0.008114146965714416,0.07890755904312145
1.007674370096251,0.14057521646913557,0.024961063047754,0.0769603579802706,0.009074618143130896,0.0768056206927829
1.0077214521213813,0.1345761316442056,0.023875006710077508,0.07084930100861353,0.008278975993086468,0.07070739671711655
