wave,flux
5000.025812696027,11046.845742609137
5000.051815424163,10898.261952168728
5000.0778182875265,10636.562718742618
5000.103821286119,10264.625592225926
5000.12982441994,9962.043999521258
5000.155827688991,9529.452527647183
5000.181831093272,9234.070055432923
5000.207834632784,8795.752446365193
5000.2338383075285,8191.898213668891
5000.259842117506,7708.422043542576
5000.285846062716,7372.325674488808
5000.311850143161,7046.0992759592
5000.33785435884,6781.42217738649
5000.363858709754,6660.39092898822
5000.389863195905,6617.402706359279
5000.415867817292,6717.971500318464
5000.441872573917,6937.767418584627
5000.4678774657805,7212.651951468777
5000.493882492882,7598.494666706218
5000.519887655224,7977.18453198055
5000.545892952806,8423.187231165015
5000.571898385629,8805.669063301008
5000.597903953694,9006.6820052741
5000.623909657001,9146.394744715779
5000.649915495552,9186.119350041721
5000.675921469346,9007.354969039878
5000.701927578384,8831.582447068453
5000.727933822669,8661.390193745867
5000.7539402021985,8393.105839132315
5000.779946716975,8259.792391760084
5000.805953366999,8162.3382761107205
5000.831960152272,7997.637996808376
5000.857967072792,8039.112306204463
5000.883974128563,8233.476478425822
5000.9099813195835,8394.200904535242
5000.935988645855,8677.069978303442
5000.961996107378,8869.82932240848
5000.988003704153,8996.493016099395
5001.014011436181,9137.472253874803
5001.040019303464,9222.02499981857
5001.066027306,9446.956926337192
5001.092035443791,9512.777940594187
5001.118043716839,9791.905812796886
5001.1440521251425,10036.253283864238
5001.170060668704,10135.324290149427
5001.196069347523,10385.265548172003
5001.222078161601,10598.053296935896
5001.248087110937,10610.773728864662
5001.274096195534,10524.395088358637
5001.300105415392,10309.317544394964
5001.326114770512,10206.405782977476
5001.352124260892,10224.269753735925
5001.3781338865365,10106.846290485404
5001.4041436474445,10015.900197546653
5001.430153543616,9804.978176458413
5001.456163575053,9764.568005704983
5001.482173741756,9532.462470651226
5001.508184043724,9353.729030658418
5001.534194480961,9095.853102304767
5001.560205053464,8853.128324832662
5001.586215761236,8666.540656257108
5001.612226604278,8512.02187053565
5001.638237582589,8268.714821474145
5001.664248696171,7997.949392624615
5001.690259945024,7748.521876637208
5001.716271329149,7412.720299933841
5001.742282848547,7020.292517773035
5001.768294503218,6438.453313519176
5001.794306293164,6171.212354973784
5001.820318218383,5748.712384984255
5001.84633027888,5202.938543533598
5001.872342474651,5141.207832513994
5001.8983548056995,5013.099920928055
5001.924367272026,5031.069221338428
5001.9503798736305,5289.55858054026
5001.976392610514,5780.25865515178
5002.002405482678,6345.425300460777
5002.028418490122,7095.169825486192
5002.054431632847,8059.961237425847
5002.080444910854,8856.851284083881
5002.106458324142,9383.577528523867
5002.1324718727155,9880.210600627004
5002.158485556572,10363.47058225068
5002.184499375713,10825.262267421922
5002.210513330139,11047.848591721639
5002.236527419852,11068.656325946195
5002.262541644852,11281.016817509299
5002.288556005138,11115.008018031365
5002.314570500714,11280.623665159286
5002.340585131577,11195.35811506513
5002.36659989773,11084.463864869565
5002.392614799174,11022.515872383146
5002.418629835909,10906.91743693142
5002.444645007936,10764.658039391596
5002.4706603152545,10544.930036185635
5002.496675757866,10405.466810714155
5002.522691335772,10251.409925067976
5002.548707048972,9869.978275740961
5002.574722897468,9563.217578055253
5002.600738881259,9249.959501996698
5002.626755000347,8768.854636457694
5002.652771254732,8465.907118899173
5002.678787644415,8068.396967326593
5002.704804169397,7906.291702510761
5002.730820829678,7402.2158821075145
5002.75683762526,7219.492985370292
5002.782854556142,6984.168137984818
5002.8088716223265,6867.0774447396
5002.834888823812,6871.543112508339
5002.860906160601,6975.197184662824
5002.886923632695,7243.429905904065
5002.912941240092,7736.050053961281
5002.938958982793,8374.765767048902
5002.9649768608015,8985.304019046076
5002.990994874116,9631.150535675994
5003.017013022737,10260.140963199661
5003.043031306666,10571.273046530972
5003.069049725905,10905.889742472307
5003.095068280452,11113.900837635352
5003.121086970309,11422.915532120476
5003.147105795477,11266.392720434023
5003.173124755956,11344.176562813334
5003.199143851748,11475.944909153384
5003.225163082852,11547.549898316423
5003.251182449269,11408.380688234434
5003.277201951001,11349.694189371377
5003.3032215880485,11396.646715645296
5003.32924136041,11381.24762068867
5003.35526126809,11291.655143853659
5003.381281311085,11209.589261348476
5003.407301489398,11177.84285246796
5003.433321803031,11185.459826351112
5003.459342251982,11184.616260420667
5003.4853628362525,11144.039022032783
5003.511383555844,11055.292791857675
5003.537404410757,10853.993108615958
5003.563425400991,10621.549640960411
5003.589446526548,10506.618025712538
5003.615467787429,10368.368296896468
5003.641489183634,10109.376059819619
5003.667510715163,9903.360637190577
5003.693532382018,9772.762984719597
5003.719554184199,9443.915427168238
5003.745576121707,9202.269062902074
5003.771598194542,9072.772946344578
5003.797620402706,8960.884327523163
5003.823642746199,8831.608880159012
5003.849665225021,8786.094941778374
5003.875687839174,8843.980590633395
5003.901710588658,8930.572038404816
5003.927733473473,9075.755623674615
5003.953756493622,9065.736353576029
5003.979779649103,8988.114072970773
5004.005802939919,8968.944224474582
5004.031826366068,8931.561869550103
5004.057849927553,8741.334779075092
5004.083873624375,8662.589849388185
5004.109897456533,8649.404854400032
5004.135921424028,8680.90610045881
5004.161945526862,8919.318969825874
5004.187969765035,9140.841708246551
5004.213994138547,9431.04440205165
5004.240018647399,9784.369685981055
5004.266043291592,9926.190594785916
5004.292068071127,9994.335658396012
5004.318092986004,10257.024056084772
5004.344118036223,10386.784032958698
5004.370143221788,10304.871166986086
5004.396168542696,10437.924803635877
5004.422193998949,10590.776479534556
5004.448219590549,10690.286147589955
5004.474245317495,10796.426401730132
5004.500271179789,10904.098331910003
5004.52629717743,11024.198810041698
5004.5523233104195,11269.075364246728
5004.578349578759,11180.997108442732
5004.604375982449,11314.289225698734
5004.630402521489,11369.78598702254
5004.656429195881,11407.309173539043
5004.682456005625,11384.534265265831
5004.708482950721,11358.358825221387
5004.734510031172,11300.553380982165
5004.760537246977,11229.930542521031
5004.7865645981365,11093.705549950055
5004.812592084652,10918.29741905026
5004.838619706525,10862.869312628123
5004.8646474637535,10681.365688764812
5004.890675356341,10271.064561671275
5004.916703384286,10043.356610788203
5004.942731547591,9856.598153539191
5004.968759846256,9550.585277360156
5004.994788280281,9182.849713185245
5005.020816849668,8865.868729028347
5005.046845554417,8674.90905293772
5005.072874394528,8412.799238644415
5005.098903370003,8020.152480233357
5005.124932480842,7913.827790680674
5005.150961727047,7624.865735545751
5005.176991108617,7373.211316213059
5005.203020625552,7272.4689677057295
5005.229050277856,7252.542938658494
5005.255080065526,7361.861676538993
5005.281109988566,7676.04131265536
5005.3071400469735,8162.709026303716
5005.333170240751,8576.01631501147
5005.3592005699,8900.738026254361
5005.38523103442,9215.9212620995
5005.411261634312,9234.138806716846
5005.4372923695755,9341.926731186262
5005.463323240213,9260.121084650687
5005.489354246225,8905.028429264798
5005.515385387611,8502.57617204416
5005.541416664373,8091.93371590926
5005.567448076511,7573.989134555261
5005.593479624025,7007.215741169308
5005.619511306918,6621.300790308282
5005.645543125189,6147.783815082697
5005.671575078838,5777.788845323284
5005.697607167867,5409.906012559198
5005.723639392277,5057.405627560082
5005.749671752068,4784.413542988029
5005.77570424724,4649.660469677166
5005.8017368777955,4735.643057728269
5005.8277696437335,4901.4383522173
5005.853802545055,5096.2979002559105
5005.879835581762,5351.905843206452
5005.905868753854,5544.263444761697
5005.931902061331,5729.968947642466
5005.957935504196,5742.153361600887
5005.983969082448,5560.382658207182
5006.010002796088,5353.35454139613
5006.036036645117,5158.370920665742
5006.062070629536,4803.3739247021185
5006.088104749344,4515.526277670645
5006.114139004544,4253.330422828609
5006.140173395135,4145.084900293519
5006.166207921118,4117.0865744640705
5006.192242582495,4328.829531217394
5006.218277379266,4744.6723047896
5006.244312311431,5350.863829780794
5006.270347378991,6107.527864043087
5006.296382581946,6911.267081155826
5006.322417920299,7668.379691970231
5006.348453394048,8454.610884270256
5006.374489003196,9282.057906648428
5006.400524747743,9822.049812321668
5006.426560627688,10169.78827110608
5006.452596643034,10447.88533609607
5006.47863279378,10761.07993977634
5006.504669079928,10984.070776687553
5006.530705501478,11091.508127606727
5006.556742058431,11106.332996313764
5006.582778750788,10990.026280389651
5006.608815578549,11109.804557298625
5006.634852541715,11155.171825106925
5006.660889640287,11041.87387399077
5006.686926874265,10967.022926195385
5006.71296424365,11044.083858405218
5006.739001748444,11080.90667491089
5006.765039388645,11035.668291564956
5006.791077164256,10932.51733111048
5006.817115075277,10877.384142383931
5006.843153121708,10824.191005375922
5006.869191303552,10645.78359829683
5006.895229620806,10445.689560937823
5006.921268073474,10220.435870233228
5006.947306661555,9930.619945478002
5006.97334538505,9585.101186545702
5006.999384243961,9178.136173223458
5007.025423238286,8720.644158849413
5007.051462368028,8051.660450406968
5007.077501633187,7580.701565490946
5007.103541033764,7163.036261304922
5007.129580569759,6533.005630085778
5007.155620241173,5940.054739815703
5007.181660048007,5502.8007126778475
5007.207699990262,5136.6459958965315
5007.233740067937,4732.95125622049
5007.259780281035,4547.375247796006
5007.285820629555,4551.805775407967
5007.311861113499,4691.632822452997
5007.337901732866,5003.49147520791
5007.363942487658,5590.473509955439
5007.389983377876,6248.107162072563
5007.41602440352,6877.052935919456
5007.442065564591,7721.408431564187
5007.468106861089,8518.01873397788
5007.494148293015,9116.36355982241
5007.520189860371,9692.793054534131
5007.546231563156,9979.580376802012
5007.572273401372,10380.20295507143
5007.598315375018,10619.144370735974
5007.624357484096,10539.439982375321
5007.650399728607,10571.47841002601
5007.676442108551,10515.066039730247
5007.702484623929,10519.934519377763
5007.728527274741,10403.089556137073
5007.754570060989,10418.433139551793
5007.780612982673,10355.431712396325
5007.806656039793,10369.24346532587
5007.832699232351,10586.565583488711
5007.858742560347,10782.13119833655
5007.884786023782,10947.034139497155
5007.910829622656,11197.143001835728
5007.936873356971,11470.512681842703
5007.962917226726,11629.237773382087
5007.988961231923,11688.184047803677
5008.015005372563,11717.495006574696
5008.041049648646,11787.937683171143
5008.067094060171,11902.741112286905
5008.0931386071425,11842.17553211396
5008.119183289558,11899.300766674334
5008.14522810742,11754.3429347343
5008.171273060728,11830.469334662803
5008.197318149483,11962.960346408154
5008.223363373687,11959.217226296412
5008.249408733339,12040.639125214984
5008.27545422844,11983.166644044706
5008.301499858992,11966.276883518005
5008.327545624995,11944.168492108536
5008.353591526448,11915.52169097864
5008.379637563355,12008.739621389865
5008.405683735714,11909.409750889865
5008.431730043527,11881.583609408885
5008.457776486794,11899.02230823926
5008.483823065515,11772.839455038844
5008.509869779693,11661.01709467231
5008.535916629327,11535.452457793832
5008.561963614418,11436.209824500407
5008.588010734968,11440.982263056827
5008.614057990975,11439.500413045558
5008.640105382442,11435.81341064928
5008.666152909369,11308.498066447866
5008.692200571756,11296.361646346646
5008.718248369605,11381.49364977869
5008.744296302916,11338.732784972284
5008.77034437169,11458.895600454363
5008.796392575927,11513.29856583416
5008.822440915628,11700.002089641994
5008.848489390794,11644.28139857376
5008.874538001426,11836.249154180769
5008.900586747524,11861.642141428472
5008.926635629089,11912.66913075088
5008.952684646122,11881.325669632408
5008.978733798623,11927.394707444033
5009.004783086593,11923.698923659476
5009.030832510033,11907.010577805604
5009.056882068944,11829.021701532218
5009.082931763326,11940.645881737135
5009.108981593179,12009.646932502288
5009.135031558506,11896.259623878686
5009.161081659306,11909.011867819492
5009.187131895579,11951.48161560391
5009.213182267327,11962.340856527577
5009.239232774552,12009.918685032495
5009.265283417251,12006.225023546918
5009.291334195428,11933.309599414126
5009.317385109083,11686.457675938944
5009.343436158216,11623.993219460957
5009.369487342828,11615.766771178518
5009.395538662919,11560.603554589057
5009.421590118491,11495.232175885432
5009.447641709544,11213.31296636266
5009.473693436078,11265.718985705382
5009.499745298095,11003.285621207315
5009.525797295596,10827.733233701725
5009.55184942858,10669.731374900945
5009.577901697049,10498.761342199834
5009.603954101003,10570.230195355329
5009.630006640443,10351.467851123158
5009.65605931537,10145.484379421843
5009.682112125784,10088.20629697425
5009.708165071686,10185.066054316188
5009.7342181530785,10193.818850862326
5009.760271369959,10258.300935552328
5009.78632472233,10395.046984756344
5009.812378210192,10306.687869798618
5009.838431833546,10286.9840591487
5009.864485592391,10388.964653021347
5009.890539486731,10282.393274421403
5009.916593516564,10019.517098090662
5009.942647681891,9735.433002185127
5009.968701982713,9485.94072978683
5009.994756419032,9088.845373025613
5010.020810990847,8683.967813092557
5010.046865698159,8403.448793604626
5010.072920540969,8157.34875783187
5010.098975519279,7689.380644413967
5010.125030633087,7506.39685902212
5010.151085882395,7432.155285014849
5010.177141267204,7476.304825248554
5010.2031967875155,7526.405894231654
5010.229252443328,7560.927476130079
5010.255308234644,7676.955711852417
5010.281364161464,7841.509512372337
5010.307420223788,8063.888502650957
5010.333476421617,8511.155067447577
5010.359532754951,9020.316587561032
5010.3855892237925,9620.748756307485
5010.4116458281405,10169.113502496686
5010.437702567997,10567.545904207413
5010.463759443362,10985.6083761923
5010.489816454236,11391.960110232962
5010.51587360062,11642.210872298496
5010.541930882514,11747.526822267359
5010.56798829992,11778.631759302794
5010.5940458528385,11724.02412907664
5010.62010354127,11694.153574880982
5010.646161365214,11635.266061476324
5010.672219324672,11561.473769714801
5010.698277419646,11336.344041338998
5010.724335650135,11237.733446747265
5010.7503940161405,10867.097333292131
5010.7764525176635,10608.121511940953
5010.802511154703,10320.013433552847
5010.828569927262,9913.117563200092
5010.85462883534,9614.881606795074
5010.880687878937,9433.09537805126
5010.906747058056,9275.905158359847
5010.932806372695,9137.2433698683
5010.958865822856,8979.467105361593
5010.98492540854,8842.724052451975
5011.0109851297475,8951.541840502678
5011.0370449864795,9172.2365380578
5011.063104978735,9511.924986164682
5011.089165106517,9924.665947624968
5011.115225369825,10454.022543055456
5011.14128576866,10914.563753410377
5011.167346303022,11200.97410868772
5011.193406972913,11424.74885061099
5011.219467778333,11594.40110991686
5011.2455287192815,11719.387718754695
5011.271589795761,11765.353094597456
5011.297651007772,11840.322528943596
5011.323712355315,11846.739445988504
5011.34977383839,11846.293574270741
5011.375835456999,11916.397167166591
5011.401897211142,11818.647978267938
5011.427959100819,11837.826852134967
5011.454021126031,11810.850403818125
5011.4800832867795,11609.220052134533
5011.506145583065,11564.241126826919
5011.532208014888,11567.435982024714
5011.558270582248,11274.623941403277
5011.584333285148,11167.73143015916
5011.610396123588,11024.210539531814
5011.636459097567,10750.961496887801
5011.662522207088,10455.794143271505
5011.68858545215,10155.825078121541
5011.714648832754,9918.282124144966
5011.740712348902,9572.646505990659
5011.766776000594,9038.836349936231
5011.79283978783,8680.555796457156
5011.818903710611,8220.144416300023
5011.844967768939,7818.730301470604
5011.871031962813,7408.509929077558
5011.897096292234,6952.457989973371
5011.923160757203,6527.042171715169
5011.949225357721,6000.170286614783
5011.975290093788,5545.050282998376
5012.001354965406,5050.410167026621
5012.027419972574,4531.873465781734
5012.053485115294,4162.415524623752
5012.079550393566,3816.545034453648
5012.105615807392,3683.2692275531913
5012.13168135677,3635.061860529791
5012.157747041703,3722.165772997728
5012.183812862192,4081.6223178145706
5012.209878818236,4614.60509831376
5012.235944909837,5033.309527005334
5012.262011136994,5594.527396181933
5012.28807749971,6130.741664751635
5012.3141439979845,6680.177146591274
5012.340210631818,7048.175805247163
5012.366277401212,7357.9922288175085
5012.392344306166,7499.564025002228
5012.418411346682,7532.006972535014
5012.44447852276,7588.2062086368505
5012.470545834401,7573.707873201035
5012.496613281605,7554.256332600616
5012.522680864374,7495.756911028409
5012.548748582707,7585.363627414725
5012.574816436606,7857.01451002909
5012.600884426071,8244.172702054646
5012.626952551104,8560.003983006814
5012.653020811705,8899.636499660548
5012.679089207873,9234.80681370097
5012.705157739611,9346.712095357218
5012.73122640692,9430.104982384091
5012.757295209798,9534.374486534565
5012.7833641482475,9687.596179491627
5012.80943322227,9957.810231179656
5012.835502431864,10189.347178560889
5012.861571777033,10557.745759921077
5012.887641257775,10917.022871330222
5012.9137108740915,11118.36551910768
5012.939780625984,11155.822079181788
5012.965850513452,11339.935969123917
5012.991920536498,11411.612034624472
5013.017990695121,11194.020238349969
5013.044060989323,11132.063223326484
5013.070131419104,10993.839066313521
5013.096201984464,10646.98002443737
5013.122272685405,10302.881624684396
5013.148343521927,10115.49841786832
5013.17441449403,9819.479565334683
5013.200485601717,9329.531302673675
5013.226556844987,9032.068357909575
5013.2526282238405,8709.042720282241
5013.278699738279,8241.117224834134
5013.304771388303,8020.846500837926
5013.330843173913,7822.614220465164
5013.35691509511,7421.030596324435
5013.382987151894,7298.094928326844
5013.409059344267,7327.168266539535
5013.435131672228,7370.083403369083
5013.46120413578,7472.621941290474
5013.487276734921,7580.742309804447
5013.513349469653,7479.403961832472
5013.539422339977,7420.605937301592
5013.565495345894,7309.025042264813
5013.5915684874035,6970.080772257311
5013.617641764507,6629.079479156939
5013.643715177206,6297.871170471201
5013.6697887254995,6020.875071467685
5013.695862409389,5753.436487084717
5013.721936228875,5567.532626656566
5013.748010183958,5609.458124211513
5013.77408427464,5755.286032304378
5013.800158500921,6086.057683143797
5013.826232862801,6440.962254736602
5013.852307360281,7079.063334144334
5013.8783819933615,7577.355867575574
5013.904456762045,7972.0812383036555
5013.930531666329,8272.759968593877
5013.956606706218,8579.752471225298
5013.982681881709,8461.826654434051
5014.008757192805,8424.313384426043
5014.034832639507,8096.428758436982
5014.060908221814,7835.600075197517
5014.086983939728,7423.369792747982
5014.113059793249,7143.43542543312
5014.139135782378,6623.681847137259
5014.165211907116,6145.262517700233
5014.1912881674625,5586.262334249768
5014.21736456342,5252.667080819589
5014.243441094988,4879.449262775146
5014.269517762167,4665.700731640999
5014.295594564959,4774.5157020983315
5014.321671503363,4876.213934700343
