wave,flux
4450.003811362098,8791.78798537554
4450.026953690486,8885.54799239459
4450.050096139227,8994.72429816007
4450.073238708321,9036.65598308642
4450.096381397769,8841.219344953595
4450.119524207569,8531.303054207123
4450.142667137726,8295.154937055591
4450.165810188237,8011.674735091831
4450.188953359103,7556.990996793611
4450.212096650326,7049.391042296809
4450.2352400619075,6552.673887867736
4450.258383593846,6015.47056322859
4450.281527246142,5418.742053133256
4450.304671018797,4798.126827010016
4450.327814911813,4324.388699360693
4450.350958925188,3811.4243636607603
4450.374103058924,3297.2889193123024
4450.3972473130225,2867.4786371406294
4450.420391687483,2632.9301510379046
4450.443536182305,2480.565890570592
4450.466680797492,2241.9299876469877
4450.489825533042,2171.091748243618
4450.512970388957,2331.590471148878
4450.536115365237,2304.2352028805094
4450.559260461882,2545.5303465686275
4450.582405678895,2728.1459598502324
4450.605551016274,3067.523488035365
4450.628696474022,3435.9309043215817
4450.651842052138,3810.759362125086
4450.674987750623,4233.453186689175
4450.698133569476,4655.754704216872
4450.721279508702,4807.093148461298
4450.744425568297,5147.048384924005
4450.767571748264,5293.526812839036
4450.790718048604,5179.90403391318
4450.813864469315,5234.710666835273
4450.837011010401,5484.238526597213
4450.86015767186,5778.945593507772
4450.883304453694,6013.0579463944105
4450.906451355903,6313.273661639087
4450.929598378489,6682.4469793578555
4450.95274552145,7071.888970142704
4450.975892784789,7509.898910572389
4450.999040168505,7952.751997072331
4451.022187672601,8507.348558881999
4451.045335297074,9017.525203163326
4451.068483041929,9533.444084521741
4451.091630907163,9937.98827067383
4451.114778892777,10342.193572510509
4451.137926998774,10412.190811614624
4451.161075225153,10618.51353552679
4451.184223571914,10708.480250589497
4451.207372039059,10607.8115991509
4451.230520626587,10414.79209742322
4451.253669334501,10283.670692107042
4451.2768181628,10065.37729666966
4451.299967111485,9753.069430824755
4451.323116180556,9524.027829029199
4451.346265370014,9108.999948166802
4451.369414679861,8719.548597965237
4451.392564110095,8377.082358741063
4451.415713660719,7960.196982803793
4451.438863331732,7358.661011134813
4451.462013123136,6855.2270214533655
4451.48516303493,6289.36545744663
4451.508313067117,5789.99059241627
4451.531463219695,5432.129255658837
4451.554613492666,5098.233992869865
4451.577763886031,4776.233312420104
4451.60091439979,4546.840757526203
4451.624065033943,4589.813496720423
4451.647215788492,4878.358549002507
4451.670366663436,5205.009886098824
4451.693517658777,5593.108108705936
4451.716668774516,6225.167406876418
4451.739820010652,6883.34277026181
4451.762971367186,7476.140540538534
4451.78612284412,8088.501821056761
4451.8092744414525,8466.129835340944
4451.832426159187,8579.885009936503
4451.855577997321,8624.543415113843
4451.878729955857,8651.861485352714
4451.901882034796,8317.784670565496
4451.925034234137,8052.901099667779
4451.948186553881,7927.747170233542
4451.97133899403,7690.048705467382
4451.994491554583,7373.882503217205
4452.017644235542,7178.249970732615
4452.040797036907,7159.986505790876
4452.063949958678,7270.2134873543955
4452.087103000857,7258.416949533071
4452.1102561634425,7902.3948305651265
4452.133409446437,8066.092347011505
4452.156562849841,8708.704629779753
4452.179716373655,9235.389686880799
4452.202870017878,9635.507051075792
4452.226023782513,9895.292361722852
4452.24917766756,10270.737579987626
4452.272331673018,10476.154649156473
4452.29548579889,10461.74431764833
4452.318640045174,10548.326695862525
4452.341794411874,10595.777018703253
4452.364948898987,10461.429029710254
4452.388103506516,10228.966158862808
4452.4112582344615,10238.984632303373
4452.434413082823,9986.390793878458
4452.457568051602,9734.002577653437
4452.480723140799,9596.074712324653
4452.503878350413,9192.356653362063
4452.527033680448,8870.446656312308
4452.550189130902,8524.34105994473
4452.5733447017765,8248.781552317132
4452.596500393071,7838.983759696124
4452.619656204789,7434.16630670043
4452.642812136928,7160.316057037962
4452.66596818949,6824.365755003608
4452.689124362475,6623.183064232485
4452.7122806558855,6482.287438079343
4452.735437069719,6433.220728294857
4452.7585936039795,6461.280560310744
4452.781750258665,6543.234765817337
4452.804907033777,6633.454286506385
4452.828063929317,6695.477322580409
4452.851220945285,6996.09389005629
4452.87437808168,7195.885894090698
4452.897535338506,7450.406310820658
4452.92069271576,7477.049508497754
4452.943850213445,7505.7529287076195
4452.967007831562,7454.10708479611
4452.99016557011,7354.430797190602
4453.01332342909,7216.858928786109
4453.036481408502,7086.129849904475
4453.059639508349,7006.894371226582
4453.08279772863,6830.535643279987
4453.105956069345,6864.404076361651
4453.129114530496,6965.599344900443
4453.152273112083,7126.781264538036
4453.175431814107,7171.76019934609
4453.198590636567,7150.974383629009
4453.221749579466,6957.930345121322
4453.244908642802,6858.886365077101
4453.268067826579,6677.702777463616
4453.291227130795,6562.749312137556
4453.314386555451,6461.408827719566
4453.337546100549,6337.290750338429
4453.360705766087,6233.274202932571
4453.3838655520685,6454.880106491788
4453.407025458493,6776.15044805599
4453.430185485361,7121.922592751197
4453.453345632673,7589.916205050269
4453.476505900429,8201.949007777768
4453.4996662886315,8641.064489344362
4453.52282679728,8702.959302596002
4453.545987426375,8827.86946177737
4453.569148175917,8875.700730420818
4453.592309045907,8923.426179048807
4453.615470036346,8802.633980993296
4453.638631147233,8646.975856365914
4453.661792378571,8467.015407690984
4453.684953730359,8204.160667705233
4453.708115202598,8058.295050979026
4453.731276795288,8087.008206358668
4453.754438508431,8127.774241031327
4453.777600342027,8097.565141172433
4453.800762296077,8260.415188688869
4453.82392437058,8578.281514440185
4453.847086565538,9010.252292673013
4453.870248880952,9463.311433905192
4453.8934113168225,9641.051180127095
4453.916573873149,9900.70889362396
4453.939736549933,10098.60832400449
4453.962899347174,10134.921378765106
4453.986062264875,10346.296727097882
4454.009225303034,10247.536094207087
4454.032388461654,10105.204989017118
4454.055551740734,10154.335454986047
4454.078715140275,10075.79459409781
4454.101878660277,9800.16588880995
4454.125042300742,9301.238240719425
4454.14820606167,9064.928044235583
4454.171369943061,8732.605277316186
4454.194533944917,8235.809533326923
4454.2176980672375,7834.216266043803
4454.240862310024,7318.853951627095
4454.264026673275,6649.440866738787
4454.287191156994,6091.853779681702
4454.31035576118,5586.071834086954
4454.333520485834,5165.676289618752
4454.356685330957,4616.3342471705055
4454.379850296548,4172.444515250836
4454.40301538261,3995.1371850758505
4454.426180589142,3610.115655957751
4454.449345916145,3665.2002417211984
4454.4725113636205,3678.5197913811753
4454.495676931568,3770.8389776731565
4454.5188426199875,3955.306359527572
4454.542008428882,4190.352503549362
4454.565174358249,4417.731410555356
4454.588340408092,4446.811461366234
4454.611506578411,4422.232352970133
4454.634672869205,4145.047821362732
4454.657839280476,3712.8190377729748
4454.681005812225,3408.8077835423546
4454.704172464451,3162.6327179546747
4454.727339237156,2774.8534017859342
4454.750506130341,2479.4291989251606
4454.773673144005,2357.5026137259206
4454.79684027815,2223.1853253646264
4454.820007532776,2180.7908884676526
4454.843174907884,2243.5543909278304
4454.866342403473,2493.59915338574
4454.889510019546,2627.0630465832755
4454.912677756102,3007.6472229470337
4454.935845613144,3324.7809944812893
4454.959013590669,3614.965944487598
4454.982181688681,3890.3687833966683
4455.005349907178,4136.088377681347
4455.028518246162,4378.1216328548435
4455.051686705633,4478.035047746836
4455.074855285593,4587.115079628771
4455.098023986041,4774.999719440676
4455.121192806979,5031.020640742288
4455.144361748406,5290.898358127971
4455.167530810323,5476.75468633738
4455.190699992732,5716.630144376948
4455.213869295633,5806.405740248099
4455.237038719026,5827.372516982625
4455.260208262912,5830.134536459506
4455.283377927292,5613.2462047668505
4455.306547712166,5506.112785316309
4455.329717617535,5513.410958318704
4455.352887643399,5597.598442868405
4455.37605778976,5784.623371723598
4455.399228056617,6077.169977918823
4455.422398443972,6415.764669645794
4455.445568951825,6860.728478965912
4455.468739580177,7468.233096871744
4455.491910329028,7873.954740320721
4455.515081198378,8256.061406621448
4455.538252188229,8451.108307682438
4455.561423298582,8547.54941418047
4455.584594529436,8450.935499413485
4455.607765880793,8170.578597055463
4455.630937352652,7917.961740367205
4455.654108945016,7460.652985836354
4455.677280657883,6920.499041087919
4455.700452491255,6485.1317990507405
4455.723624445134,5963.637926901377
4455.746796519518,5438.823786648582
4455.7699687144095,5040.80809527728
4455.793141029808,4673.385306506564
4455.816313465714,4453.389201966399
4455.83948602213,3991.8868576019854
4455.862658699055,3647.327928780482
4455.885831496489,3525.8287258986225
4455.909004414434,3576.935088464481
4455.932177452891,3721.657878606149
4455.955350611858,3817.5610908978733
4455.978523891339,4359.972527091158
4456.001697291333,4921.685026069271
4456.024870811841,5510.051024038295
4456.048044452862,6156.333352978514
4456.071218214399,6823.017828682458
4456.094392096451,7452.257657084584
4456.117566099019,7734.696173234409
4456.140740222105,7933.77991275868
4456.163914465707,7925.819819386225
4456.187088829828,7933.18750364999
4456.210263314468,7712.768341869023
4456.233437919626,7405.824548225383
4456.256612645306,7117.591000414869
4456.279787491505,6894.482155740517
4456.302962458226,6465.808098931517
4456.326137545469,6177.644718459855
4456.349312753233,5610.826815508924
4456.372488081522,5368.006354201048
4456.395663530333,5079.662784507308
4456.41883909967,4953.32443707451
4456.442014789531,5030.420490880519
4456.465190599917,5064.261150745569
4456.488366530831,5174.957435619596
4456.5115425822705,5327.539290995735
4456.5347187542375,5447.460781109619
4456.557895046733,5578.032165911209
4456.581071459757,5625.953333330965
4456.604247993311,5689.270807666327
4456.627424647395,5722.9188893904075
4456.650601422009,5752.141780298241
4456.673778317154,5686.469949416054
4456.696955332832,5891.690544321499
4456.720132469041,6292.947218927974
4456.7433097257845,6759.126343079401
4456.766487103061,7218.280240117832
4456.789664600872,7808.67092378501
4456.8128422192185,8271.531488912537
4456.8360199581,8560.318252066238
4456.859197817518,8864.926175827957
4456.882375797473,9064.574981351107
4456.905553897966,8948.00984438988
4456.928732118997,8853.75261121784
4456.951910460566,8597.76014413658
4456.975088922674,8427.25417335965
4456.998267505323,8294.383147511995
4457.021446208513,8144.803153405918
4457.044625032244,8075.77881912912
4457.067803976516,7941.490087947779
4457.090983041332,7766.527145060526
4457.1141622266905,7827.148311554364
4457.1373415325925,7896.2155271452475
4457.160520959039,8052.613360902503
4457.183700506031,8234.886463339039
4457.206880173568,8279.309680359273
4457.230059961651,8204.196667620912
4457.2532398702815,8046.921073733988
4457.27641989946,7757.6282813289445
4457.299600049186,7306.9589547401065
4457.322780319461,7002.639862959339
4457.345960710286,6583.844133347215
4457.36914122166,6054.209714807183
4457.392321853586,5702.569334869637
4457.415502606062,5256.512061909894
4457.43868347909,4699.255091042745
4457.461864472672,4371.321968568113
4457.485045586805,4281.195992655578
4457.508226821494,4246.434665333272
4457.5314081767365,4357.72961158034
4457.554589652534,4651.963199419899
4457.577771248887,5002.901602178649
4457.600952965797,5551.810867130761
4457.624134803263,6163.876127980609
4457.647316761288,6755.747583753172
4457.67049883987,7352.241539870129
4457.693681039011,7868.51604946161
4457.716863358712,8235.132545521561
4457.7400457989725,8550.237413387362
4457.763228359793,8831.193936382711
4457.7864110411765,8894.571940698976
4457.809593843121,8875.487888997135
4457.832776765628,8696.211770371472
4457.855959808699,8464.378295398215
4457.879142972333,8291.724359863245
4457.902326256532,8110.538885049384
4457.925509661296,7847.002239390815
4457.948693186626,7550.285472852482
4457.971876832522,7267.396691898563
4457.995060598985,6903.165655785404
4458.018244486016,6440.922321698509
4458.041428493615,5985.127236139154
4458.0646126217825,5712.169566879513
4458.08779687052,5390.556432848565
4458.110981239827,5006.439301902753
4458.134165729705,4709.502232175007
4458.157350340155,4563.031873018776
4458.180535071177,4445.4002768711825
4458.203719922771,4539.424784918498
4458.226904894938,4795.625198763666
4458.2500899876795,5035.078304525564
4458.273275200995,5124.249981401447
4458.296460534886,5287.777302956781
4458.3196459893525,5531.1843548514
4458.342831564396,5761.345531665938
4458.366017260016,6048.910711399037
4458.389203076214,6369.33951011054
4458.4123890129895,6606.711241679052
4458.435575070344,6784.3762058258
4458.458761248279,6924.629034112866
4458.481947546794,6943.3003905360765
4458.505133965889,6967.043350334646
4458.528320505566,6953.9502789736425
4458.551507165825,6815.496072260416
4458.574693946666,6785.8384083486435
4458.597880848091,7048.254482815587
4458.6210678701,7372.243860378027
4458.644255012693,7728.799338146743
4458.6674422758715,8252.391098291711
4458.690629659636,8627.813078929157
4458.713817163986,8889.536853605221
4458.737004788924,9112.500122461042
4458.76019253445,9086.334648500266
4458.783380400563,8985.877976795009
4458.8065683872655,8667.631616460612
4458.829756494558,8327.309812663887
4458.85294472244,7936.215046663454
4458.876133070914,7452.40768926381
4458.899321539979,6963.494873373882
4458.922510129635,6348.797719774641
4458.945698839884,5807.127818521513
4458.968887670727,5234.931956678481
4458.992076622164,4597.736054930701
4459.015265694195,4011.172278613179
4459.0384548868215,3594.556176725274
4459.061644200044,3098.613354850938
4459.084833633862,2675.905533059561
4459.108023188278,2430.712339042072
4459.131212863292,2228.162671830753
4459.154402658904,2220.301753865424
4459.177592575114,2355.6331437709428
4459.200782611925,2549.619497289364
4459.223972769336,2868.5689428745955
4459.247163047347,3162.609096329451
4459.27035344596,3497.1384788086257
4459.293543965176,3838.484295981021
4459.316734604993,4293.782500943047
4459.339925365414,4795.063246360325
4459.363116246439,5219.065745519613
4459.386307248069,5575.810024652424
4459.409498370304,5895.136758447838
4459.432689613145,6305.252334046058
4459.455880976592,6739.192900772784
4459.479072460647,7328.504890931393
4459.502264065309,7835.847503125016
4459.52545579058,8226.987076453683
4459.5486476364595,8585.37276117061
4459.571839602949,8879.632900761037
4459.595031690048,8984.34833736983
4459.618223897759,8835.563057218606
4459.641416226081,8585.275495401698
4459.664608675014,8446.863091468387
4459.687801244561,8318.35406704468
4459.710993934721,8077.250053993983
4459.734186745496,7878.518187537737
4459.757379676885,7734.1494027699255
4459.780572728889,7509.441201813325
4459.803765901509,7437.350861000648
4459.8269591947455,7593.142984869701
4459.850152608599,7790.405023418898
4459.87334614307,8059.625921192885
4459.89653979816,8408.77240920865
4459.91973357387,8742.853632425218
4459.942927470198,8926.142742465932
4459.966121487147,9051.350916401498
4459.989315624717,8964.198839192446
4460.0125098829085,8706.014812386733
4460.035704261722,8410.41012994968
4460.058898761158,8016.597298257662
4460.082093381218,7565.498580598089
4460.105288121902,7038.7941189741605
4460.12848298321,6524.694232003451
4460.151677965145,6078.778873424743
4460.1748730677045,5566.488949089562
4460.198068290891,5069.018084392095
4460.221263634704,4725.438446512386
4460.244459099145,4402.509817876402
4460.267654684215,4252.116156365402
4460.290850389914,4185.689372804604
4460.314046216243,4354.209250291861
4460.337242163202,4734.092031485042
4460.360438230791,5243.618850016295
4460.383634419013,5817.705743409262
4460.406830727867,6452.297382458076
4460.430027157354,7140.031506757121
4460.453223707474,7786.45960949825
4460.476420378228,8446.683168207259
4460.499617169617,8913.442073463926
4460.522814081641,9432.048601138218
4460.5460111143,9767.145478674762
4460.569208267598,9964.686926936962
4460.592405541532,10126.23838525446
4460.615602936104,10147.54220913219
4460.638800451314,10131.260430733864
4460.661998087163,10312.613422028891
4460.685195843652,10175.773277801905
4460.708393720782,10036.976473779016
4460.731591718552,10103.015355875756
4460.754789836965,9939.624389403847
4460.777988076019,9781.472208718626
4460.801186435716,9581.70019574765
4460.824384916057,9428.999064489362
4460.847583517042,9305.27690013417
4460.870782238671,8950.599322349115
4460.893981080947,8710.279945912263
4460.917180043868,8508.781812313953
4460.940379127435,8187.098271617866
4460.963578331651,7938.988194109485
4460.986777656513,7484.180004913081
4461.009977102025,6952.446624647586
4461.033176668186,6441.387230297228
4461.056376354995,5904.389561006381
4461.079576162457,5393.890079301084
4461.102776090568,4832.232690019972
4461.125976139332,4267.657430975018
4461.149176308748,3935.7711815080947
4461.172376598816,3736.23087421531
4461.195577009538,3440.697114202686
4461.218777540915,3366.880204154376
4461.241978192946,3444.6788783484267
4461.265178965633,3426.8205486272072
4461.2883798589755,3525.9217598011755
4461.311580872974,3532.2889149994744
4461.3347820076315,3608.4942863933993
4461.357983262946,3691.9930839141757
4461.381184638919,3863.285877269392
4461.404386135551,3764.586247571772
4461.4275877528435,3595.027553644278
4461.4507894907965,3556.8382015006277
4461.4739913494095,3317.211685944993
4461.497193328685,3132.782161495872
4461.520395428623,2949.1038007043176
4461.543597649224,2828.020686546248
4461.566799990488,2684.62966512814
4461.590002452416,2686.851104429909
4461.61320503501,2649.955611419328
4461.636407738269,2485.009009222245
4461.659610562193,2436.3882832197546
4461.682813506784,2411.9885915926043
4461.706016572044,2413.2215171408093
4461.729219757971,2446.7854873172323
4461.752423064566,2727.716907011181
4461.775626491831,3185.9227103680428
4461.798830039766,3530.724379349332
4461.82203370837,3931.3371165646836
4461.845237497647,4317.489193681917
4461.868441407595,4481.983129968334
4461.891645438215,4712.39671995496
4461.914849589509,4744.889115809824
4461.938053861475,4716.988201841617
4461.961258254117,4516.855203807252
4461.984462767433,4412.903124566234
4462.007667401424,4276.597974828719
4462.030872156092,4129.30545108584
4462.0540770314365,4028.969569457277
4462.077282027459,4226.334822175058
4462.100487144158,4452.307303625423
4462.123692381537,4795.167444690688
4462.146897739594,5295.7706215657445
4462.170103218332,5747.523807735283
4462.19330881775,6057.129400722255
4462.21651453785,6379.8182475357635
4462.239720378631,6588.656001338848
4462.262926340095,6579.814782880085
4462.286132422241,6388.298375680108
4462.309338625071,6399.311369933675
4462.3325449485865,6262.2615926818335
4462.355751392785,6220.206312661268
4462.3789579576705,6043.370699086549
4462.402164643242,5814.282318873624
4462.4253714495,5692.834204749951
4462.448578376446,5487.851249193333
4462.471785424079,5384.118778882523
4462.494992592401,5495.3397755115275
4462.518199881412,5723.019324190695
4462.541407291114,6204.205363676426
4462.564614821506,6731.236262052045
4462.587822472589,7224.635353922339
4462.611030244365,7783.87909762853
4462.634238136832,8189.012358498241
4462.657446149992,8510.569378342694
4462.680654283847,8758.915623827408
4462.703862538396,8829.332704790862
4462.727070913639,8712.500777837917
4462.750279409578,8582.925638586496
4462.773488026214,8355.67036896745
4462.796696763546,8000.41690751242
4462.819905621575,7918.329610288084
