wave,flux
4450.003811362098,8892.087380674278
4450.026953690486,7893.4528872879155
4450.050096139227,7184.049353632602
4450.073238708321,6392.6608323064565
4450.096381397769,5943.138523089935
4450.119524207569,5485.753794262346
4450.142667137726,5308.972749578275
4450.165810188237,5275.74490715831
4450.188953359103,5397.595999310386
4450.212096650326,5757.813436491452
4450.2352400619075,6212.608013486185
4450.258383593846,6868.053602001076
4450.281527246142,7644.025860353669
4450.304671018797,8471.688706871408
4450.327814911813,9295.72336616485
4450.350958925188,10050.145880681146
4450.374103058924,10665.93660880046
4450.3972473130225,11214.24154087971
4450.420391687483,11880.822662753646
4450.443536182305,12343.15663189068
4450.466680797492,12725.764141919824
4450.489825533042,13328.764306500956
4450.512970388957,13668.62571959112
4450.536115365237,13928.110813391086
4450.559260461882,14385.001172600365
4450.582405678895,14819.90506670344
4450.605551016274,15338.358403302285
4450.628696474022,15805.577745546021
4450.651842052138,16169.81071951822
4450.674987750623,16535.668424285923
4450.698133569476,17175.545100865602
4450.721279508702,17414.995668255593
4450.744425568297,17870.137409461866
4450.767571748264,18158.489838971334
4450.790718048604,18060.799223033337
4450.813864469315,18487.058140101235
4450.837011010401,18539.69130880196
4450.86015767186,18607.948570540168
4450.883304453694,18381.547873618518
4450.906451355903,18144.09002523324
4450.929598378489,18059.368875968597
4450.95274552145,17900.74368123733
4450.975892784789,17590.017140510092
4450.999040168505,17333.855747236954
4451.022187672601,16870.250364390256
4451.045335297074,16406.844420191082
4451.068483041929,15875.693876076977
4451.091630907163,15168.349107790975
4451.114778892777,14397.190293025222
4451.137926998774,13447.421977040827
4451.161075225153,12586.633488904183
4451.184223571914,11836.026316915564
4451.207372039059,11125.398866944433
4451.230520626587,10750.846032569118
4451.253669334501,10593.288510932569
4451.2768181628,10714.61423956846
4451.299967111485,11155.770663520405
4451.323116180556,11835.383992923173
4451.346265370014,12677.922354517794
4451.369414679861,13533.591133270029
4451.392564110095,14310.289585523446
4451.415713660719,14785.708845712448
4451.438863331732,15392.39754704082
4451.462013123136,16120.449209189723
4451.48516303493,16402.32627441069
4451.508313067117,16920.09260236011
4451.531463219695,16797.74079013154
4451.554613492666,16994.820265323215
4451.577763886031,17063.179909738275
4451.60091439979,17035.372209071662
4451.624065033943,16844.847584335297
4451.647215788492,16626.04508295383
4451.670366663436,16748.267088579996
4451.693517658777,16799.9878618619
4451.716668774516,16872.155996748916
4451.739820010652,16845.61059197966
4451.762971367186,16930.322987026622
4451.78612284412,17298.856523361435
4451.8092744414525,17577.368454934083
4451.832426159187,17892.14322976841
4451.855577997321,18027.2815617408
4451.878729955857,18031.85625479359
4451.901882034796,18193.984567796124
4451.925034234137,18381.111939047427
4451.948186553881,18555.365538263217
4451.97133899403,18664.022763793542
4451.994491554583,18733.58946152608
4452.017644235542,18764.681472612243
4452.040797036907,18659.575475304762
4452.063949958678,18518.055959035057
4452.087103000857,18413.70086877948
4452.1102561634425,18346.52145067713
4452.133409446437,18242.276689081722
4452.156562849841,18069.461777382785
4452.179716373655,17793.983871334756
4452.202870017878,17575.0480033277
4452.226023782513,17319.95906767686
4452.24917766756,17095.035491470906
4452.272331673018,16932.284798036835
4452.29548579889,16639.41405224201
4452.318640045174,16195.895780858535
4452.341794411874,16009.739956021156
4452.364948898987,16177.722579475312
4452.388103506516,15854.96889425486
4452.4112582344615,15915.31555786515
4452.434413082823,16300.746527273091
4452.457568051602,16323.502473945948
4452.480723140799,16456.273686001696
4452.503878350413,16629.503766348254
4452.527033680448,16635.753604045276
4452.550189130902,16659.8993526117
4452.5733447017765,16413.642070587957
4452.596500393071,16607.86328790176
4452.619656204789,16262.463543025753
4452.642812136928,15994.88869918745
4452.66596818949,15951.621054430972
4452.689124362475,15941.185664799707
4452.7122806558855,15875.127253145854
4452.735437069719,15958.673176285341
4452.7585936039795,15925.966834638999
4452.781750258665,16144.491435679962
4452.804907033777,16009.063308473398
4452.828063929317,15975.29686386818
4452.851220945285,15961.563820683077
4452.87437808168,15581.409088911718
4452.897535338506,15253.636829506655
4452.92069271576,14934.204531100071
4452.943850213445,14762.925250182367
4452.967007831562,14598.01375335268
4452.99016557011,14541.01540058012
4453.01332342909,14594.536627030877
4453.036481408502,14677.892308758897
4453.059639508349,15140.309101964958
4453.08279772863,15556.821632489977
4453.105956069345,15927.214251993282
4453.129114530496,16323.033373033693
4453.152273112083,16743.05912922427
4453.175431814107,17098.36521205385
4453.198590636567,17200.320435945294
4453.221749579466,17470.34968341021
4453.244908642802,17431.508247620266
4453.268067826579,17293.020323464796
4453.291227130795,17294.995141267227
4453.314386555451,17325.739590288154
4453.337546100549,17070.872854169455
4453.360705766087,16939.713411153476
4453.3838655520685,16880.68526812877
4453.407025458493,16711.632240167517
4453.430185485361,16874.506703354058
4453.453345632673,17298.50770675248
4453.476505900429,17243.259582045208
4453.4996662886315,17451.05498234407
4453.52282679728,17730.385361015244
4453.545987426375,17981.065945018585
4453.569148175917,18253.201113616826
4453.592309045907,18262.17631527712
4453.615470036346,18359.501961195427
4453.638631147233,18657.159096459807
4453.661792378571,18346.419004216634
4453.684953730359,18365.108134639162
4453.708115202598,18367.184525231485
4453.731276795288,18060.146745902402
4453.754438508431,17959.79870916004
4453.777600342027,17773.887786338964
4453.800762296077,17536.625851585497
4453.82392437058,17203.530448826506
4453.847086565538,16827.12971521148
4453.870248880952,16216.423116206284
4453.8934113168225,15442.52601854093
4453.916573873149,14640.700852338503
4453.939736549933,13536.676192899953
4453.962899347174,12573.533069791445
4453.986062264875,11734.786918573463
4454.009225303034,10792.646076613755
4454.032388461654,9999.40504368302
4454.055551740734,9621.483177841674
4454.078715140275,9594.095703540825
4454.101878660277,9590.789556346583
4454.125042300742,9773.592870006392
4454.14820606167,10129.728899062515
4454.171369943061,10293.665716236706
4454.194533944917,10536.536630094579
4454.2176980672375,10668.09348204793
4454.240862310024,10394.933817223515
4454.264026673275,9937.606913357298
4454.287191156994,9376.273257189174
4454.31035576118,8779.847351817589
4454.333520485834,8067.178061335099
4454.356685330957,7356.3031998273955
4454.379850296548,6595.90949196332
4454.40301538261,6048.962151276824
4454.426180589142,5649.72547744927
4454.449345916145,5505.705759921895
4454.4725113636205,5579.044369939439
4454.495676931568,5801.073408521845
4454.5188426199875,6188.215919935297
4454.542008428882,6608.801935615982
4454.565174358249,7179.9183125630725
4454.588340408092,7727.485759124515
4454.611506578411,8112.187240820202
4454.634672869205,8644.186546067853
4454.657839280476,8928.102481142514
4454.681005812225,9568.325753765826
4454.704172464451,9950.948072205776
4454.727339237156,10622.226684480102
4454.750506130341,11407.282856519569
4454.773673144005,11905.789695421883
4454.79684027815,12419.55809760218
4454.820007532776,12481.975865952276
4454.843174907884,12881.345691224966
4454.866342403473,12661.088662641288
4454.889510019546,12507.890175276434
4454.912677756102,12330.715037956783
4454.935845613144,12098.215893855622
4454.959013590669,11975.543256482162
4454.982181688681,12026.033933201417
4455.005349907178,12357.948450595111
4455.028518246162,12819.935184693351
4455.051686705633,13252.783424282105
4455.074855285593,14245.058503236512
4455.098023986041,14558.815603489418
4455.121192806979,15287.066785401134
4455.144361748406,15870.865791633843
4455.167530810323,16261.08960275024
4455.190699992732,16251.055330527497
4455.213869295633,16499.302495662178
4455.237038719026,16606.480364637908
4455.260208262912,16543.695156574413
4455.283377927292,16191.665145142726
4455.306547712166,15886.796132754253
4455.329717617535,15420.558592619143
4455.352887643399,14761.23652614976
4455.37605778976,14055.869492279573
4455.399228056617,13129.15459265773
4455.422398443972,12238.165094180818
4455.445568951825,11375.673820803007
4455.468739580177,10402.32714307675
4455.491910329028,9576.82916419208
4455.515081198378,8874.926103446593
4455.538252188229,8500.235433531292
4455.561423298582,8384.914271681248
4455.584594529436,8463.562995560003
4455.607765880793,8910.72894239994
4455.630937352652,9612.399726045689
4455.654108945016,10474.835168037514
4455.677280657883,11467.053063402722
4455.700452491255,12341.491857616073
4455.723624445134,13123.318931729009
4455.746796519518,13873.879951336492
4455.7699687144095,14549.49019727744
4455.793141029808,15065.095519745293
4455.816313465714,15475.009573764866
4455.83948602213,15784.416294062916
4455.862658699055,15827.785040710365
4455.885831496489,15720.18849995086
4455.909004414434,15589.882162211916
4455.932177452891,15416.494066624235
4455.955350611858,14929.52813343345
4455.978523891339,14550.927246062984
4456.001697291333,14353.063204897335
4456.024870811841,14066.00967426322
4456.048044452862,14035.965601963218
4456.071218214399,14006.861483019664
4456.094392096451,13990.143083796287
4456.117566099019,13998.258779281441
4456.140740222105,14089.227989655528
4456.163914465707,13926.30395630048
4456.187088829828,13735.920224768295
4456.210263314468,13456.65542934145
4456.233437919626,13111.938211183466
4456.256612645306,12534.01218254462
4456.279787491505,12158.53147218748
4456.302962458226,12104.957881274351
4456.326137545469,12250.041486699376
4456.349312753233,12541.689601677335
4456.372488081522,13029.387847220301
4456.395663530333,13471.990978065118
4456.41883909967,14179.57609080218
4456.442014789531,14814.994732423054
4456.465190599917,15517.91074701531
4456.488366530831,16019.54912523332
4456.5115425822705,16260.332554371356
4456.5347187542375,16560.479234102506
4456.557895046733,16753.45526709448
4456.581071459757,16678.346367596427
4456.604247993311,16801.05620523273
4456.627424647395,16671.24690747004
4456.650601422009,16642.43462577118
4456.673778317154,16492.41688827871
4456.696955332832,16601.103644059134
4456.720132469041,16500.84530209574
4456.7433097257845,16759.910428749547
4456.766487103061,16904.97433453386
4456.789664600872,16790.269033640816
4456.8128422192185,16843.146045241432
4456.8360199581,16960.208697831717
4456.859197817518,16850.596018264343
4456.882375797473,16936.581779753546
4456.905553897966,16706.664157765998
4456.928732118997,16266.170844139318
4456.951910460566,15682.490428452658
4456.975088922674,15141.329110061772
4456.998267505323,14237.73785257712
4457.021446208513,13593.949093120254
4457.044625032244,12887.089632060019
4457.067803976516,12104.223347581577
4457.090983041332,11843.681450581722
4457.1141622266905,11314.210175558232
4457.1373415325925,11197.762196092688
4457.160520959039,11129.276951717095
4457.183700506031,11525.598592148737
4457.206880173568,11707.191749010432
4457.230059961651,12514.160084704712
4457.2532398702815,13075.126399466655
4457.27641989946,13543.818619739077
4457.299600049186,14247.94010367229
4457.322780319461,15015.333808640475
4457.345960710286,15582.796938204701
4457.36914122166,16080.760111196261
4457.392321853586,16501.088079197933
4457.415502606062,16650.25748003535
4457.43868347909,16777.398991387978
4457.461864472672,17240.72545148273
4457.485045586805,16985.345486882998
4457.508226821494,16906.095914736627
4457.5314081767365,17057.90955530974
4457.554589652534,16801.76781698933
4457.577771248887,16725.703750191482
4457.600952965797,16541.442620638565
4457.624134803263,15861.790393030395
4457.647316761288,15406.733668094257
4457.67049883987,14758.294474196588
4457.693681039011,14203.374507693778
4457.716863358712,13288.925812509702
4457.7400457989725,13164.94464186044
4457.763228359793,12648.329305475585
4457.7864110411765,12347.849786364162
4457.809593843121,12101.866880359185
4457.832776765628,12259.795790558697
4457.855959808699,12447.64362571516
4457.879142972333,12128.478110091288
4457.902326256532,12335.699298866537
4457.925509661296,12586.541724194416
4457.948693186626,12861.863376084162
4457.971876832522,13331.800667962441
4457.995060598985,13638.95521749516
4458.018244486016,14207.245125478814
4458.041428493615,14652.289584352173
4458.0646126217825,14890.83404136766
4458.08779687052,15154.671218572883
4458.110981239827,15313.098870362344
4458.134165729705,15086.697037903576
4458.157350340155,15090.559201830898
4458.180535071177,15136.248941185559
4458.203719922771,15053.983661192507
4458.226904894938,15306.30669305327
4458.2500899876795,15547.05826404009
4458.273275200995,15990.923142892601
4458.296460534886,16352.961700470594
4458.3196459893525,16529.956316877433
4458.342831564396,16680.541431690574
4458.366017260016,16822.758846649464
4458.389203076214,17153.790711877846
4458.4123890129895,16952.15312415979
4458.435575070344,16802.25222302128
4458.458761248279,16797.25931727244
4458.481947546794,16351.861930569168
4458.505133965889,15782.24434533079
4458.528320505566,15182.351816964861
4458.551507165825,14651.237907434415
4458.574693946666,13840.333857286587
4458.597880848091,12802.590480654682
4458.6210678701,11630.296854737137
4458.644255012693,10494.61677220699
4458.6674422758715,9485.308719409293
4458.690629659636,8545.172444447828
4458.713817163986,7683.700551599144
4458.737004788924,6821.753328514163
4458.76019253445,6550.3761388511575
4458.783380400563,6436.977544729157
4458.8065683872655,6523.919877576236
4458.829756494558,6831.866015696125
4458.85294472244,7218.713357563462
4458.876133070914,7786.441708909644
4458.899321539979,8424.68695903642
4458.922510129635,8953.059111669747
4458.945698839884,9475.182104142528
4458.968887670727,9959.317081778978
4458.992076622164,10445.25300562643
4459.015265694195,10997.862087745243
4459.0384548868215,11467.833922938496
4459.061644200044,12153.908782906794
4459.084833633862,13020.383978217264
4459.108023188278,13733.512338261891
4459.131212863292,14421.532299362716
4459.154402658904,15320.28720728234
4459.177592575114,15831.400939567015
4459.200782611925,16214.01155761433
4459.223972769336,16576.547207326854
4459.247163047347,16809.15777527447
4459.27035344596,17022.353667087016
4459.293543965176,17057.589431303608
4459.316734604993,17026.890634654425
4459.339925365414,16985.971907390653
4459.363116246439,16816.951998325734
4459.386307248069,16695.84034738774
4459.409498370304,16686.15135358589
4459.432689613145,16804.777041253932
4459.455880976592,16717.194920465943
4459.479072460647,16905.392433943744
4459.502264065309,16972.526953774664
4459.52545579058,17055.72092327469
4459.5486476364595,17139.524565894157
4459.571839602949,17457.306109581245
4459.595031690048,17464.630506836656
4459.618223897759,17551.77155891011
4459.641416226081,17463.194202747465
4459.664608675014,17312.299784477396
4459.687801244561,17100.775774154157
4459.710993934721,16657.448829802728
4459.734186745496,16327.616037745152
4459.757379676885,15643.860820028072
4459.780572728889,14746.198727995397
4459.803765901509,13889.120403100767
4459.8269591947455,13287.772488018161
4459.850152608599,12749.35204728449
4459.87334614307,12102.094620604445
4459.89653979816,11871.021556612413
4459.91973357387,11848.115750798499
4459.942927470198,11970.640790063264
4459.966121487147,12409.732232393311
4459.989315624717,12853.251368975069
4460.0125098829085,13418.032027008183
4460.035704261722,14011.81622341457
4460.058898761158,14826.98845966395
4460.082093381218,15420.444782160806
4460.105288121902,15964.665124698773
4460.12848298321,16365.111109687987
4460.151677965145,16836.94147626663
4460.1748730677045,17246.18322024921
4460.198068290891,17566.541915584396
4460.221263634704,17798.047263659617
4460.244459099145,17940.035434557307
4460.267654684215,17995.466296473827
4460.290850389914,18118.026821669016
4460.314046216243,18165.825464553025
4460.337242163202,18178.65196047103
4460.360438230791,17913.62234672783
4460.383634419013,18017.563637930143
4460.406830727867,18094.79432297518
4460.430027157354,17996.60612188226
4460.453223707474,18114.562065046604
4460.476420378228,18047.123896394507
4460.499617169617,17899.118314415096
4460.522814081641,17480.254110652342
4460.5460111143,17539.443959561588
4460.569208267598,17184.979811756428
4460.592405541532,16989.406658748398
4460.615602936104,16660.754890930817
4460.638800451314,15866.89942363863
4460.661998087163,15110.77193855871
4460.685195843652,14711.54684001357
4460.708393720782,13859.573937530951
4460.731591718552,13044.77798356091
4460.754789836965,11986.800178033867
4460.777988076019,11669.84887110685
4460.801186435716,11033.963685162003
4460.824384916057,10459.483265069412
4460.847583517042,9960.066110753474
4460.870782238671,9840.429512353181
4460.893981080947,9831.054002656116
4460.917180043868,9978.618358250824
4460.940379127435,9883.98495917991
4460.963578331651,9919.336255972881
4460.986777656513,9906.67179987802
4461.009977102025,9738.792942120446
4461.033176668186,9463.570205338288
4461.056376354995,9222.178327062848
4461.079576162457,8663.154627768672
4461.102776090568,8621.141439196279
4461.125976139332,8474.105515161678
4461.149176308748,8355.53394840616
4461.172376598816,8185.116229782963
4461.195577009538,8008.630312761188
4461.218777540915,7755.973140259465
4461.241978192946,7343.878490137656
4461.265178965633,7073.319346983818
4461.2883798589755,6819.33145087046
4461.311580872974,6770.993655913599
4461.3347820076315,6848.034156941926
4461.357983262946,7014.473441690733
4461.381184638919,7528.376428883824
4461.404386135551,8096.4020131923335
4461.4275877528435,8736.337318079975
4461.4507894907965,9593.068528810485
4461.4739913494095,10055.585193318766
4461.497193328685,10438.691373681955
4461.520395428623,10599.590869954918
4461.543597649224,10749.600080039
4461.566799990488,10723.34111018157
4461.590002452416,10423.009073060293
4461.61320503501,10018.005751041026
4461.636407738269,9954.49739185172
4461.659610562193,9755.587886508834
4461.682813506784,9941.995579589176
4461.706016572044,10320.595215619298
4461.729219757971,10830.286750517633
4461.752423064566,11317.403203892449
4461.775626491831,11986.535984609009
4461.798830039766,12824.077137813967
4461.82203370837,13459.420490967947
4461.845237497647,13983.87916482836
4461.868441407595,14262.223612588981
4461.891645438215,14680.901911356346
4461.914849589509,15072.96852216161
4461.938053861475,15142.06525831446
4461.961258254117,15184.411448415774
4461.984462767433,14915.054561591453
4462.007667401424,14638.6046038503
4462.030872156092,14406.478445650573
4462.0540770314365,13892.966844262895
4462.077282027459,13398.90038148849
4462.100487144158,13223.991459255272
4462.123692381537,13259.223474826673
4462.146897739594,13286.289809446995
4462.170103218332,13511.383738980148
4462.19330881775,13989.237828703375
4462.21651453785,14584.441896807433
4462.239720378631,15143.070806173348
4462.262926340095,15576.037854661958
4462.286132422241,15871.385143711563
4462.309338625071,16401.59380146697
4462.3325449485865,16568.190992221706
4462.355751392785,16725.342409408844
4462.3789579576705,16984.12384661636
4462.402164643242,17073.741704009273
4462.4253714495,17105.946049299913
4462.448578376446,17061.08580934961
4462.471785424079,16918.82728277562
4462.494992592401,16852.400087170347
4462.518199881412,16672.154216100553
4462.541407291114,16346.33236640094
4462.564614821506,15822.31584804976
4462.587822472589,15257.26269489369
4462.611030244365,14935.616198820375
4462.634238136832,14641.97735740302
