wave,flux
4450.003811362098,8954.366082522061
4450.026953690486,8078.975032561427
4450.050096139227,7299.393039145926
4450.073238708321,6531.203103513437
4450.096381397769,5922.788348787438
4450.119524207569,5627.761487120883
4450.142667137726,5333.2503596563
4450.165810188237,5236.4670801541115
4450.188953359103,5526.356363629313
4450.212096650326,6000.025546346029
4450.2352400619075,6490.407650775321
4450.258383593846,7120.292331769981
4450.281527246142,7970.3920246825555
4450.304671018797,8794.72671354102
4450.327814911813,9547.426222236913
4450.350958925188,10266.498362454795
4450.374103058924,10917.792742111253
4450.3972473130225,11564.644818441564
4450.420391687483,12242.406191215647
4450.443536182305,12860.180711906052
4450.466680797492,13173.213559044745
4450.489825533042,13506.951076598072
4450.512970388957,14057.558207542608
4450.536115365237,14333.669781219969
4450.559260461882,14702.854507201293
4450.582405678895,15112.601905960331
4450.605551016274,15385.727904837064
4450.628696474022,16318.773594989645
4450.651842052138,16608.50403684762
4450.674987750623,17121.173937081297
4450.698133569476,17796.875672059443
4450.721279508702,18034.55379140355
4450.744425568297,18269.47452149557
4450.767571748264,18639.806040625892
4450.790718048604,18809.956053080947
4450.813864469315,18826.93230201402
4450.837011010401,18895.489352146327
4450.86015767186,18682.54790624561
4450.883304453694,18745.620287567195
4450.906451355903,18835.6356985863
4450.929598378489,18574.40969197826
4450.95274552145,18260.38676009262
4450.975892784789,18204.13583521037
4450.999040168505,17986.385973228178
4451.022187672601,17551.03589334258
4451.045335297074,17074.473180255856
4451.068483041929,16347.820649761288
4451.091630907163,15575.288835035026
4451.114778892777,14787.005929238554
4451.137926998774,13863.093538737428
4451.161075225153,12872.329044362348
4451.184223571914,11871.504597274296
4451.207372039059,11251.189406083497
4451.230520626587,10983.737855813812
4451.253669334501,10832.741637773897
4451.2768181628,10986.650167686561
4451.299967111485,11417.315683530993
4451.323116180556,12055.24522118918
4451.346265370014,12843.363835521048
4451.369414679861,13687.282889877228
4451.392564110095,14615.705056247194
4451.415713660719,15212.282828381592
4451.438863331732,15940.550321477438
4451.462013123136,16474.824944483524
4451.48516303493,16868.31290900111
4451.508313067117,17315.409445145844
4451.531463219695,17515.350612887098
4451.554613492666,17231.90428939734
4451.577763886031,17340.097338025447
4451.60091439979,17320.04719112631
4451.624065033943,17267.41642194711
4451.647215788492,17169.78776208232
4451.670366663436,17194.870539398933
4451.693517658777,17155.79979409525
4451.716668774516,17314.36031132358
4451.739820010652,17164.629852837712
4451.762971367186,17535.007076442187
4451.78612284412,17764.157923006514
4451.8092744414525,18043.408146576105
4451.832426159187,18261.48863193215
4451.855577997321,18345.94362739746
4451.878729955857,18450.48914136659
4451.901882034796,18722.906274709367
4451.925034234137,18870.252284354927
4451.948186553881,18866.51157693381
4451.97133899403,19114.708491498295
4451.994491554583,19265.938893688264
4452.017644235542,19019.358086518234
4452.040797036907,18894.45036333333
4452.063949958678,19031.00451406313
4452.087103000857,18976.021414156545
4452.1102561634425,18988.06454796005
4452.133409446437,18829.246257749735
4452.156562849841,18238.50793336848
4452.179716373655,18299.511120545736
4452.202870017878,17980.10413296976
4452.226023782513,17794.572343985707
4452.24917766756,17406.232196908466
4452.272331673018,17113.010960795295
4452.29548579889,16922.357718039635
4452.318640045174,16760.997121289827
4452.341794411874,16434.565143549036
4452.364948898987,16485.068605992437
4452.388103506516,16316.034806851058
4452.4112582344615,16403.171589878268
4452.434413082823,16497.707033300998
4452.457568051602,16654.54216095913
4452.480723140799,16944.60175021459
4452.503878350413,16859.782144312674
4452.527033680448,17003.36606444228
4452.550189130902,17146.677728856626
4452.5733447017765,17023.821700108638
4452.596500393071,16774.89999350711
4452.619656204789,16547.913654125477
4452.642812136928,16517.00273935998
4452.66596818949,16263.585526123386
4452.689124362475,16275.376592809069
4452.7122806558855,16306.388173227377
4452.735437069719,16372.624514189814
4452.7585936039795,16697.411050062597
4452.781750258665,16745.71600237502
4452.804907033777,16658.806047886705
4452.828063929317,16456.474283733176
4452.851220945285,16278.502048974664
4452.87437808168,16113.700971285316
4452.897535338506,15762.027473857228
4452.92069271576,15461.153960991347
4452.943850213445,15120.20067038045
4452.967007831562,14765.429006384795
4452.99016557011,14822.541294069584
4453.01332342909,15053.32540488735
4453.036481408502,15235.244136224954
4453.059639508349,15526.994009094296
4453.08279772863,15969.008680399364
4453.105956069345,16453.795901863738
4453.129114530496,16775.781089868397
4453.152273112083,17143.026982045776
4453.175431814107,17558.176134265443
4453.198590636567,17851.817361103345
4453.221749579466,17924.424160361283
4453.244908642802,17896.533874444627
4453.268067826579,17915.941502197256
4453.291227130795,17778.768921937888
4453.314386555451,17690.589880829182
4453.337546100549,17361.12769571616
4453.360705766087,17381.031038472665
4453.3838655520685,17461.24249998527
4453.407025458493,17486.24812050976
4453.430185485361,17449.624897137124
4453.453345632673,17617.800384957187
4453.476505900429,17846.12109379186
4453.4996662886315,18114.865184665097
4453.52282679728,18090.261037992856
4453.545987426375,18337.661433387795
4453.569148175917,18610.282507094787
4453.592309045907,18614.04077216189
4453.615470036346,18889.727315260243
4453.638631147233,18912.830464613013
4453.661792378571,18944.530255513473
4453.684953730359,18817.297271764466
4453.708115202598,18882.338428684598
4453.731276795288,18753.505813641044
4453.754438508431,18523.72093653431
4453.777600342027,18348.849838090064
4453.800762296077,18131.224829687864
4453.82392437058,17515.137638264365
4453.847086565538,17221.70160581309
4453.870248880952,16492.414209157505
4453.8934113168225,15536.555704719829
4453.916573873149,15022.129592441403
4453.939736549933,13891.280845613323
4453.962899347174,12819.761154600688
4453.986062264875,11981.02994226244
4454.009225303034,10952.215919062915
4454.032388461654,10299.64211562192
4454.055551740734,9932.542556882558
4454.078715140275,9867.484584805894
4454.101878660277,9988.703505403735
4454.125042300742,10078.338298439712
4454.14820606167,10316.920978659859
4454.171369943061,10553.152489865537
4454.194533944917,10717.170126738385
4454.2176980672375,10771.69276724006
4454.240862310024,10568.943880837014
4454.264026673275,10184.104420071028
4454.287191156994,9628.338542633162
4454.31035576118,8857.03682204538
4454.333520485834,8099.444275038053
4454.356685330957,7457.533098817801
4454.379850296548,6786.870652975331
4454.40301538261,6254.158256748778
4454.426180589142,5869.900515857748
4454.449345916145,5751.978225514664
4454.4725113636205,5799.296153876599
4454.495676931568,5983.9349689127675
4454.5188426199875,6501.667929604262
4454.542008428882,6917.687803449361
4454.565174358249,7348.165929349327
4454.588340408092,8094.805599702114
4454.611506578411,8484.557178899177
4454.634672869205,8887.239266600187
4454.657839280476,9350.016180668232
4454.681005812225,9874.609393145927
4454.704172464451,10474.312511934811
4454.727339237156,10872.437014771956
4454.750506130341,11666.084713395314
4454.773673144005,12231.73646267123
4454.79684027815,12775.492394337789
4454.820007532776,12920.865317557309
4454.843174907884,13135.47609104932
4454.866342403473,13031.953442730963
4454.889510019546,12826.08770631609
4454.912677756102,12837.714492399396
4454.935845613144,12305.674712668728
4454.959013590669,12406.183302169788
4454.982181688681,12525.71825529213
4455.005349907178,12700.001059294204
4455.028518246162,13379.029183057688
4455.051686705633,13802.244140613824
4455.074855285593,14416.286203046126
4455.098023986041,15224.434104156315
4455.121192806979,15765.127317483231
4455.144361748406,16286.148370297458
4455.167530810323,16740.732321145755
4455.190699992732,16999.488792228705
4455.213869295633,17059.34408852206
4455.237038719026,16827.018010559925
4455.260208262912,16814.34469252566
4455.283377927292,16620.999347973484
4455.306547712166,16255.658957895437
4455.329717617535,15717.780289994269
4455.352887643399,15116.532118149811
4455.37605778976,14459.043500616275
4455.399228056617,13691.94898873211
4455.422398443972,12589.19699533927
4455.445568951825,11610.14849369612
4455.468739580177,10679.666303838037
4455.491910329028,9705.2561071069
4455.515081198378,9088.800334221973
4455.538252188229,8675.149363900426
4455.561423298582,8446.04918629617
4455.584594529436,8756.287718096604
4455.607765880793,9277.89812380021
4455.630937352652,9971.70794235419
4455.654108945016,10951.119180757447
4455.677280657883,11863.284694320548
4455.700452491255,12766.301016184343
4455.723624445134,13591.35602034047
4455.746796519518,14287.509977938547
4455.7699687144095,15030.797705475468
4455.793141029808,15684.01644013705
4455.816313465714,16034.516794689762
4455.83948602213,16260.295885838585
4455.862658699055,16409.41173685115
4455.885831496489,16272.087020449524
4455.909004414434,16007.011287343561
4455.932177452891,15609.573449874704
4455.955350611858,15334.43575292629
4455.978523891339,15116.437800172447
4456.001697291333,14652.887638194692
4456.024870811841,14415.766851415912
4456.048044452862,14465.756842332465
4456.071218214399,14410.7084134178
4456.094392096451,14329.468603259003
4456.117566099019,14512.040485136971
4456.140740222105,14482.318763094978
4456.163914465707,14333.900575478703
4456.187088829828,14002.366326329708
4456.210263314468,13765.062739904566
4456.233437919626,13347.936508484163
4456.256612645306,12807.30675728192
4456.279787491505,12587.546491773817
4456.302962458226,12599.296264219374
4456.326137545469,12477.064469704943
4456.349312753233,12873.57415957085
4456.372488081522,13326.569782914
4456.395663530333,13975.45280416142
4456.41883909967,14488.359189500756
4456.442014789531,15125.700775215044
4456.465190599917,15795.925810913986
4456.488366530831,16234.306171374068
4456.5115425822705,16668.678155872505
4456.5347187542375,16847.542457605676
4456.557895046733,16929.402029573903
4456.581071459757,17275.840633354917
4456.604247993311,17202.42615925514
4456.627424647395,17126.648932037446
4456.650601422009,17225.15423538807
4456.673778317154,17133.725080521326
4456.696955332832,16799.002242218605
4456.720132469041,16839.360916590347
4456.7433097257845,17251.921974227902
4456.766487103061,17160.11090744112
4456.789664600872,17272.250301091426
4456.8128422192185,17325.62516258921
4456.8360199581,17179.319830994373
4456.859197817518,17290.1573401548
4456.882375797473,17234.460294817673
4456.905553897966,16943.17541294985
4456.928732118997,16584.229559125703
4456.951910460566,16069.701772111775
4456.975088922674,15437.786185453035
4456.998267505323,14760.565653888289
4457.021446208513,13897.579553354022
4457.044625032244,13248.112700601228
4457.067803976516,12671.109410317782
4457.090983041332,11998.021360323835
4457.1141622266905,11682.551502488674
4457.1373415325925,11586.584094006901
4457.160520959039,11535.85189214681
4457.183700506031,11827.336876082129
4457.206880173568,12102.939172059396
4457.230059961651,12691.842949445994
4457.2532398702815,13245.693321246727
4457.27641989946,14233.844303310358
4457.299600049186,14725.786558558022
4457.322780319461,15486.88185475341
4457.345960710286,16017.124413678443
4457.36914122166,16486.88552208829
4457.392321853586,17036.2381369086
4457.415502606062,17082.291645662193
4457.43868347909,17249.025677553716
4457.461864472672,17508.567209979476
4457.485045586805,17610.041963955868
4457.508226821494,17512.815077760228
4457.5314081767365,17580.93652247713
4457.554589652534,17206.32571226082
4457.577771248887,17029.40970049223
4457.600952965797,16716.840030514508
4457.624134803263,16216.473631538824
4457.647316761288,15712.99589608839
4457.67049883987,15151.74023011241
4457.693681039011,14531.461621798873
4457.716863358712,13878.184337400395
4457.7400457989725,13419.160988091848
4457.763228359793,12946.93304511764
4457.7864110411765,12667.540026159126
4457.809593843121,12407.53983105099
4457.832776765628,12509.881336426572
4457.855959808699,12565.878186233982
4457.879142972333,12404.849062843607
4457.902326256532,12546.74695941747
4457.925509661296,12949.272182676874
4457.948693186626,13369.471519567964
4457.971876832522,13650.131624689764
4457.995060598985,14297.79023576336
4458.018244486016,14788.094173961814
4458.041428493615,15019.60618675598
4458.0646126217825,15327.672774107794
4458.08779687052,15509.893738719817
4458.110981239827,15508.636447660621
4458.134165729705,15449.829313532528
4458.157350340155,15392.008893107655
4458.180535071177,15413.518268904747
4458.203719922771,15661.875189968865
4458.226904894938,15693.51278502307
4458.2500899876795,15878.56097481636
4458.273275200995,16191.566240389553
4458.296460534886,16570.05998335315
4458.3196459893525,16908.66200709816
4458.342831564396,17166.593607050832
4458.366017260016,17452.733674427524
4458.389203076214,17565.86832197732
4458.4123890129895,17512.06839579303
4458.435575070344,17363.26913129704
4458.458761248279,16898.621120572643
4458.481947546794,16726.112124525265
4458.505133965889,16339.885196514759
4458.528320505566,15651.273346561393
4458.551507165825,15051.081088046825
4458.574693946666,13952.91955750767
4458.597880848091,12888.726335674437
4458.6210678701,11860.70257609724
4458.644255012693,10858.766812810174
4458.6674422758715,9641.812907604724
4458.690629659636,8709.72398576404
4458.713817163986,7803.480479134295
4458.737004788924,7096.499633228663
4458.76019253445,6755.577215707189
4458.783380400563,6517.993589247749
4458.8065683872655,6569.179336230721
4458.829756494558,6966.877676990312
4458.85294472244,7429.01424328164
4458.876133070914,7942.983624468151
4458.899321539979,8553.68977120755
4458.922510129635,9194.645175100643
4458.945698839884,9768.610076325205
4458.968887670727,10294.014085394645
4458.992076622164,10710.529998416756
4459.015265694195,11200.671105435587
4459.0384548868215,11809.187363199486
4459.061644200044,12535.522775332664
4459.084833633862,13498.064591049198
4459.108023188278,14396.940806695897
4459.131212863292,15134.591939927772
4459.154402658904,15594.332437672378
4459.177592575114,16289.077071143163
4459.200782611925,16897.534883935434
4459.223972769336,17210.402973384334
4459.247163047347,17463.90603482823
4459.27035344596,17575.09565310306
4459.293543965176,17586.609652056843
4459.316734604993,17677.700815723183
4459.339925365414,17537.511546376358
4459.363116246439,17209.24864935218
4459.386307248069,17264.437848770045
4459.409498370304,17228.396521715964
4459.432689613145,17191.77569812773
4459.455880976592,17132.451046246286
4459.479072460647,17228.145246636082
4459.502264065309,17430.918813594308
4459.52545579058,17876.194042660027
4459.5486476364595,17843.268221083807
4459.571839602949,17988.42216583098
4459.595031690048,17987.288349047638
4459.618223897759,18075.896395246487
4459.641416226081,17899.565839679537
4459.664608675014,17917.190328807956
4459.687801244561,17594.101663481448
4459.710993934721,17090.222072682795
4459.734186745496,16665.63102934476
4459.757379676885,16003.881682097986
4459.780572728889,15225.928234550936
4459.803765901509,14334.226509503365
4459.8269591947455,13533.988582550557
4459.850152608599,12925.691381882754
4459.87334614307,12603.169927035247
4459.89653979816,12407.417908552421
4459.91973357387,12121.149165730701
4459.942927470198,12450.789547963635
4459.966121487147,12897.02581538155
4459.989315624717,13428.229337845796
4460.0125098829085,14051.895160277549
4460.035704261722,14463.08224992881
4460.058898761158,15090.880136153024
4460.082093381218,15673.768354390537
4460.105288121902,16256.67018899022
4460.12848298321,16764.598127085817
4460.151677965145,17204.054930350514
4460.1748730677045,17794.553766527806
4460.198068290891,17974.93186193029
4460.221263634704,18188.230581965174
4460.244459099145,18369.143260532535
4460.267654684215,18622.706461307593
4460.290850389914,18700.883015792777
4460.314046216243,18545.032179860707
4460.337242163202,18757.513477726974
4460.360438230791,18700.778426096782
4460.383634419013,18722.853868192524
4460.406830727867,18581.337635412805
4460.430027157354,18581.07497655597
4460.453223707474,18393.543939409843
4460.476420378228,18285.0922667681
4460.499617169617,18259.796704409255
4460.522814081641,18084.128174652375
4460.5460111143,18015.972275675875
4460.569208267598,17709.8438010952
4460.592405541532,17419.142121199802
4460.615602936104,16892.640163201977
4460.638800451314,16463.23946793543
4460.661998087163,15524.015189232532
4460.685195843652,14971.723876299377
4460.708393720782,14222.732545642226
4460.731591718552,13421.324284071088
4460.754789836965,12436.040844401266
4460.777988076019,11874.37285290594
4460.801186435716,11259.088504234378
4460.824384916057,10815.555768742232
4460.847583517042,10224.696361468688
4460.870782238671,10228.107497242205
4460.893981080947,10102.056287115674
4460.917180043868,10061.824294943646
4460.940379127435,10034.575542138902
4460.963578331651,10247.216077730092
4460.986777656513,9934.023118865909
4461.009977102025,10003.933378697868
4461.033176668186,9612.857567283512
4461.056376354995,9416.860624843053
4461.079576162457,9119.264581966443
4461.102776090568,8865.797153482928
4461.125976139332,8762.35281396274
4461.149176308748,8445.940835936042
4461.172376598816,8321.932040920254
4461.195577009538,8327.538098847484
4461.218777540915,7972.224961025292
4461.241978192946,7532.801990790463
4461.265178965633,7273.146938357909
4461.2883798589755,6979.149481506322
4461.311580872974,6811.228323932192
4461.3347820076315,6959.0194441097065
4461.357983262946,7151.86396158506
4461.381184638919,7791.2107631692315
4461.404386135551,8340.307558318013
4461.4275877528435,9002.211683449113
4461.4507894907965,9706.767466904379
4461.4739913494095,10415.426149362544
4461.497193328685,10804.433351745247
4461.520395428623,10881.756104111075
4461.543597649224,11148.15103848183
4461.566799990488,11082.219398443896
4461.590002452416,10666.09744898559
4461.61320503501,10438.897623700666
4461.636407738269,10200.075000834271
4461.659610562193,9990.047416065023
4461.682813506784,10127.856376892101
4461.706016572044,10490.718442571326
4461.729219757971,11168.289405938904
4461.752423064566,11769.839519741508
4461.775626491831,12456.695279805415
4461.798830039766,13158.56835649945
4461.82203370837,13798.634009719812
4461.845237497647,14267.548036169293
4461.868441407595,14711.377159167103
4461.891645438215,15030.760621683841
4461.914849589509,15330.273984159776
4461.938053861475,15522.515727467833
4461.961258254117,15417.139047927098
4461.984462767433,15186.064948335246
4462.007667401424,14988.481423990961
4462.030872156092,14596.728713927489
4462.0540770314365,13998.453691218576
4462.077282027459,13809.05983910707
4462.100487144158,13664.890883616943
4462.123692381537,13380.884754540633
4462.146897739594,13463.871349977373
4462.170103218332,13866.796194540715
4462.19330881775,14373.117563973487
4462.21651453785,14940.363064535102
4462.239720378631,15631.625109306091
4462.262926340095,16122.513245393264
4462.286132422241,16446.61854897351
4462.309338625071,16682.692524706334
4462.3325449485865,17177.506214870493
4462.355751392785,17280.05318931482
4462.3789579576705,17198.535335817654
4462.402164643242,17291.06079704737
4462.4253714495,17348.271014338785
4462.448578376446,17305.015418820076
4462.471785424079,17349.041933051416
4462.494992592401,17267.82093643282
4462.518199881412,16772.463704203128
4462.541407291114,16601.835254735288
4462.564614821506,16248.3560312418
4462.587822472589,15809.698593765348
4462.611030244365,15348.75005215332
4462.634238136832,15072.9736122616
