wave,flux
5000.025812696027,9609.638328737878
5000.051815424163,10533.166492076929
5000.0778182875265,11518.559868898023
5000.103821286119,12510.02321293585
5000.12982441994,13345.540156305766
5000.155827688991,13995.38676343106
5000.181831093272,14541.703452132413
5000.207834632784,14716.095400815151
5000.2338383075285,14428.09944321525
5000.259842117506,13806.39091647305
5000.285846062716,13107.32662074978
5000.311850143161,12217.051169143782
5000.33785435884,11343.42888756514
5000.363858709754,10961.596333444057
5000.389863195905,10912.2257683609
5000.415867817292,11195.58382558415
5000.441872573917,11782.47037082531
5000.4678774657805,12250.860451205588
5000.493882492882,12684.563029056128
5000.519887655224,12819.357865546475
5000.545892952806,12997.141804869843
5000.571898385629,12923.77704195295
5000.597903953694,12934.496865881913
5000.623909657001,13172.671454075766
5000.649915495552,13553.330251084688
5000.675921469346,13963.997502210477
5000.701927578384,14609.274546233995
5000.727933822669,15108.49506716851
5000.7539402021985,15294.021256491042
5000.779946716975,15505.671254833398
5000.805953366999,15368.856601401496
5000.831960152272,15400.264600021306
5000.857967072792,15364.829794009127
5000.883974128563,15385.920146949027
5000.9099813195835,14988.929212708263
5000.935988645855,15124.879157668296
5000.961996107378,14808.032463118629
5000.988003704153,14670.593714624825
5001.014011436181,14027.454566916093
5001.040019303464,13239.057969943186
5001.066027306,12516.799644733579
5001.092035443791,11920.10335998024
5001.118043716839,11675.812405601573
5001.1440521251425,11837.37865067144
5001.170060668704,12354.098948263592
5001.196069347523,12930.978645415436
5001.222078161601,13266.839088743822
5001.248087110937,13559.252801094444
5001.274096195534,13498.627214061875
5001.300105415392,13247.166574379837
5001.326114770512,12832.101107363473
5001.352124260892,11950.397782739275
5001.3781338865365,10819.061908250393
5001.4041436474445,9505.515377693853
5001.430153543616,8080.724282167397
5001.456163575053,7095.404366684807
5001.482173741756,6487.503203466678
5001.508184043724,6277.079938013912
5001.534194480961,6618.491896749529
5001.560205053464,7513.736420125493
5001.586215761236,8861.186302583505
5001.612226604278,10183.00018809974
5001.638237582589,11365.582556537303
5001.664248696171,12701.03832383915
5001.690259945024,13614.636529421206
5001.716271329149,14302.100937247427
5001.742282848547,14985.155164898746
5001.768294503218,15475.960673122025
5001.794306293164,15623.154426003093
5001.820318218383,15743.517063173895
5001.84633027888,15836.097345533513
5001.872342474651,16021.021663221465
5001.8983548056995,16122.01518910586
5001.924367272026,16057.379473197534
5001.9503798736305,15974.30343607826
5001.976392610514,16006.692357637447
5002.002405482678,16001.449418521948
5002.028418490122,15789.535493369749
5002.054431632847,15700.79289246136
5002.080444910854,15587.177017029322
5002.106458324142,15174.537647633997
5002.1324718727155,15227.840517724606
5002.158485556572,15061.787319683976
5002.184499375713,14839.622122822355
5002.210513330139,14565.487606704624
5002.236527419852,14533.883978677939
5002.262541644852,14190.956367491008
5002.288556005138,13576.417580396701
5002.314570500714,12922.625778778849
5002.340585131577,11854.576448544845
5002.36659989773,10693.197462574855
5002.392614799174,9906.088075125952
5002.418629835909,9430.209492389009
5002.444645007936,9519.107950302712
5002.4706603152545,10232.909607645328
5002.496675757866,11196.55932777642
5002.522691335772,12309.663271851601
5002.548707048972,13473.668085860561
5002.574722897468,14192.16582133433
5002.600738881259,15046.645394894173
5002.626755000347,15534.720794000286
5002.652771254732,15798.369863256972
5002.678787644415,15934.196492777499
5002.704804169397,16109.887799054968
5002.730820829678,16198.164873440986
5002.75683762526,16167.49714102768
5002.782854556142,16186.30460308795
5002.8088716223265,16196.78188234948
5002.834888823812,16187.874575103871
5002.860906160601,16158.85845491772
5002.886923632695,16125.89136849504
5002.912941240092,16250.921266373362
5002.938958982793,16145.481000114227
5002.9649768608015,16020.694074245208
5002.990994874116,15924.216537111297
5003.017013022737,15926.650939985466
5003.043031306666,15745.181665446224
5003.069049725905,15804.27527374586
5003.095068280452,15731.90510499502
5003.121086970309,15682.03429616427
5003.147105795477,15693.263902809242
5003.173124755956,15761.677507366452
5003.199143851748,15761.08702162618
5003.225163082852,15668.381255016926
5003.251182449269,15470.67414455309
5003.277201951001,15188.016917116931
5003.3032215880485,14722.45268039314
5003.32924136041,14078.931343566961
5003.35526126809,13679.46333217913
5003.381281311085,13511.270486371799
5003.407301489398,13565.07281917431
5003.433321803031,13908.362330278289
5003.459342251982,14236.261463357623
5003.4853628362525,14579.719838551766
5003.511383555844,14797.861209508761
5003.537404410757,14732.087702215924
5003.563425400991,14470.0188166403
5003.589446526548,14009.939199600849
5003.615467787429,13140.030709611618
5003.641489183634,12539.845333516354
5003.667510715163,12293.412349265871
5003.693532382018,12160.092787071047
5003.719554184199,12302.849919251197
5003.745576121707,12839.366860241105
5003.771598194542,13492.440865442357
5003.797620402706,13974.00410048623
5003.823642746199,14389.703221019929
5003.849665225021,14605.88922688828
5003.875687839174,14801.720678931684
5003.901710588658,14926.742559850743
5003.927733473473,14824.760356339146
5003.953756493622,14713.541003899487
5003.979779649103,14747.546718332856
5004.005802939919,14916.80030157879
5004.031826366068,15041.703645468979
5004.057849927553,15246.216745852322
5004.083873624375,15526.329255559995
5004.109897456533,15717.213785472079
5004.135921424028,15862.056375422871
5004.161945526862,15980.862600091796
5004.187969765035,16096.551337960113
5004.213994138547,16263.37191221607
5004.240018647399,16309.803166259422
5004.266043291592,16181.066643361039
5004.292068071127,16128.157586461559
5004.318092986004,16141.72118129572
5004.344118036223,16093.013546697975
5004.370143221788,16167.627195922514
5004.396168542696,15872.390004575665
5004.422193998949,16077.323327024245
5004.448219590549,15775.704547125417
5004.474245317495,15409.543948038807
5004.500271179789,15172.372152416383
5004.52629717743,15185.962366473961
5004.5523233104195,15120.192886065162
5004.578349578759,14952.175992059229
5004.604375982449,14799.58000951124
5004.630402521489,14486.266716211998
5004.656429195881,13962.020967751236
5004.682456005625,13144.73339255656
5004.708482950721,12028.885544301662
5004.734510031172,10877.842733659452
5004.760537246977,9815.566952563655
5004.7865645981365,9219.22363682843
5004.812592084652,9031.893941815808
5004.838619706525,9537.961286540143
5004.8646474637535,10260.575160479255
5004.890675356341,11452.30847717011
5004.916703384286,12489.089665424066
5004.942731547591,13547.13230486959
5004.968759846256,14209.619619125853
5004.994788280281,14654.928156370657
5005.020816849668,14772.96063839956
5005.046845554417,14771.534303907554
5005.072874394528,14809.872236121051
5005.098903370003,14658.154503321843
5005.124932480842,14209.608468909519
5005.150961727047,13618.636315043597
5005.176991108617,12981.21414335863
5005.203020625552,12127.593149275059
5005.229050277856,10945.070279423922
5005.255080065526,9669.592991042076
5005.281109988566,8377.795594774321
5005.3071400469735,7280.230934021443
5005.333170240751,6656.212641364116
5005.3592005699,6650.46011382257
5005.38523103442,6989.113119338233
5005.411261634312,7797.000532117828
5005.4372923695755,8808.793441019136
5005.463323240213,9789.561728065828
5005.489354246225,10652.44203372699
5005.515385387611,11155.61903846826
5005.541416664373,11307.887613808436
5005.567448076511,10984.794878278799
5005.593479624025,10394.165952728776
5005.619511306918,9586.070007455077
5005.645543125189,8499.162803540425
5005.671575078838,7308.76891560629
5005.697607167867,6253.89362583221
5005.723639392277,5596.319948875241
5005.749671752068,5374.387816679228
5005.77570424724,5610.8874142886725
5005.8017368777955,6337.605022334524
5005.8277696437335,7394.551976166499
5005.853802545055,8482.819283995408
5005.879835581762,10020.52419178198
5005.905868753854,11341.78360014114
5005.931902061331,12645.625892516733
5005.957935504196,13567.829573332157
5005.983969082448,14340.522049511721
5006.010002796088,14897.800192484348
5006.036036645117,15255.752318920879
5006.062070629536,15651.85060041373
5006.088104749344,15854.669994121528
5006.114139004544,15834.57308998152
5006.140173395135,15869.473669492196
5006.166207921118,15893.806062894817
5006.192242582495,15897.254317992503
5006.218277379266,15935.182177651823
5006.244312311431,15891.65323313648
5006.270347378991,15828.579113988473
5006.296382581946,15689.18569737117
5006.322417920299,15782.340492114992
5006.348453394048,15671.254705089088
5006.374489003196,15631.821926119375
5006.400524747743,15462.888301293204
5006.426560627688,15619.374155689417
5006.452596643034,15636.860629473096
5006.47863279378,15472.743184219657
5006.504669079928,15396.081276888382
5006.530705501478,15237.874555523058
5006.556742058431,15112.401855394803
5006.582778750788,14971.708321688146
5006.608815578549,14686.515781053522
5006.634852541715,14408.482386589909
5006.660889640287,13871.760971895037
5006.686926874265,13073.176760588829
5006.71296424365,12171.144608589688
5006.739001748444,11036.271710164636
5006.765039388645,9673.517470966288
5006.791077164256,8210.202755939434
5006.817115075277,7147.065721260221
5006.843153121708,6225.235104758476
5006.869191303552,5819.666892097829
5006.895229620806,5816.289191191901
5006.921268073474,6431.054165559305
5006.947306661555,7440.552068906718
5006.97334538505,8709.812192064726
5006.999384243961,10113.971408915138
5007.025423238286,11436.307975352021
5007.051462368028,12623.98926801647
5007.077501633187,13662.270812637194
5007.103541033764,14461.706310134272
5007.129580569759,15075.199974241004
5007.155620241173,15379.722388989452
5007.181660048007,15601.16105547196
5007.207699990262,15806.239771895938
5007.233740067937,15755.187943388793
5007.259780281035,15556.372627987947
5007.285820629555,15308.497533648802
5007.311861113499,14815.208443407453
5007.337901732866,14341.075162857882
5007.363942487658,14313.49953938273
5007.389983377876,14335.524570977057
5007.41602440352,14725.814966107559
5007.442065564591,15252.657133915123
5007.468106861089,15606.985600847649
5007.494148293015,15939.356759886421
5007.520189860371,16068.5080246345
5007.546231563156,16238.947549491004
5007.572273401372,16506.38223024211
5007.598315375018,16455.41792841585
5007.624357484096,16513.91128232242
5007.650399728607,16508.26668080672
5007.676442108551,16496.00651861937
5007.702484623929,16405.41317070463
5007.728527274741,16315.723681953947
5007.754570060989,16464.400368284438
5007.780612982673,16595.192395009548
5007.806656039793,16559.992057697542
5007.832699232351,16604.24622690341
5007.858742560347,16722.78754346004
5007.884786023782,16790.468400208167
5007.910829622656,16835.985422001224
5007.936873356971,16879.16245131194
5007.962917226726,16825.29927026518
5007.988961231923,16763.052305809208
5008.015005372563,16843.799485372616
5008.041049648646,16742.296760964306
5008.067094060171,16787.33820938841
5008.0931386071425,16766.943013083594
5008.119183289558,16591.71602488486
5008.14522810742,16464.826919943513
5008.171273060728,16333.496861343385
5008.197318149483,16162.44680449718
5008.223363373687,15770.024535484019
5008.249408733339,15564.261240940696
5008.27545422844,15493.18901805736
5008.301499858992,15496.454664899915
5008.327545624995,15626.143268024009
5008.353591526448,15878.75397117608
5008.379637563355,16167.598933384672
5008.405683735714,16376.293003368208
5008.431730043527,16569.293787306782
5008.457776486794,16704.666967963713
5008.483823065515,16652.172357872118
5008.509869779693,16618.69335819686
5008.535916629327,16628.049486109132
5008.561963614418,16477.28418793237
5008.588010734968,16387.844533222247
5008.614057990975,16414.575464955622
5008.640105382442,16596.86709828446
5008.666152909369,16480.604019811766
5008.692200571756,16723.867784497274
5008.718248369605,16688.977249086856
5008.744296302916,16580.799774560262
5008.77034437169,16598.304220025413
5008.796392575927,16704.48040068195
5008.822440915628,16662.109165131016
5008.848489390794,16673.25655632536
5008.874538001426,16723.69004505155
5008.900586747524,16777.692567513026
5008.926635629089,16637.430896692713
5008.952684646122,16549.417566105527
5008.978733798623,16669.074982073053
5009.004783086593,16671.350969740837
5009.030832510033,16496.21932530758
5009.056882068944,16340.056032430877
5009.082931763326,16295.273518991586
5009.108981593179,16299.51964094335
5009.135031558506,16256.217477555874
5009.161081659306,15971.47880347088
5009.187131895579,15883.402420940452
5009.213182267327,15679.758931426353
5009.239232774552,15392.73734394914
5009.265283417251,15021.663803568434
5009.291334195428,15001.198305866294
5009.317385109083,15087.473927961206
5009.343436158216,15357.491866554841
5009.369487342828,15679.135843793807
5009.395538662919,15721.460666192932
5009.421590118491,15832.851940758035
5009.447641709544,15861.949893998788
5009.473693436078,15931.220177366169
5009.499745298095,15782.626589465146
5009.525797295596,15546.717502371192
5009.55184942858,15190.177931953302
5009.577901697049,14611.66592479169
5009.603954101003,13824.259563255331
5009.630006640443,13074.154212053176
5009.65605931537,12633.107487198522
5009.682112125784,12313.493919989452
5009.708165071686,11948.771698476403
5009.7342181530785,11581.262381522034
5009.760271369959,11092.667545187092
5009.78632472233,10285.966944741152
5009.812378210192,9669.644940593767
5009.838431833546,9373.458420604631
5009.864485592391,9519.020729229796
5009.890539486731,10114.871041691305
5009.916593516564,11083.874769413034
5009.942647681891,12214.805184636376
5009.968701982713,13109.73359833691
5009.994756419032,14128.655878617446
5010.020810990847,14927.648342831297
5010.046865698159,15413.27940696259
5010.072920540969,15948.803477946187
5010.098975519279,16126.6845659398
5010.125030633087,16475.67932849724
5010.151085882395,16688.4037300999
5010.177141267204,16808.765058356326
5010.2031967875155,16674.181444451704
5010.229252443328,16607.45233040014
5010.255308234644,16738.091927710255
5010.281364161464,16683.288910241958
5010.307420223788,16578.277399209215
5010.333476421617,16518.16014670862
5010.359532754951,16387.222329617718
5010.3855892237925,16166.938951253449
5010.4116458281405,15859.25314719867
5010.437702567997,15491.324853616961
5010.463759443362,14792.767711223798
5010.489816454236,13801.716991623887
5010.51587360062,13071.955468693148
5010.541930882514,12314.785547998317
5010.56798829992,11988.728205005827
5010.5940458528385,12181.658970494835
5010.62010354127,12731.841439782058
5010.646161365214,13627.649906303306
5010.672219324672,14435.640454529053
5010.698277419646,14964.808020614017
5010.724335650135,15643.60554297738
5010.7503940161405,16106.41707229645
5010.7764525176635,16532.830977880232
5010.802511154703,16582.323879968968
5010.828569927262,16489.462921008737
5010.85462883534,16500.809857175544
5010.880687878937,16539.83594806119
5010.906747058056,16681.148809593924
5010.932806372695,16628.908530542707
5010.958865822856,16511.424634358827
5010.98492540854,16590.933242448613
5011.0109851297475,16708.43593188114
5011.0370449864795,16817.77763913915
5011.063104978735,16800.579363639994
5011.089165106517,16730.93867230268
5011.115225369825,16691.694053601455
5011.14128576866,16532.269465360907
5011.167346303022,16450.943965510858
5011.193406972913,16262.966342069083
5011.219467778333,15993.63440908495
5011.2455287192815,15610.668109481809
5011.271589795761,15347.0426505074
5011.297651007772,14862.412491388928
5011.323712355315,14354.834729130898
5011.34977383839,13920.57651662232
5011.375835456999,13484.927133236859
5011.401897211142,13282.842337022536
5011.427959100819,13463.703061104065
5011.454021126031,13134.04469653304
5011.4800832867795,13014.312675847312
5011.506145583065,12663.39587407565
5011.532208014888,11892.406538843936
5011.558270582248,10847.030455808037
5011.584333285148,9529.348270432316
5011.610396123588,8224.275232990298
5011.636459097567,7025.682326677318
5011.662522207088,5934.665241722808
5011.68858545215,5243.055759396061
5011.714648832754,4942.774421079761
5011.740712348902,5036.582263318805
5011.766776000594,5657.304263583475
5011.79283978783,6645.481781369267
5011.818903710611,7898.195374290481
5011.844967768939,9218.373139041287
5011.871031962813,10424.241848990883
5011.897096292234,11548.482073523219
5011.923160757203,12379.389493811623
5011.949225357721,12736.328316719651
5011.975290093788,12581.890595125895
5012.001354965406,12099.217565162873
5012.027419972574,11482.88545053713
5012.053485115294,10901.632507743872
5012.079550393566,10718.374841640112
5012.105615807392,10881.924543888703
5012.13168135677,11522.981624199885
5012.157747041703,12336.587339017582
5012.183812862192,13199.139034664842
5012.209878818236,13579.069023001734
5012.235944909837,13749.005234522605
5012.262011136994,13658.339775060547
5012.28807749971,13389.2922799594
5012.3141439979845,13099.761808143392
5012.340210631818,13129.552273434327
5012.366277401212,13466.142327250938
5012.392344306166,13919.87455953512
5012.418411346682,14465.299244296943
5012.44447852276,15163.16296090721
5012.470545834401,15661.367010096388
5012.496613281605,15877.433119552781
5012.522680864374,16061.91279868561
5012.548748582707,16145.259846705405
5012.574816436606,16178.857091738588
5012.600884426071,16223.269033005006
5012.626952551104,16182.834654685561
5012.653020811705,16145.138058312401
5012.679089207873,16136.933020571747
5012.705157739611,16128.069386493502
5012.73122640692,15974.100540870146
5012.757295209798,15840.28956828188
5012.7833641482475,15294.850261422214
5012.80943322227,14700.39202012388
5012.835502431864,13828.511309946884
5012.861571777033,12855.770674629413
5012.887641257775,11585.191748523774
5012.9137108740915,10811.184377195945
5012.939780625984,10365.675266832404
5012.965850513452,10215.753099333542
5012.991920536498,10873.791280374653
5013.017990695121,11598.08951651783
5013.044060989323,12368.58485088842
5013.070131419104,12923.019598187866
5013.096201984464,13162.397184125974
5013.122272685405,13144.690693537936
5013.148343521927,12887.381339001302
5013.17441449403,12204.043971330562
5013.200485601717,11243.480309343773
5013.226556844987,9947.5910019932
5013.2526282238405,8738.643683182143
5013.278699738279,7734.366212680899
5013.304771388303,7027.462182173514
5013.330843173913,6910.576173211622
5013.35691509511,7449.578267336315
5013.382987151894,8377.207593443
5013.409059344267,9415.797159371114
5013.435131672228,10516.326990405958
5013.46120413578,11594.119861835097
5013.487276734921,12431.832200223167
5013.513349469653,12996.086878036642
5013.539422339977,13531.135856767636
5013.565495345894,13803.89167939957
5013.5915684874035,14098.00128644608
5013.617641764507,14346.14904078653
5013.643715177206,14252.496843438106
5013.6697887254995,14026.737837342469
5013.695862409389,13402.549170878454
5013.721936228875,12580.230784911633
5013.748010183958,11330.43844728365
5013.77408427464,9948.77773403229
5013.800158500921,8649.419381067351
5013.826232862801,7521.403591452649
5013.852307360281,6653.167819140358
5013.8783819933615,6421.083421390029
5013.904456762045,6671.378378176012
5013.930531666329,7421.072759263475
5013.956606706218,8674.240034627526
5013.982681881709,9967.92164655402
5014.008757192805,11303.865492883764
5014.034832639507,12597.202083933085
5014.060908221814,13590.434315876806
5014.086983939728,14386.393579179514
5014.113059793249,14750.339391934229
5014.139135782378,15040.820981713907
5014.165211907116,15158.845373670996
5014.1912881674625,15110.062570842554
