wave,flux
5000.025812696027,9010.66814544871
5000.051815424163,9698.631031218993
5000.0778182875265,10748.447118213913
5000.103821286119,11544.444293088518
5000.12982441994,12324.296321489937
5000.155827688991,12954.365942781204
5000.181831093272,13317.698957201688
5000.207834632784,13429.669072637233
5000.2338383075285,13157.537747083412
5000.259842117506,12745.619428868422
5000.285846062716,12132.526783171472
5000.311850143161,11246.219238987136
5000.33785435884,10477.886288457525
5000.363858709754,10111.611782504597
5000.389863195905,10126.539938315214
5000.415867817292,10405.455690138886
5000.441872573917,10778.525900240957
5000.4678774657805,11325.075009848913
5000.493882492882,11736.595593657332
5000.519887655224,11869.558072551754
5000.545892952806,11997.210356249368
5000.571898385629,11966.053373674078
5000.597903953694,12073.151134168389
5000.623909657001,12289.112041231818
5000.649915495552,12479.523411136826
5000.675921469346,12898.269152213114
5000.701927578384,13427.82330319246
5000.727933822669,13821.098903646462
5000.7539402021985,14113.393736757529
5000.779946716975,14177.831367557153
5000.805953366999,14097.111670176026
5000.831960152272,14185.097132790894
5000.857967072792,14158.647864228891
5000.883974128563,14177.422750363234
5000.9099813195835,14018.32603997828
5000.935988645855,13911.319038936117
5000.961996107378,13705.292244564329
5000.988003704153,13426.12630241241
5001.014011436181,12973.910096131951
5001.040019303464,12287.342358119626
5001.066027306,11487.726703920305
5001.092035443791,10950.469513605933
5001.118043716839,10750.52940557592
5001.1440521251425,10845.561218202809
5001.170060668704,11328.988399512045
5001.196069347523,11877.834676085336
5001.222078161601,12167.52112769244
5001.248087110937,12456.735010355147
5001.274096195534,12623.10596953762
5001.300105415392,12160.475827654145
5001.326114770512,11725.557668766827
5001.352124260892,10994.950393797048
5001.3781338865365,9963.126233555116
5001.4041436474445,8766.623673033931
5001.430153543616,7657.908503363009
5001.456163575053,6596.473205086353
5001.482173741756,5910.393633770114
5001.508184043724,5817.41055167452
5001.534194480961,6164.085527009238
5001.560205053464,6950.927238182334
5001.586215761236,8067.867536919696
5001.612226604278,9285.10276384187
5001.638237582589,10610.418308736378
5001.664248696171,11643.30880467558
5001.690259945024,12691.126274803251
5001.716271329149,13136.596056208982
5001.742282848547,13813.802503040028
5001.768294503218,14004.519933183792
5001.794306293164,14362.141143727798
5001.820318218383,14637.06000182995
5001.84633027888,14679.862560538324
5001.872342474651,14817.078178110205
5001.8983548056995,14869.552161033796
5001.924367272026,14852.880058789291
5001.9503798736305,14823.912711111998
5001.976392610514,14726.322078634432
5002.002405482678,14689.815504121474
5002.028418490122,14598.878248121962
5002.054431632847,14450.234408416183
5002.080444910854,14445.30533542494
5002.106458324142,14065.387384284359
5002.1324718727155,13975.122915881713
5002.158485556572,13916.010430725624
5002.184499375713,13688.296947879515
5002.210513330139,13524.076840833231
5002.236527419852,13324.073714011189
5002.262541644852,12949.844511951833
5002.288556005138,12509.559729930803
5002.314570500714,11834.549306198322
5002.340585131577,10915.858079616291
5002.36659989773,9853.728733113838
5002.392614799174,8965.444367954082
5002.418629835909,8581.810590810273
5002.444645007936,8736.039102809156
5002.4706603152545,9440.320453801098
5002.496675757866,10347.013986867587
5002.522691335772,11252.472918240019
5002.548707048972,12384.309891141691
5002.574722897468,13172.238109516311
5002.600738881259,13768.105534849446
5002.626755000347,14238.859844140581
5002.652771254732,14560.769084040698
5002.678787644415,14849.159579110534
5002.704804169397,14836.834693830782
5002.730820829678,14782.34913531031
5002.75683762526,14969.506630433036
5002.782854556142,15006.020832008291
5002.8088716223265,14939.21485184005
5002.834888823812,14939.106607053549
5002.860906160601,14868.823368925427
5002.886923632695,14909.622229486184
5002.912941240092,15003.227014643438
5002.938958982793,14960.990213359464
5002.9649768608015,14838.22123019729
5002.990994874116,14756.530937613521
5003.017013022737,14612.77230875717
5003.043031306666,14477.196014160943
5003.069049725905,14540.285457766637
5003.095068280452,14659.877151312267
5003.121086970309,14559.945964583943
5003.147105795477,14593.897437214517
5003.173124755956,14682.416390684843
5003.199143851748,14586.506450055114
5003.225163082852,14451.770721535793
5003.251182449269,14328.027020232765
5003.277201951001,14038.50598403456
5003.3032215880485,13525.396200638928
5003.32924136041,12966.652431130668
5003.35526126809,12596.787303019619
5003.381281311085,12443.65682038115
5003.407301489398,12569.773105408754
5003.433321803031,12734.53987227713
5003.459342251982,13153.043048898977
5003.4853628362525,13366.287453678187
5003.511383555844,13678.049664199261
5003.537404410757,13563.257043197043
5003.563425400991,13355.773537984387
5003.589446526548,12854.198582920148
5003.615467787429,12125.950547152554
5003.641489183634,11522.668464097356
5003.667510715163,11215.969918294692
5003.693532382018,11209.992744577374
5003.719554184199,11429.896311964314
5003.745576121707,11849.534603826658
5003.771598194542,12377.853714205849
5003.797620402706,12845.6673990737
5003.823642746199,13207.443422166196
5003.849665225021,13340.943119031264
5003.875687839174,13616.17257638992
5003.901710588658,13790.617465199683
5003.927733473473,13625.344967398876
5003.953756493622,13498.076544942218
5003.979779649103,13618.337822251018
5004.005802939919,13675.494623965258
5004.031826366068,13831.169797215824
5004.057849927553,14115.805038385264
5004.083873624375,14331.88183432766
5004.109897456533,14565.24363557782
5004.135921424028,14683.067729729732
5004.161945526862,14755.173347778882
5004.187969765035,14903.413386542654
5004.213994138547,14968.859994586495
5004.240018647399,14957.235413036407
5004.266043291592,14979.887421614081
5004.292068071127,15073.80651348943
5004.318092986004,15096.22055553705
5004.344118036223,14881.934122867082
5004.370143221788,14761.40093371043
5004.396168542696,14841.01234500395
5004.422193998949,14757.24068053585
5004.448219590549,14337.407524204898
5004.474245317495,14175.752297135425
5004.500271179789,13949.883500815833
5004.52629717743,13861.185367001346
5004.5523233104195,13727.346147349448
5004.578349578759,13614.998409553515
5004.604375982449,13515.078654469498
5004.630402521489,13307.428030745696
5004.656429195881,12837.987320815175
5004.682456005625,11999.331808594094
5004.708482950721,10955.762112930704
5004.734510031172,9915.737445523848
5004.760537246977,9020.449746325052
5004.7865645981365,8423.181996717001
5004.812592084652,8301.221580896568
5004.838619706525,8791.861708749391
5004.8646474637535,9535.179815450914
5004.890675356341,10498.826248576184
5004.916703384286,11638.570523860473
5004.942731547591,12584.153334626822
5004.968759846256,13112.190967562634
5004.994788280281,13448.94315630843
5005.020816849668,13723.961266876324
5005.046845554417,13776.14085717225
5005.072874394528,13723.528992518413
5005.098903370003,13505.404976133235
5005.124932480842,13073.95549592745
5005.150961727047,12655.746297321812
5005.176991108617,12073.75037013057
5005.203020625552,11095.221948230865
5005.229050277856,10043.139978180345
5005.255080065526,8961.505140254583
5005.281109988566,7729.07175540688
5005.3071400469735,6753.204840707348
5005.333170240751,6127.046855917003
5005.3592005699,6054.148849415348
5005.38523103442,6446.233889357824
5005.411261634312,7204.41914094222
5005.4372923695755,8134.485052856395
5005.463323240213,9118.575355914432
5005.489354246225,9845.36539950157
5005.515385387611,10320.49817802367
5005.541416664373,10443.73146274462
5005.567448076511,10256.205506578961
5005.593479624025,9657.043180667104
5005.619511306918,8776.636249012456
5005.645543125189,7798.94658453464
5005.671575078838,6755.419788396784
5005.697607167867,5810.443629361717
5005.723639392277,5149.784382175319
5005.749671752068,4957.082572182476
5005.77570424724,5192.965437861771
5005.8017368777955,5751.996329464285
5005.8277696437335,6730.917641642889
5005.853802545055,7810.6882397569225
5005.879835581762,9280.31957778273
5005.905868753854,10521.525038359321
5005.931902061331,11539.895541668331
5005.957935504196,12434.746031639634
5005.983969082448,13242.394708720441
5006.010002796088,13692.230385924368
5006.036036645117,14081.105229129025
5006.062070629536,14396.773235778599
5006.088104749344,14534.797793206022
5006.114139004544,14630.601049081519
5006.140173395135,14570.955674354394
5006.166207921118,14507.120008319604
5006.192242582495,14545.680415963407
5006.218277379266,14484.29988775426
5006.244312311431,14433.773634432011
5006.270347378991,14384.924892144367
5006.296382581946,14463.144844683655
5006.322417920299,14391.528187028265
5006.348453394048,14306.058904098696
5006.374489003196,14422.519942551842
5006.400524747743,14357.565438255007
5006.426560627688,14350.217855054076
5006.452596643034,14183.34493178223
5006.47863279378,14314.043680266399
5006.504669079928,14228.493096167851
5006.530705501478,14001.523607458517
5006.556742058431,13902.858566703071
5006.582778750788,13759.954061473796
5006.608815578549,13543.614241477886
5006.634852541715,13252.946704818009
5006.660889640287,12813.69296894736
5006.686926874265,12143.09555794632
5006.71296424365,11242.485686125678
5006.739001748444,10134.300493420189
5006.765039388645,8884.262864218348
5006.791077164256,7669.210080032928
5006.817115075277,6508.861491491617
5006.843153121708,5736.417944450674
5006.869191303552,5359.044892178648
5006.895229620806,5331.305262781014
5006.921268073474,6072.870001747161
5006.947306661555,6878.015842400464
5006.97334538505,8071.332022568524
5006.999384243961,9412.882809637855
5007.025423238286,10611.57233353603
5007.051462368028,11619.290496537731
5007.077501633187,12644.167768825053
5007.103541033764,13433.636695596237
5007.129580569759,13944.660099738565
5007.155620241173,14327.887777470996
5007.181660048007,14590.711828829333
5007.207699990262,14672.960378275005
5007.233740067937,14572.886485057219
5007.259780281035,14291.183955499017
5007.285820629555,13957.41850905967
5007.311861113499,13630.278695043142
5007.337901732866,13285.354747551699
5007.363942487658,13219.158612574376
5007.389983377876,13284.037153695099
5007.41602440352,13604.737527642565
5007.442065564591,14066.61936988197
5007.468106861089,14461.929163635477
5007.494148293015,14619.502591948778
5007.520189860371,14947.329632056722
5007.546231563156,15043.32870454582
5007.572273401372,15168.850454721562
5007.598315375018,15133.192475513828
5007.624357484096,15089.71748494783
5007.650399728607,15159.024321324898
5007.676442108551,15251.340242558806
5007.702484623929,15135.911459290568
5007.728527274741,15160.55261330719
5007.754570060989,15280.628309974116
5007.780612982673,15321.091588893249
5007.806656039793,15271.614176648438
5007.832699232351,15263.434969841079
5007.858742560347,15442.860237626646
5007.884786023782,15533.187867097262
5007.910829622656,15458.85715843608
5007.936873356971,15327.373489257998
5007.962917226726,15509.484207812977
5007.988961231923,15405.38385610822
5008.015005372563,15431.328054410113
5008.041049648646,15437.440297467883
5008.067094060171,15428.274196980306
5008.0931386071425,15314.450100781287
5008.119183289558,15288.15388317585
5008.14522810742,15189.014635124895
5008.171273060728,15126.57761930408
5008.197318149483,14738.819626477458
5008.223363373687,14559.58864554653
5008.249408733339,14353.97607821095
5008.27545422844,14270.049159541239
5008.301499858992,14401.750924724885
5008.327545624995,14612.63486515666
5008.353591526448,14804.18336373792
5008.379637563355,14950.369140557483
5008.405683735714,15091.876363099724
5008.431730043527,15184.072141531686
5008.457776486794,15237.605369496812
5008.483823065515,15247.602348900604
5008.509869779693,15179.636445965232
5008.535916629327,15288.423006227462
5008.561963614418,15388.7474260526
5008.588010734968,15198.549855324074
5008.614057990975,15138.074030302963
5008.640105382442,15231.312023212568
5008.666152909369,15215.237095369603
5008.692200571756,15233.78427630273
5008.718248369605,15461.412863432135
5008.744296302916,15428.708925294772
5008.77034437169,15396.551060594547
5008.796392575927,15373.304524304769
5008.822440915628,15315.305841187324
5008.848489390794,15314.044540414843
5008.874538001426,15421.923111667278
5008.900586747524,15516.08318494
5008.926635629089,15489.577658403312
5008.952684646122,15421.619097996247
5008.978733798623,15403.298566035799
5009.004783086593,15349.398305155697
5009.030832510033,15213.692946195957
5009.056882068944,15016.356280311626
5009.082931763326,14958.074288800964
5009.108981593179,15159.319392617926
5009.135031558506,15022.942516664134
5009.161081659306,14771.618630907547
5009.187131895579,14751.721124659633
5009.213182267327,14295.007332510542
5009.239232774552,14113.328392337547
5009.265283417251,13930.692145511177
5009.291334195428,13824.21015719306
5009.317385109083,13957.46950367531
5009.343436158216,14172.815800363936
5009.369487342828,14389.221276503355
5009.395538662919,14422.682280373387
5009.421590118491,14618.568548745863
5009.447641709544,14697.108310927602
5009.473693436078,14676.81852885783
5009.499745298095,14656.65921498844
5009.525797295596,14373.701090523207
5009.55184942858,13879.076635580093
5009.577901697049,13391.467708118289
5009.603954101003,12820.6699780398
5009.630006640443,12146.622410429334
5009.65605931537,11510.935980410706
5009.682112125784,11210.668004893789
5009.708165071686,11088.833919366283
5009.7342181530785,10625.8616828283
5009.760271369959,10130.034391008254
5009.78632472233,9506.762907778173
5009.812378210192,9017.863132661234
5009.838431833546,8607.235616035203
5009.864485592391,8775.93491307102
5009.890539486731,9309.580766385214
5009.916593516564,10125.99868148548
5009.942647681891,11308.81694784431
5009.968701982713,12223.937343510086
5009.994756419032,13107.500015138776
5010.020810990847,13846.029311873055
5010.046865698159,14197.352002836116
5010.072920540969,14676.965558541597
5010.098975519279,15022.703853568342
5010.125030633087,15140.140732771606
5010.151085882395,15339.980587367489
5010.177141267204,15436.640980742752
5010.2031967875155,15315.397644172748
5010.229252443328,15264.146120416099
5010.255308234644,15344.994173878393
5010.281364161464,15312.721782023724
5010.307420223788,15195.601026491167
5010.333476421617,15210.529972159235
5010.359532754951,15096.437824401104
5010.3855892237925,14801.53897742181
5010.4116458281405,14592.52947631405
5010.437702567997,14058.462215793208
5010.463759443362,13505.079915544577
5010.489816454236,12893.707821834298
5010.51587360062,11936.384898376273
5010.541930882514,11465.151640548476
5010.56798829992,11020.845908624804
5010.5940458528385,11274.518992817675
5010.62010354127,11642.145399290252
5010.646161365214,12425.494406602475
5010.672219324672,13273.498717933777
5010.698277419646,13976.979911489601
5010.724335650135,14457.910824841956
5010.7503940161405,14854.331744312001
5010.7764525176635,15104.619813926116
5010.802511154703,15169.028355931549
5010.828569927262,15159.33097036552
5010.85462883534,15256.3157333284
5010.880687878937,15310.013820247435
5010.906747058056,15182.002936930532
5010.932806372695,15301.394372863248
5010.958865822856,15345.335535677488
5010.98492540854,15366.71582689296
5011.0109851297475,15491.834311399887
5011.0370449864795,15409.21410485162
5011.063104978735,15389.698868501833
5011.089165106517,15381.978623162919
5011.115225369825,15406.206138600783
5011.14128576866,15213.851697154787
5011.167346303022,15026.431897017512
5011.193406972913,14905.90913119585
5011.219467778333,14819.502476920303
5011.2455287192815,14422.37685122549
5011.271589795761,13964.526083802508
5011.297651007772,13891.296333656885
5011.323712355315,13349.920927003272
5011.34977383839,12950.534530775483
5011.375835456999,12525.75505055187
5011.401897211142,12340.598420271248
5011.427959100819,12365.807352230828
5011.454021126031,12223.49819537743
5011.4800832867795,12005.940279654085
5011.506145583065,11522.548836022595
5011.532208014888,10924.59083246965
5011.558270582248,9894.689173527537
5011.584333285148,8807.290111166203
5011.610396123588,7596.463097147878
5011.636459097567,6347.971200401325
5011.662522207088,5462.889752804965
5011.68858545215,4878.360092375773
5011.714648832754,4601.761922339173
5011.740712348902,4754.622891241909
5011.766776000594,5305.091378884578
5011.79283978783,6174.300518614956
5011.818903710611,7268.195894308997
5011.844967768939,8541.48046251709
5011.871031962813,9704.529799687978
5011.897096292234,10631.584530729324
5011.923160757203,11410.116649303314
5011.949225357721,11592.406319429587
5011.975290093788,11541.439913799553
5012.001354965406,11218.461478486764
5012.027419972574,10566.913106952503
5012.053485115294,10053.702300344745
5012.079550393566,9935.998692381694
5012.105615807392,10070.157252127856
5012.13168135677,10726.837064499887
5012.157747041703,11389.123202795483
5012.183812862192,12106.483964386993
5012.209878818236,12662.258295385369
5012.235944909837,12659.963271919916
5012.262011136994,12556.985965236274
5012.28807749971,12331.933753466
5012.3141439979845,12064.082219765249
5012.340210631818,12132.879192433806
5012.366277401212,12485.239879939738
5012.392344306166,13000.810623386309
5012.418411346682,13515.41591400289
5012.44447852276,13950.430751736516
5012.470545834401,14313.253875829878
5012.496613281605,14592.917634164465
5012.522680864374,14749.434896938808
5012.548748582707,14915.907271531061
5012.574816436606,14991.454260603252
5012.600884426071,14912.17076392268
5012.626952551104,14974.66102484709
5012.653020811705,14935.841002285351
5012.679089207873,14932.980086880563
5012.705157739611,15000.942868021311
5012.73122640692,14756.888640455121
5012.757295209798,14594.936317666088
5012.7833641482475,14114.31804450726
5012.80943322227,13492.063544623086
5012.835502431864,12681.813739016286
5012.861571777033,11842.00441096048
5012.887641257775,10791.245725303705
5012.9137108740915,10034.437161087186
5012.939780625984,9647.2819956455
5012.965850513452,9547.212613556227
5012.991920536498,10006.988480692577
5013.017990695121,10596.641381599084
5013.044060989323,11279.460864413808
5013.070131419104,11837.363748539012
5013.096201984464,12236.404702425332
5013.122272685405,12260.361373417201
5013.148343521927,11827.777275061813
5013.17441449403,11212.637725260896
5013.200485601717,10385.18404814287
5013.226556844987,9271.589212455905
5013.2526282238405,8137.357384663251
5013.278699738279,7183.5716682697175
5013.304771388303,6575.487919235614
5013.330843173913,6468.023402120134
5013.35691509511,6838.426644038989
5013.382987151894,7712.030474808753
5013.409059344267,8742.73222665414
5013.435131672228,9728.544974362076
5013.46120413578,10755.318833888587
5013.487276734921,11469.917104520824
5013.513349469653,11998.426649826532
5013.539422339977,12446.928193646825
5013.565495345894,12730.750199896458
5013.5915684874035,12958.234774410395
5013.617641764507,13152.358381895858
5013.643715177206,13192.055005642405
5013.6697887254995,12947.643228963829
5013.695862409389,12473.043782347833
5013.721936228875,11595.831809512738
5013.748010183958,10535.59365492794
5013.77408427464,9217.973044761753
5013.800158500921,7943.572830249493
5013.826232862801,6863.69000583205
5013.852307360281,6202.745000856964
5013.8783819933615,5953.753429216132
5013.904456762045,6213.017624763581
5013.930531666329,6806.127976545448
5013.956606706218,7996.684517335606
5013.982681881709,9306.5089153013
5014.008757192805,10433.539895473885
5014.034832639507,11557.941346762065
5014.060908221814,12598.200820088685
5014.086983939728,13244.973624014343
5014.113059793249,13614.83828499145
5014.139135782378,13792.11235843089
5014.165211907116,13880.728205958436
5014.1912881674625,13930.94949131511
