wave,flux
4450.003811362098,6254.6509970954685
4450.026953690486,5524.700715450323
4450.050096139227,4950.252167161813
4450.073238708321,4445.845579147606
4450.096381397769,3968.1171329720355
4450.119524207569,3506.211691128708
4450.142667137726,3190.9814057343096
4450.165810188237,3242.241885392607
4450.188953359103,3489.630126271049
4450.212096650326,4075.239465437126
4450.2352400619075,4887.064820520748
4450.258383593846,5860.3622340355405
4450.281527246142,6651.01020989963
4450.304671018797,7535.0828262001305
4450.327814911813,8006.618919533852
4450.350958925188,8186.258524662315
4450.374103058924,8058.108844353783
4450.3972473130225,8224.79743775926
4450.420391687483,8430.134239094217
4450.443536182305,8850.633884577623
4450.466680797492,9185.898710125215
4450.489825533042,9583.5081807165
4450.512970388957,9770.477909524592
4450.536115365237,9693.474965715868
4450.559260461882,9894.3883258308
4450.582405678895,10515.054233680952
4450.605551016274,11335.621510805193
4450.628696474022,12323.622069919973
4450.651842052138,13357.604881434718
4450.674987750623,13997.57354813804
4450.698133569476,14554.937578630648
4450.721279508702,15150.684560268193
4450.744425568297,15429.744384857822
4450.767571748264,15648.492567326877
4450.790718048604,15761.334123209946
4450.813864469315,15909.483257058271
4450.837011010401,15977.710722471558
4450.86015767186,15789.361071651161
4450.883304453694,15702.361959054751
4450.906451355903,15519.698547786622
4450.929598378489,15533.076805986366
4450.95274552145,15167.26322682192
4450.975892784789,14947.98962842399
4450.999040168505,14682.72528833799
4451.022187672601,14591.351967280227
4451.045335297074,14229.3566700668
4451.068483041929,14447.514598067226
4451.091630907163,13374.077236437079
4451.114778892777,11958.48827780708
4451.137926998774,10782.469346888212
4451.161075225153,9446.171538503335
4451.184223571914,8099.518476115077
4451.207372039059,7083.863161724505
4451.230520626587,6459.486834218463
4451.253669334501,6146.360832883587
4451.2768181628,6523.22295324559
4451.299967111485,7586.733635379341
4451.323116180556,8769.739662418386
4451.346265370014,10055.294724110296
4451.369414679861,11307.779869013739
4451.392564110095,12670.901496317196
4451.415713660719,13592.129727061967
4451.438863331732,14151.277146078271
4451.462013123136,14677.386565159408
4451.48516303493,14848.13743631804
4451.508313067117,14652.505000424278
4451.531463219695,14419.690817450179
4451.554613492666,14037.855481573639
4451.577763886031,13306.521373698219
4451.60091439979,12381.83712063214
4451.624065033943,11537.988054324489
4451.647215788492,11069.037841531937
4451.670366663436,10739.816960268918
4451.693517658777,11043.046510357884
4451.716668774516,11376.699452507706
4451.739820010652,11759.888735678513
4451.762971367186,12398.022166475997
4451.78612284412,13091.683371769273
4451.8092744414525,13793.070878059687
4451.832426159187,14453.238295338759
4451.855577997321,14990.519571869672
4451.878729955857,15217.712543130943
4451.901882034796,15408.475275944342
4451.925034234137,15612.649220466135
4451.948186553881,15653.905635473795
4451.97133899403,15993.84350378532
4451.994491554583,16005.681062900316
4452.017644235542,15936.25005888308
4452.040797036907,15886.429666622435
4452.063949958678,15758.181988440045
4452.087103000857,15766.613600788896
4452.1102561634425,15458.712903828928
4452.133409446437,15036.178624156071
4452.156562849841,14699.826059847303
4452.179716373655,14148.637971764132
4452.202870017878,13554.197528645138
4452.226023782513,13023.485893767262
4452.24917766756,12584.49322283588
4452.272331673018,11969.385328555569
4452.29548579889,11457.860038464509
4452.318640045174,11122.316706987824
4452.341794411874,10703.786563504458
4452.364948898987,10347.814029547459
4452.388103506516,10175.17271260895
4452.4112582344615,10317.166319054562
4452.434413082823,10836.038299544098
4452.457568051602,11516.195694412132
4452.480723140799,12275.459916343581
4452.503878350413,12975.58313654265
4452.527033680448,13399.526406166757
4452.550189130902,13550.34193645821
4452.5733447017765,13349.997469332606
4452.596500393071,12770.752615225185
4452.619656204789,12003.203649781894
4452.642812136928,11333.244910522579
4452.66596818949,11052.981800455282
4452.689124362475,11030.548674722417
4452.7122806558855,11399.335031608232
4452.735437069719,11955.894850777002
4452.7585936039795,12418.388918325676
4452.781750258665,12969.062343538102
4452.804907033777,13187.181525598
4452.828063929317,13184.023407275077
4452.851220945285,12832.17200723988
4452.87437808168,12552.52263141031
4452.897535338506,11904.6459156902
4452.92069271576,10835.486716828967
4452.943850213445,9927.956067587547
4452.967007831562,9455.800873798275
4452.99016557011,9088.986894379055
4453.01332342909,9585.09138541607
4453.036481408502,10341.0688335276
4453.059639508349,11349.997089352846
4453.08279772863,12604.697610172887
4453.105956069345,13591.49621823998
4453.129114530496,14099.42622853296
4453.152273112083,14435.981773409652
4453.175431814107,14599.452922870429
4453.198590636567,14752.193823012756
4453.221749579466,14853.118716134357
4453.244908642802,14654.86062596712
4453.268067826579,14357.406507193142
4453.291227130795,13992.51669872691
4453.314386555451,13276.675042189503
4453.337546100549,12592.209033083436
4453.360705766087,11962.357155204088
4453.3838655520685,11966.261738578476
4453.407025458493,12386.979623259484
4453.430185485361,12787.036543790153
4453.453345632673,13397.579239680128
4453.476505900429,14028.105063051335
4453.4996662886315,14418.457936702767
4453.52282679728,14667.945369649677
4453.545987426375,15008.886509333872
4453.569148175917,15059.207336550866
4453.592309045907,15250.994140086725
4453.615470036346,15656.787696611875
4453.638631147233,15414.8005056544
4453.661792378571,15424.925885745266
4453.684953730359,15579.057579658915
4453.708115202598,15633.54773299569
4453.731276795288,15371.614017267042
4453.754438508431,15249.262915530604
4453.777600342027,15226.262815171154
4453.800762296077,15126.594405706355
4453.82392437058,14715.36562923885
4453.847086565538,14440.935772000501
4453.870248880952,13797.411344571972
4453.8934113168225,13258.567165526736
4453.916573873149,12317.246369629016
4453.939736549933,11194.972859445239
4453.962899347174,9731.755904084734
4453.986062264875,8463.312689347727
4454.009225303034,7045.2448308295925
4454.032388461654,6000.797822340104
4454.055551740734,5562.934735030639
4454.078715140275,5860.1763981795375
4454.101878660277,6435.201364573335
4454.125042300742,7579.111380045575
4454.14820606167,8421.012897068054
4454.171369943061,9285.25337576589
4454.194533944917,9667.628873894451
4454.2176980672375,9707.79995111778
4454.240862310024,9273.75623563167
4454.264026673275,8652.498883050219
4454.287191156994,7695.6327119469615
4454.31035576118,6710.337223520096
4454.333520485834,5734.13765104068
4454.356685330957,4944.404615239764
4454.379850296548,4258.088931628124
4454.40301538261,3725.8354708229504
4454.426180589142,3384.301432736493
4454.449345916145,3254.038551486795
4454.4725113636205,3552.0112369790254
4454.495676931568,4187.166055462761
4454.5188426199875,4937.501537630658
4454.542008428882,5728.191018257578
4454.565174358249,6385.256015939252
4454.588340408092,6928.540859437474
4454.611506578411,7020.557610065685
4454.634672869205,6826.408482899768
4454.657839280476,6779.165497148549
4454.681005812225,6846.932038475258
4454.704172464451,7254.960497547145
4454.727339237156,8029.625922729198
4454.750506130341,9019.764956661422
4454.773673144005,10049.14403324566
4454.79684027815,10853.946711178423
4454.820007532776,11311.218327617124
4454.843174907884,11455.607190705383
4454.866342403473,11150.963947093387
4454.889510019546,10355.155133273789
4454.912677756102,9359.379441165187
4454.935845613144,8461.646929694847
4454.959013590669,7945.033703903075
4454.982181688681,7697.335330684088
4455.005349907178,8146.199954484736
4455.028518246162,9273.83385422489
4455.051686705633,10314.185338504298
4455.074855285593,11541.071847104478
4455.098023986041,12632.681125558891
4455.121192806979,13436.986113746329
4455.144361748406,14007.307002443513
4455.167530810323,14471.005650193496
4455.190699992732,14624.136662553432
4455.213869295633,14433.914425356628
4455.237038719026,13917.866865991582
4455.260208262912,13375.115409849
4455.283377927292,12725.281538623723
4455.306547712166,12246.400823729973
4455.329717617535,11933.356802307797
4455.352887643399,11441.200122678316
4455.37605778976,11008.721730801242
4455.399228056617,10130.866301808535
4455.422398443972,9328.906786395271
4455.445568951825,8172.134517689654
4455.468739580177,6870.118690817022
4455.491910329028,5824.538864401894
4455.515081198378,5202.238666877958
4455.538252188229,4760.072357680131
4455.561423298582,5027.686346010191
4455.584594529436,5386.8144611941125
4455.607765880793,6415.000208086234
4455.630937352652,7578.768684811906
4455.654108945016,8931.185262573328
4455.677280657883,10159.860851928684
4455.700452491255,11345.284322620606
4455.723624445134,12261.352983755769
4455.746796519518,12896.395054866185
4455.7699687144095,13326.670822896758
4455.793141029808,13835.88277939003
4455.816313465714,13868.3527537744
4455.83948602213,13924.874825303341
4455.862658699055,13766.662277213643
4455.885831496489,13513.297475800042
4455.909004414434,12560.232306772856
4455.932177452891,11538.605411926557
4455.955350611858,10639.104235501303
4455.978523891339,9316.362869567238
4456.001697291333,8606.206362134586
4456.024870811841,7989.721841731585
4456.048044452862,8004.998354485427
4456.071218214399,8592.360655722912
4456.094392096451,9284.25540266794
4456.117566099019,10207.78286551431
4456.140740222105,10733.863008499411
4456.163914465707,11063.543521468126
4456.187088829828,11055.735316005703
4456.210263314468,10522.544663654442
4456.233437919626,9514.612558167255
4456.256612645306,8511.633533104692
4456.279787491505,7891.819709956961
4456.302962458226,7704.867869074015
4456.326137545469,7793.301259611377
4456.349312753233,8620.787976160713
4456.372488081522,9815.915428546314
4456.395663530333,11023.13463790351
4456.41883909967,12121.687121418134
4456.442014789531,13139.16714730386
4456.465190599917,13827.306182583063
4456.488366530831,14192.528890576685
4456.5115425822705,14324.107418899259
4456.5347187542375,14198.685458319735
4456.557895046733,14058.005868192677
4456.581071459757,13893.359378707448
4456.604247993311,13676.195285448115
4456.627424647395,13256.22266070599
4456.650601422009,12729.806720641429
4456.673778317154,12232.001692166052
4456.696955332832,11950.031894826889
4456.720132469041,11946.91894936385
4456.7433097257845,12150.332279764854
4456.766487103061,12640.21442166742
4456.789664600872,13126.985975603879
4456.8128422192185,13606.73317463578
4456.8360199581,14100.11283506922
4456.859197817518,14168.161345940625
4456.882375797473,14169.88035840354
4456.905553897966,14106.351660449833
4456.928732118997,13788.292320363224
4456.951910460566,13322.626189590035
4456.975088922674,12413.972112359468
4456.998267505323,11345.44433983477
4457.021446208513,10151.050876622387
4457.044625032244,8826.939614961208
4457.067803976516,7696.938486674602
4457.090983041332,6886.205474258137
4457.1141622266905,6369.156844417933
4457.1373415325925,6286.946628704626
4457.160520959039,6497.637620681072
4457.183700506031,6807.174607125924
4457.206880173568,7436.221444196443
4457.230059961651,8396.646845476731
4457.2532398702815,9756.972032496196
4457.27641989946,11151.107425045435
4457.299600049186,12106.232167994067
4457.322780319461,13114.438991097071
4457.345960710286,13787.610480953372
4457.36914122166,14038.595953228192
4457.392321853586,14103.696467882497
4457.415502606062,13987.303869074685
4457.43868347909,13803.724839003342
4457.461864472672,13746.265862010148
4457.485045586805,13959.040529241634
4457.508226821494,14210.437798739065
4457.5314081767365,14070.100044569454
4457.554589652534,13975.462612194864
4457.577771248887,13696.435889569819
4457.600952965797,13222.89982061965
4457.624134803263,12588.778174596311
4457.647316761288,11842.133870734055
4457.67049883987,10945.001189868373
4457.693681039011,9953.707458732173
4457.716863358712,8921.748544294147
4457.7400457989725,8367.64207671937
4457.763228359793,8115.171542716435
4457.7864110411765,8083.014656435939
4457.809593843121,8490.562926238385
4457.832776765628,8653.47798313669
4457.855959808699,8448.23581000832
4457.879142972333,8309.745626958458
4457.902326256532,8172.935129107244
4457.925509661296,8464.308655014094
4457.948693186626,8959.222345126753
4457.971876832522,9827.55859269724
4457.995060598985,10819.27508005585
4458.018244486016,11908.649843490346
4458.041428493615,12492.96688141267
4458.0646126217825,12744.456246610367
4458.08779687052,12628.154717240795
4458.110981239827,11975.727690938875
4458.134165729705,11293.852074375292
4458.157350340155,10434.71655707849
4458.180535071177,9921.894874306961
4458.203719922771,9709.27333532178
4458.226904894938,10227.758064399004
4458.2500899876795,11155.076225184028
4458.273275200995,12211.114915178166
4458.296460534886,12913.961374769622
4458.3196459893525,13645.845683885429
4458.342831564396,14249.596318757003
4458.366017260016,14468.460575771911
4458.389203076214,14821.519980047913
4458.4123890129895,14732.591313677143
4458.435575070344,14541.749656176242
4458.458761248279,14473.685607753141
4458.481947546794,14146.45983827827
4458.505133965889,13720.557221573457
4458.528320505566,13104.341073411364
4458.551507165825,12392.116870645523
4458.574693946666,11659.54794790492
4458.597880848091,10539.143637492869
4458.6210678701,9248.716111968248
4458.644255012693,7914.031647863926
4458.6674422758715,6570.280845388505
4458.690629659636,5341.740795671442
4458.713817163986,4432.982161455936
4458.737004788924,3743.6492856954033
4458.76019253445,3393.325877225194
4458.783380400563,3437.493144004169
4458.8065683872655,3788.8853561815536
4458.829756494558,4290.744342577146
4458.85294472244,5065.450911900126
4458.876133070914,5938.739391041345
4458.899321539979,6869.564472633084
4458.922510129635,7571.837789753952
4458.945698839884,7834.433357356112
4458.968887670727,7888.591076269429
4458.992076622164,7930.149637981063
4459.015265694195,7819.8485065909645
4459.0384548868215,8456.26744026025
4459.061644200044,9380.214176837086
4459.084833633862,10387.674228618767
4459.108023188278,11553.048603016046
4459.131212863292,12812.257390620221
4459.154402658904,13795.012715507137
4459.177592575114,14200.062766660461
4459.200782611925,14666.066497948275
4459.223972769336,14968.998745219758
4459.247163047347,14798.937456739306
4459.27035344596,14929.737145231506
4459.293543965176,14689.076864495059
4459.316734604993,14360.842504147386
4459.339925365414,13510.727464711956
4459.363116246439,12714.776885024072
4459.386307248069,11989.691147826788
4459.409498370304,11691.514899255024
4459.432689613145,11738.050679315238
4459.455880976592,12027.591115268726
4459.479072460647,12511.543124444366
4459.502264065309,13082.529931832896
4459.52545579058,13540.639253346586
4459.5486476364595,14369.3147666285
4459.571839602949,14471.461784628906
4459.595031690048,14912.601289530154
4459.618223897759,14956.003549551264
4459.641416226081,14844.30858710302
4459.664608675014,14581.777407084892
4459.687801244561,14436.243405453306
4459.710993934721,13988.423466887543
4459.734186745496,13261.857756326934
4459.757379676885,12441.158715467236
4459.780572728889,11261.276932656896
4459.803765901509,9989.244965110443
4459.8269591947455,8704.473053229503
4459.850152608599,7445.906474820797
4459.87334614307,6555.571872505258
4459.89653979816,6189.292910982156
4459.91973357387,6207.224542851665
4459.942927470198,6664.216422416381
4459.966121487147,7185.508308619881
4459.989315624717,8163.07711886949
4460.0125098829085,9178.53943545602
4460.035704261722,10197.317119721149
4460.058898761158,11356.785319265962
4460.082093381218,12487.256664222848
4460.105288121902,13374.031028054327
4460.12848298321,13941.757011037338
4460.151677965145,14531.446459146222
4460.1748730677045,14905.54481681652
4460.198068290891,15242.338023916469
4460.221263634704,15345.554509510146
4460.244459099145,15409.099443063407
4460.267654684215,15525.40787117831
4460.290850389914,15416.431238999372
4460.314046216243,15441.990626008721
4460.337242163202,15580.843202332957
4460.360438230791,15351.06952071175
4460.383634419013,14929.800926691443
4460.406830727867,14675.005014082326
4460.430027157354,14471.221786408416
4460.453223707474,14480.544230993979
4460.476420378228,14487.735735742444
4460.499617169617,14519.39005119303
4460.522814081641,14672.386737531931
4460.5460111143,14771.48328262699
4460.569208267598,14529.014960735773
4460.592405541532,14267.318103951595
4460.615602936104,13841.44652784517
4460.638800451314,13009.90756290663
4460.661998087163,12109.072348840451
4460.685195843652,11023.304687256257
4460.708393720782,9740.628691115275
4460.731591718552,8552.883475564318
4460.754789836965,7434.714432131445
4460.777988076019,6518.628614892679
4460.801186435716,5954.61585787321
4460.824384916057,5613.127773865722
4460.847583517042,5299.456947805002
4460.870782238671,5396.175219353397
4460.893981080947,5829.568357558694
4460.917180043868,6370.404441471732
4460.940379127435,6955.57707731835
4460.963578331651,7362.321153620074
4460.986777656513,7527.439764672885
4461.009977102025,7313.506539450128
4461.033176668186,6820.334756063946
4461.056376354995,6278.047336725136
4461.079576162457,5856.400478175661
4461.102776090568,5799.4372346520795
4461.125976139332,5770.600421297192
4461.149176308748,6017.597541029066
4461.172376598816,6319.8474025707965
4461.195577009538,6249.583022157068
4461.218777540915,5960.771156102018
4461.241978192946,5491.367558296359
4461.265178965633,4863.023408880155
4461.2883798589755,4240.83041230677
4461.311580872974,3905.4036784905484
4461.3347820076315,3821.611350470468
4461.357983262946,4150.926130687753
4461.381184638919,4908.290956875539
4461.404386135551,5979.273662766719
4461.4275877528435,7229.98685406679
4461.4507894907965,8364.120894356409
4461.4739913494095,9370.031690103831
4461.497193328685,10123.019158292085
4461.520395428623,10212.622024053742
4461.543597649224,10133.376434184174
4461.566799990488,9538.197402541346
4461.590002452416,8303.994891723247
4461.61320503501,7226.363154994098
4461.636407738269,6416.300602632136
4461.659610562193,5911.492801573744
4461.682813506784,5949.037996718545
4461.706016572044,6521.9043554231885
4461.729219757971,7602.651758466147
4461.752423064566,8518.83327514887
4461.775626491831,9659.482049490849
4461.798830039766,10391.681328691926
4461.82203370837,11108.615129069336
4461.845237497647,11473.013365543235
4461.868441407595,11837.73061506073
4461.891645438215,11902.352701118085
4461.914849589509,12074.881635264468
4461.938053861475,12248.98754225597
4461.961258254117,12376.035584364598
4461.984462767433,11944.9633256631
4462.007667401424,11056.18792125916
4462.030872156092,10269.712574693533
4462.0540770314365,9024.957597893748
4462.077282027459,8320.74308871667
4462.100487144158,7794.772646308863
4462.123692381537,7775.214562952376
4462.146897739594,8605.58804551565
4462.170103218332,9473.459035527187
4462.19330881775,10756.250608628296
4462.21651453785,11795.326726649442
4462.239720378631,13095.101108556293
4462.262926340095,13556.001264922534
4462.286132422241,14005.061089044708
4462.309338625071,13866.260524047986
4462.3325449485865,14041.53747637401
4462.355751392785,14147.944470288652
4462.3789579576705,13922.695324934635
4462.402164643242,13524.062863959818
4462.4253714495,13759.71679417866
4462.448578376446,13760.383728890121
4462.471785424079,13686.723317564542
4462.494992592401,13616.080184933255
4462.518199881412,13314.990078459972
4462.541407291114,12681.000978889535
4462.564614821506,11700.653924160863
4462.587822472589,10547.22613988741
4462.611030244365,9255.734542930184
4462.634238136832,8385.08244175629
4462.657446149992,8109.404576886024
4462.680654283847,8297.32341543317
