wave,flux
4450.003811362098,5665.202609324755
4450.026953690486,5041.451358906825
4450.050096139227,4522.553749229931
4450.073238708321,3942.0608644549634
4450.096381397769,3448.019119878171
4450.119524207569,3107.377605072153
4450.142667137726,2882.8213488851798
4450.165810188237,2862.3275630353646
4450.188953359103,3199.0971122853825
4450.212096650326,3586.5720975825743
4450.2352400619075,4578.88127510782
4450.258383593846,5315.444253475499
4450.281527246142,6056.760974380614
4450.304671018797,6724.166339752747
4450.327814911813,7277.399665691138
4450.350958925188,7459.185952860261
4450.374103058924,7463.758113462211
4450.3972473130225,7351.3066878343225
4450.420391687483,7494.549095493851
4450.443536182305,7937.694739210432
4450.466680797492,8396.027584998887
4450.489825533042,8702.18036553013
4450.512970388957,8861.226024844229
4450.536115365237,8764.69786938131
4450.559260461882,9042.968477198327
4450.582405678895,9597.18001122087
4450.605551016274,10241.215223420331
4450.628696474022,11046.842496620768
4450.651842052138,11980.192304383463
4450.674987750623,12754.775971634992
4450.698133569476,13351.681239813748
4450.721279508702,13777.203530045605
4450.744425568297,14006.977399267054
4450.767571748264,14278.046869290049
4450.790718048604,14345.389020165538
4450.813864469315,14255.322483238333
4450.837011010401,14298.429034645933
4450.86015767186,14496.268087510567
4450.883304453694,14232.225102173941
4450.906451355903,14091.926775475287
4450.929598378489,13861.193201811366
4450.95274552145,13791.379795147039
4450.975892784789,13675.675706138618
4450.999040168505,13624.863440351728
4451.022187672601,13253.843662053807
4451.045335297074,12869.405440048351
4451.068483041929,12296.15644532111
4451.091630907163,11628.04896986132
4451.114778892777,10992.52374575854
4451.137926998774,10008.62849040899
4451.161075225153,8624.099172303786
4451.184223571914,7338.338314387121
4451.207372039059,6248.937373004979
4451.230520626587,5705.572660461158
4451.253669334501,5644.951108084965
4451.2768181628,5997.168387743317
4451.299967111485,6765.480187194474
4451.323116180556,7880.82842933461
4451.346265370014,9154.049927336555
4451.369414679861,10262.882465230803
4451.392564110095,11309.39920945711
4451.415713660719,12090.771255125655
4451.438863331732,12657.853429177654
4451.462013123136,13181.583065928678
4451.48516303493,13309.380023965452
4451.508313067117,13234.84221490562
4451.531463219695,13031.172985853545
4451.554613492666,12647.026662482791
4451.577763886031,12047.158871222638
4451.60091439979,11225.161140993687
4451.624065033943,10623.702194927202
4451.647215788492,9974.712997149778
4451.670366663436,9784.757576280337
4451.693517658777,9854.734769194505
4451.716668774516,10194.166901111083
4451.739820010652,10937.01035727958
4451.762971367186,11317.376115840158
4451.78612284412,11877.812382075574
4451.8092744414525,12420.39938528402
4451.832426159187,12942.253835454061
4451.855577997321,13548.333329531344
4451.878729955857,13899.28178588873
4451.901882034796,13968.680543747952
4451.925034234137,14287.298230058554
4451.948186553881,14260.39474154289
4451.97133899403,14269.072373033085
4451.994491554583,14558.090032199256
4452.017644235542,14299.4612666176
4452.040797036907,14249.998898051255
4452.063949958678,14302.72032005491
4452.087103000857,14234.681003955551
4452.1102561634425,13955.519683501454
4452.133409446437,13699.362735439536
4452.156562849841,13393.952105092096
4452.179716373655,12899.553546431454
4452.202870017878,12388.601599076961
4452.226023782513,11741.968884213784
4452.24917766756,11276.078754574683
4452.272331673018,10806.257483095918
4452.29548579889,10447.428956057842
4452.318640045174,10133.212056743056
4452.341794411874,9719.268418730951
4452.364948898987,9256.14094493692
4452.388103506516,9108.613164788103
4452.4112582344615,9376.935394712396
4452.434413082823,9804.511241058432
4452.457568051602,10390.288506125886
4452.480723140799,11063.890678453452
4452.503878350413,11797.59491348349
4452.527033680448,12252.884019468054
4452.550189130902,12201.518912270067
4452.5733447017765,12002.687158368686
4452.596500393071,11517.391426403496
4452.619656204789,10899.380636355092
4452.642812136928,10390.146720280043
4452.66596818949,10030.011764736324
4452.689124362475,9945.090539225448
4452.7122806558855,10349.205584465028
4452.735437069719,10829.002986444388
4452.7585936039795,11204.127037399941
4452.781750258665,11851.02096251192
4452.804907033777,11887.538835923124
4452.828063929317,11844.880163449061
4452.851220945285,11734.169277465282
4452.87437808168,11287.996052897524
4452.897535338506,10676.0398977325
4452.92069271576,10003.77275502848
4452.943850213445,9167.578966214109
4452.967007831562,8492.387771208305
4452.99016557011,8250.214570362366
4453.01332342909,8550.20110189333
4453.036481408502,9388.949942601446
4453.059639508349,10445.405366630506
4453.08279772863,11446.87629536051
4453.105956069345,12116.129955779084
4453.129114530496,12755.735553425566
4453.152273112083,13232.8542315542
4453.175431814107,13363.482020964979
4453.198590636567,13602.398029009826
4453.221749579466,13395.934556940958
4453.244908642802,13195.167641994705
4453.268067826579,13105.361910482665
4453.291227130795,12598.269505258659
4453.314386555451,11941.61329602391
4453.337546100549,11325.516419239826
4453.360705766087,10985.55313029906
4453.3838655520685,10950.349099773826
4453.407025458493,11155.812879316196
4453.430185485361,11656.224997948992
4453.453345632673,12196.955468603986
4453.476505900429,12619.640880447727
4453.4996662886315,13121.579054379632
4453.52282679728,13413.789265869145
4453.545987426375,13532.315886102604
4453.569148175917,13949.774455912057
4453.592309045907,14043.719368280756
4453.615470036346,13913.288283481685
4453.638631147233,14035.906056303955
4453.661792378571,14003.415306591016
4453.684953730359,14148.995322754738
4453.708115202598,14206.21871039974
4453.731276795288,14072.852266050088
4453.754438508431,13819.088279848942
4453.777600342027,13694.823465798901
4453.800762296077,13596.317438029244
4453.82392437058,13285.745065855888
4453.847086565538,12839.353764205407
4453.870248880952,12457.453258288326
4453.8934113168225,11918.785351236036
4453.916573873149,11180.689767547012
4453.939736549933,10098.396140069073
4453.962899347174,8783.573472388269
4453.986062264875,7681.558080606779
4454.009225303034,6478.959440631529
4454.032388461654,5540.157721615619
4454.055551740734,5138.823632022647
4454.078715140275,5405.291601916428
4454.101878660277,5996.636262500667
4454.125042300742,6728.647955809319
4454.14820606167,7590.020129159091
4454.171369943061,8492.70463917734
4454.194533944917,8821.373733025177
4454.2176980672375,8712.765452813044
4454.240862310024,8524.774203831768
4454.264026673275,7714.591321276945
4454.287191156994,6943.468350042409
4454.31035576118,6019.194678729011
4454.333520485834,5180.3846214493215
4454.356685330957,4467.252852938563
4454.379850296548,3807.0198429410716
4454.40301538261,3327.7202644457075
4454.426180589142,3083.4008133192433
4454.449345916145,3050.677164236006
4454.4725113636205,3192.4705248079486
4454.495676931568,3704.8028528167565
4454.5188426199875,4413.0104351369655
4454.542008428882,5160.352766702342
4454.565174358249,5810.281843462105
4454.588340408092,6283.805560678946
4454.611506578411,6416.19700581689
4454.634672869205,6284.383038844862
4454.657839280476,6142.640858336261
4454.681005812225,6160.274474131631
4454.704172464451,6509.042545369106
4454.727339237156,7211.332312632964
4454.750506130341,8103.076106612247
4454.773673144005,9029.250929907925
4454.79684027815,9759.734812833023
4454.820007532776,10217.23207098066
4454.843174907884,10303.84536713614
4454.866342403473,9918.743559725377
4454.889510019546,9385.32345886917
4454.912677756102,8563.088484382703
4454.935845613144,7669.588080733425
4454.959013590669,7228.117795726993
4454.982181688681,7049.801756260531
4455.005349907178,7403.764770628202
4455.028518246162,8134.933523927463
4455.051686705633,9160.030570010835
4455.074855285593,10353.150028247817
4455.098023986041,11274.933071335232
4455.121192806979,11993.067886633038
4455.144361748406,12644.557982460705
4455.167530810323,13009.136204564857
4455.190699992732,13163.79515616597
4455.213869295633,13047.639723325015
4455.237038719026,12767.044669654546
4455.260208262912,12202.31715220754
4455.283377927292,11798.443427637834
4455.306547712166,11291.962205144873
4455.329717617535,10793.15571669699
4455.352887643399,10430.92007167001
4455.37605778976,10015.897191924183
4455.399228056617,9246.034330959303
4455.422398443972,8509.052309986537
4455.445568951825,7497.269854213991
4455.468739580177,6372.393959235783
4455.491910329028,5398.3428236985455
4455.515081198378,4673.302679864025
4455.538252188229,4405.141629152538
4455.561423298582,4439.658229502098
4455.584594529436,4926.684770717296
4455.607765880793,5713.7336568033
4455.630937352652,6779.337918846975
4455.654108945016,8172.718348687053
4455.677280657883,9317.805192999165
4455.700452491255,10368.333625585747
4455.723624445134,11182.937699902495
4455.746796519518,11800.39121882847
4455.7699687144095,12064.488562658611
4455.793141029808,12340.508171746313
4455.816313465714,12609.615034563732
4455.83948602213,12635.944131509836
4455.862658699055,12398.295443559642
4455.885831496489,12055.556391700742
4455.909004414434,11420.848898915237
4455.932177452891,10610.399607957392
4455.955350611858,9459.378098970521
4455.978523891339,8388.351076738038
4456.001697291333,7717.712781111769
4456.024870811841,7384.964715970591
4456.048044452862,7296.676731910795
4456.071218214399,7669.910674500309
4456.094392096451,8391.283455625042
4456.117566099019,9074.052798619254
4456.140740222105,9739.957965849368
4456.163914465707,10000.759294711608
4456.187088829828,9932.607690644541
4456.210263314468,9451.99923306788
4456.233437919626,8642.532083705843
4456.256612645306,7687.474336282652
4456.279787491505,7105.372706011229
4456.302962458226,6867.765312245517
4456.326137545469,7104.023944355307
4456.349312753233,7824.196455711177
4456.372488081522,8803.496887594958
4456.395663530333,10038.656160993924
4456.41883909967,11036.883371563239
4456.442014789531,11778.706524772664
4456.465190599917,12381.190664295125
4456.488366530831,12808.555680155901
4456.5115425822705,12916.2480653724
4456.5347187542375,12871.00915082156
4456.557895046733,12754.60213875699
4456.581071459757,12468.2392367055
4456.604247993311,12312.7393090682
4456.627424647395,12015.977245210903
4456.650601422009,11610.391797574799
4456.673778317154,11082.248296149754
4456.696955332832,10754.59168997809
4456.720132469041,10776.83068277766
4456.7433097257845,11075.128448955713
4456.766487103061,11617.606512223187
4456.789664600872,12191.039155087868
4456.8128422192185,12537.12913392092
4456.8360199581,12679.292172404344
4456.859197817518,12825.666816294271
4456.882375797473,12890.156632122855
4456.905553897966,12923.071800205786
4456.928732118997,12632.591406826648
4456.951910460566,11945.805201970796
4456.975088922674,11229.415630827116
4456.998267505323,10441.279706100919
4457.021446208513,9322.521265304125
4457.044625032244,8027.007587820071
4457.067803976516,6853.118520836005
4457.090983041332,6105.275556492232
4457.1141622266905,5828.838759765242
4457.1373415325925,5710.964129549445
4457.160520959039,5828.029847952336
4457.183700506031,6190.603839131294
4457.206880173568,6770.694134880565
4457.230059961651,7759.81948360865
4457.2532398702815,8805.780807403518
4457.27641989946,9919.98090199931
4457.299600049186,11067.148189076934
4457.322780319461,11791.60866610529
4457.345960710286,12374.22657970145
4457.36914122166,12673.534028433138
4457.392321853586,12804.367889151643
4457.415502606062,12779.69527830501
4457.43868347909,12640.587593254013
4457.461864472672,12645.227638752192
4457.485045586805,12754.206730139984
4457.508226821494,12841.454608270446
4457.5314081767365,12837.331651902858
4457.554589652534,12762.185132217335
4457.577771248887,12479.536571806997
4457.600952965797,12112.429975495548
4457.624134803263,11451.915575463516
4457.647316761288,10673.42155052249
4457.67049883987,9808.363092847669
4457.693681039011,8937.281054759022
4457.716863358712,8140.009803568399
4457.7400457989725,7531.501363841529
4457.763228359793,7330.822231984208
4457.7864110411765,7401.604741263058
4457.809593843121,7654.027245602682
4457.832776765628,7745.788206518486
4457.855959808699,7662.075902706385
4457.879142972333,7465.713019731987
4457.902326256532,7483.22638714764
4457.925509661296,7558.2561713365385
4457.948693186626,8087.989653298788
4457.971876832522,8979.41680692923
4457.995060598985,9907.822397398257
4458.018244486016,10777.650813473127
4458.041428493615,11262.870169208096
4458.0646126217825,11474.308557112658
4458.08779687052,11330.451245487047
4458.110981239827,10714.679535225148
4458.134165729705,10118.506941074314
4458.157350340155,9435.774899015714
4458.180535071177,8833.028794920825
4458.203719922771,8970.056166923903
4458.226904894938,9298.327491273685
4458.2500899876795,9982.031127260234
4458.273275200995,10820.464686275829
4458.296460534886,11733.1130074107
4458.3196459893525,12396.754724414302
4458.342831564396,12907.778358225452
4458.366017260016,13146.955264794826
4458.389203076214,13363.770806132772
4458.4123890129895,13352.750446099619
4458.435575070344,13200.001410821833
4458.458761248279,13188.105510173524
4458.481947546794,12763.89319553874
4458.505133965889,12418.290592517702
4458.528320505566,12028.216718320093
4458.551507165825,11362.382702134959
4458.574693946666,10439.998782517505
4458.597880848091,9599.670789219792
4458.6210678701,8522.680084346714
4458.644255012693,7229.570610329422
4458.6674422758715,5835.851119340328
4458.690629659636,4865.772256864668
4458.713817163986,3972.278357933148
4458.737004788924,3370.365628349648
4458.76019253445,3060.4553037978812
4458.783380400563,3138.8192499032093
4458.8065683872655,3371.687444090275
4458.829756494558,3831.2187898503316
4458.85294472244,4551.571332036627
4458.876133070914,5373.127191185858
4458.899321539979,6350.3324969355135
4458.922510129635,6902.131147300461
4458.945698839884,7205.519014153659
4458.968887670727,7101.680400643703
4458.992076622164,7055.27157202795
4459.015265694195,7265.427277797881
4459.0384548868215,7650.980410375491
4459.061644200044,8365.687598347278
4459.084833633862,9305.682773207867
4459.108023188278,10515.9112862674
4459.131212863292,11552.645412398262
4459.154402658904,12279.668313238983
4459.177592575114,12768.336495324396
4459.200782611925,13138.898139777642
4459.223972769336,13313.786764953751
4459.247163047347,13474.31842937033
4459.27035344596,13599.692053540955
4459.293543965176,13111.262296371626
4459.316734604993,12707.66425379489
4459.339925365414,12128.434566757625
4459.363116246439,11414.559929217212
4459.386307248069,10867.769719981268
4459.409498370304,10534.856126807743
4459.432689613145,10521.119407394523
4459.455880976592,10753.379234577465
4459.479072460647,11191.367982820451
4459.502264065309,12009.86006374105
4459.52545579058,12447.848845750363
4459.5486476364595,12935.139213089147
4459.571839602949,13048.021219944
4459.595031690048,13316.218333569906
4459.618223897759,13348.139309314816
4459.641416226081,13470.785261657353
4459.664608675014,13460.965171470063
4459.687801244561,13105.394581506258
4459.710993934721,12681.227990576166
4459.734186745496,11955.145895724312
4459.757379676885,11282.82088218894
4459.780572728889,10275.004779608667
4459.803765901509,9157.55049372569
4459.8269591947455,7912.505261803273
4459.850152608599,6755.25649621667
4459.87334614307,5987.206959375503
4459.89653979816,5539.610887135098
4459.91973357387,5728.372922921554
4459.942927470198,6042.258507540562
4459.966121487147,6502.725206337872
4459.989315624717,7235.312881587352
4460.0125098829085,8134.11071350798
4460.035704261722,9161.358690267582
4460.058898761158,10223.981039687234
4460.082093381218,11234.009731458984
4460.105288121902,11999.261260307881
4460.12848298321,12645.269746852344
4460.151677965145,13186.942682966508
4460.1748730677045,13399.980696290178
4460.198068290891,13708.085021386121
4460.221263634704,13900.229100176723
4460.244459099145,13872.891676906684
4460.267654684215,14064.54490190052
4460.290850389914,14250.647908989997
4460.314046216243,14050.071777905927
4460.337242163202,13807.799939585802
4460.360438230791,13825.183226971409
4460.383634419013,13708.806296134097
4460.406830727867,13326.149262215722
4460.430027157354,13205.885619034994
4460.453223707474,13120.93931884858
4460.476420378228,13172.49335070269
4460.499617169617,13197.154184264906
4460.522814081641,13320.275792574841
4460.5460111143,13246.544274897913
4460.569208267598,13043.062099716164
4460.592405541532,12750.148721724254
4460.615602936104,12453.328337806011
4460.638800451314,11925.374903266315
4460.661998087163,11099.39455574522
4460.685195843652,10047.53889402854
4460.708393720782,8934.56690038748
4460.731591718552,7743.3749990459555
4460.754789836965,6559.6479483397725
4460.777988076019,5747.961687231012
4460.801186435716,5310.981831038023
4460.824384916057,5011.869237529121
4460.847583517042,4877.279369617699
4460.870782238671,4964.758687466712
4460.893981080947,5308.656633472498
4460.917180043868,5745.653210797195
4460.940379127435,6298.138350920917
4460.963578331651,6753.7091441984
4460.986777656513,6845.918938375147
4461.009977102025,6680.967091146992
4461.033176668186,6151.578380369915
4461.056376354995,5669.765287521008
4461.079576162457,5391.499520237309
4461.102776090568,5222.010790715873
4461.125976139332,5275.199144171973
4461.149176308748,5459.629510669986
4461.172376598816,5654.83626547154
4461.195577009538,5740.389950472977
4461.218777540915,5466.965300468314
4461.241978192946,4961.18172271154
4461.265178965633,4371.558229878172
4461.2883798589755,3881.7909961862515
4461.311580872974,3535.6608990545365
4461.3347820076315,3481.866628037301
4461.357983262946,3781.621805437927
4461.381184638919,4464.697430079174
4461.404386135551,5429.70616323743
4461.4275877528435,6467.432304700559
4461.4507894907965,7628.716596914867
4461.4739913494095,8559.798069228036
4461.497193328685,9086.758078542227
4461.520395428623,9488.947748290604
4461.543597649224,9201.668762536867
4461.566799990488,8492.319167685966
4461.590002452416,7477.358997550898
4461.61320503501,6599.830412947406
4461.636407738269,5755.971256720837
4461.659610562193,5377.540139649642
4461.682813506784,5410.328805983801
4461.706016572044,5983.046261044766
4461.729219757971,6762.961025729817
4461.752423064566,7819.844583575327
4461.775626491831,8622.858027966427
4461.798830039766,9422.231504292015
4461.82203370837,10005.239637747472
4461.845237497647,10260.596632044646
4461.868441407595,10537.814969391096
4461.891645438215,10915.617662226032
4461.914849589509,11049.349671843742
4461.938053861475,11269.729832677522
4461.961258254117,11296.575358928858
4461.984462767433,10747.94407519941
4462.007667401424,10127.461763041194
4462.030872156092,9093.44926815703
4462.0540770314365,8376.85906172181
4462.077282027459,7490.240199758009
4462.100487144158,7121.69644706036
4462.123692381537,7133.031342655105
4462.146897739594,7559.590414402703
4462.170103218332,8682.356535430365
4462.19330881775,9637.910401159617
4462.21651453785,10816.445168379627
4462.239720378631,11668.282503494158
4462.262926340095,12376.541243951573
4462.286132422241,12689.58469521057
4462.309338625071,12826.570801833162
4462.3325449485865,12838.086212102651
4462.355751392785,12675.815280890973
4462.3789579576705,12337.097054982536
4462.402164643242,12365.32075226965
4462.4253714495,12424.865917070667
4462.448578376446,12377.71280186843
4462.471785424079,12329.185171492463
4462.494992592401,12228.390520598212
4462.518199881412,11922.982869378224
4462.541407291114,11336.307793819242
4462.564614821506,10541.486704339883
4462.587822472589,9448.71105191664
4462.611030244365,8466.406651396515
4462.634238136832,7683.8329655915595
4462.657446149992,7195.556134208844
4462.680654283847,7384.301275245014
4462.703862538396,8056.002814877862
