wave,flux
4450.003811362098,1933.270468174479
4450.026953690486,1673.9527877649248
4450.050096139227,1608.3720379236051
4450.073238708321,1577.6727448606725
4450.096381397769,1718.6530425033914
4450.119524207569,1926.8653299758078
4450.142667137726,2240.8109158687653
4450.165810188237,2554.1500113437664
4450.188953359103,2854.0516907790147
4450.212096650326,3183.942679500147
4450.2352400619075,3451.1695087095463
4450.258383593846,3588.929579688838
4450.281527246142,3823.6638383730274
4450.304671018797,3946.222843472281
4450.327814911813,4085.1917539180427
4450.350958925188,4199.867078588644
4450.374103058924,4290.442280608641
4450.3972473130225,4466.986405363632
4450.420391687483,4692.583202583531
4450.443536182305,4759.925784480078
4450.466680797492,4827.857769828675
4450.489825533042,5057.363721258013
4450.512970388957,5278.161706082702
4450.536115365237,5579.26364315634
4450.559260461882,5907.414646431117
4450.582405678895,6154.886097781234
4450.605551016274,6377.804791724783
4450.628696474022,6493.863714388317
4450.651842052138,6568.279474764724
4450.674987750623,6671.239936781792
4450.698133569476,6688.344925974962
4450.721279508702,6603.197423229514
4450.744425568297,6777.16066888196
4450.767571748264,8104.580188168271
4450.790718048604,9065.665922664713
4450.813864469315,7486.605217764402
4450.837011010401,6616.175403168439
4450.86015767186,6637.868632762941
4450.883304453694,6509.358898654428
4450.906451355903,6340.561013685123
4450.929598378489,6261.628882040983
4450.95274552145,6030.412611174377
4450.975892784789,5745.585226603218
4450.999040168505,5524.953068584178
4451.022187672601,5156.016090903106
4451.045335297074,4767.005897283712
4451.068483041929,4242.69972318745
4451.091630907163,3856.647085783261
4451.114778892777,3553.961815702658
4451.137926998774,3267.7325283489563
4451.161075225153,3215.7430491409605
4451.184223571914,3417.483500478198
4451.207372039059,3734.8578597105493
4451.230520626587,4168.310997396802
4451.253669334501,4502.153369514775
4451.2768181628,4982.409087037741
4451.299967111485,5389.777229329732
4451.323116180556,5647.825422390898
4451.346265370014,5833.791239548911
4451.369414679861,6076.309761768565
4451.392564110095,6283.601819914088
4451.415713660719,6301.031167117129
4451.438863331732,6194.2955764036205
4451.462013123136,6014.185234237129
4451.48516303493,5913.107224197628
4451.508313067117,5783.604763690566
4451.531463219695,5639.718235902135
4451.554613492666,5550.500654961735
4451.577763886031,5371.4293446998445
4451.60091439979,5401.06351343639
4451.624065033943,5526.409204587325
4451.647215788492,5691.280013261605
4451.670366663436,5786.463545183094
4451.693517658777,5879.230738134722
4451.716668774516,6180.561266818204
4451.739820010652,6253.740491173209
4451.762971367186,6423.391185162579
4451.78612284412,6696.006212285922
4451.8092744414525,6633.914217195255
4451.832426159187,6604.50475111876
4451.855577997321,6699.717267408868
4451.878729955857,6729.834335480342
4451.901882034796,6812.462229007302
4451.925034234137,6865.82386584747
4451.948186553881,6701.280098688337
4451.97133899403,6785.970614805147
4451.994491554583,6705.128002132427
4452.017644235542,6657.35356274367
4452.040797036907,6493.404031312722
4452.063949958678,6404.5157861484295
4452.087103000857,6246.7962346941795
4452.1102561634425,6153.092516932595
4452.133409446437,5911.06177579307
4452.156562849841,5779.857451394527
4452.179716373655,5617.113434644147
4452.202870017878,5481.698470122109
4452.226023782513,5326.680113289648
4452.24917766756,5192.914176489081
4452.272331673018,5138.003148250855
4452.29548579889,5107.237474626741
4452.318640045174,5152.104413526222
4452.341794411874,5180.549936967658
4452.364948898987,5358.633703173783
4452.388103506516,5652.454798197194
4452.4112582344615,5797.181170035952
4452.434413082823,5790.444648038671
4452.457568051602,5825.807702369126
4452.480723140799,5829.181230589404
4452.503878350413,5703.432531610953
4452.527033680448,5508.360440093187
4452.550189130902,5337.131534501511
4452.5733447017765,5372.597361348221
4452.596500393071,5361.101672001813
4452.619656204789,5438.644503660055
4452.642812136928,5532.270047085262
4452.66596818949,5729.561779398998
4452.689124362475,5786.784747483829
4452.7122806558855,5731.120687085713
4452.735437069719,5779.111992819378
4452.7585936039795,5647.217939326105
4452.781750258665,5503.3012133593975
4452.804907033777,5361.370251194292
4452.828063929317,5040.00707446142
4452.851220945285,4802.625783813966
4452.87437808168,4643.795463012882
4452.897535338506,4632.006948661167
4452.92069271576,4747.911295883796
4452.943850213445,4888.718808689765
4452.967007831562,5219.092519402371
4452.99016557011,5518.7674302347705
4453.01332342909,5805.815341327996
4453.036481408502,6008.062836062545
4453.059639508349,6165.54029430579
4453.08279772863,6315.167124360647
4453.105956069345,6300.800942262596
4453.129114530496,6411.603620214151
4453.152273112083,6319.79600180072
4453.175431814107,6181.974539657312
4453.198590636567,6076.10243618962
4453.221749579466,6023.75941079506
4453.244908642802,5840.386170413205
4453.268067826579,5825.640313637369
4453.291227130795,5817.500367963371
4453.314386555451,5860.731047823976
4453.337546100549,5977.887732078786
4453.360705766087,6038.889520287561
4453.3838655520685,6135.675357759314
4453.407025458493,6341.196330179568
4453.430185485361,6484.3624946222035
4453.453345632673,6472.831674919162
4453.476505900429,6565.803842312826
4453.4996662886315,6676.930685211278
4453.52282679728,6646.804881413792
4453.545987426375,6644.916263610081
4453.569148175917,6691.402256167456
4453.592309045907,6706.822019049378
4453.615470036346,6639.5980395331235
4453.638631147233,6618.570838305976
4453.661792378571,6562.8757257519255
4453.684953730359,6521.798843235008
4453.708115202598,6604.733867124226
4453.731276795288,6395.2393509432695
4453.754438508431,6088.867419976445
4453.777600342027,5813.597921283255
4453.800762296077,5700.371460576562
4453.82392437058,5353.481671489646
4453.847086565538,4931.697482324644
4453.870248880952,4440.635905521032
4453.8934113168225,3956.5043231099207
4453.916573873149,3554.589441728012
4453.939736549933,3299.8544241877157
4453.962899347174,3133.1112866048434
4453.986062264875,3171.5253303361465
4454.009225303034,3395.492283633844
4454.032388461654,3609.884592688157
4454.055551740734,3893.8758427626312
4454.078715140275,4089.8142332086786
4454.101878660277,4083.522198300077
4454.125042300742,4165.239593117344
4454.14820606167,3904.941140266733
4454.171369943061,3824.7105875974185
4454.194533944917,3509.9803574145626
4454.2176980672375,3123.2475528343602
4454.240862310024,2794.913874314859
4454.264026673275,2545.797749626144
4454.287191156994,2254.836645457821
4454.31035576118,1936.7748392058193
4454.333520485834,1794.2360619621159
4454.356685330957,1793.4651437701114
4454.379850296548,1854.0820642649435
4454.40301538261,2025.2116584967757
4454.426180589142,2316.559993507325
4454.449345916145,2619.0522887407765
4454.4725113636205,2918.1924347255317
4454.495676931568,3005.2923648112187
4454.5188426199875,3112.803293482978
4454.542008428882,3243.1287547082406
4454.565174358249,3181.0372716554702
4454.588340408092,3305.516208485389
4454.611506578411,3563.6778739313822
4454.634672869205,3904.6378465067087
4454.657839280476,4151.526598505412
4454.681005812225,4463.737797681992
4454.704172464451,4653.779835838865
4454.727339237156,4744.0129922312
4454.750506130341,4782.003613537478
4454.773673144005,4649.492756615834
4454.79684027815,4438.85946819912
4454.820007532776,4208.729868392896
4454.843174907884,3916.4971055198444
4454.866342403473,3857.97189892346
4454.889510019546,3963.0284038736368
4454.912677756102,4089.0317465715984
4454.935845613144,4354.895987551904
4454.959013590669,4808.403359065249
4454.982181688681,5183.898472819889
4455.005349907178,5473.951157650829
4455.028518246162,5703.933797940339
4455.051686705633,5793.09206196184
4455.074855285593,5967.686468582837
4455.098023986041,6119.162867041612
4455.121192806979,6165.282918593065
4455.144361748406,6116.925264906714
4455.167530810323,5938.064488068031
4455.190699992732,5749.182997925423
4455.213869295633,5643.975583606069
4455.237038719026,5461.533220692495
4455.260208262912,5160.166249052514
4455.283377927292,4974.765932150018
4455.306547712166,4667.932952729931
4455.329717617535,4251.166723399652
4455.352887643399,3765.207555363288
4455.37605778976,3333.6981549958873
4455.399228056617,3004.9805111229252
4455.422398443972,2770.913859835618
4455.445568951825,2594.729394593688
4455.468739580177,2650.582410480249
4455.491910329028,2825.139826796464
4455.515081198378,3189.6262028643373
4455.538252188229,3634.4932958085055
4455.561423298582,4028.57057276335
4455.584594529436,4483.33276503246
4455.607765880793,4897.643768715474
4455.630937352652,5290.7181550039595
4455.654108945016,5505.360732094467
4455.677280657883,5642.188819554477
4455.700452491255,5860.338999331525
4455.723624445134,5936.975528419901
4455.746796519518,5862.574783228319
4455.7699687144095,5942.534916510901
4455.793141029808,5809.489428380886
4455.816313465714,5532.544971294267
4455.83948602213,5241.900190181296
4455.862658699055,4946.58444547099
4455.885831496489,4681.722885677135
4455.909004414434,4380.3910081039485
4455.932177452891,4297.161723094113
4455.955350611858,4406.222683693675
4455.978523891339,4450.1273933716875
4456.001697291333,4557.212106810168
4456.024870811841,4701.3855604718965
4456.048044452862,4911.073712597256
4456.071218214399,4984.296186241618
4456.094392096451,4750.398184318753
4456.117566099019,4502.951775831575
4456.140740222105,4286.42631904842
4456.163914465707,4076.1785434366852
4456.187088829828,3798.3615112370317
4456.210263314468,3850.7247949980315
4456.233437919626,3968.114284338216
4456.256612645306,4189.490917317282
4456.279787491505,4533.73231363608
4456.302962458226,4770.434917577673
4456.326137545469,5094.185180228183
4456.349312753233,5407.4303137570205
4456.372488081522,5681.33682321514
4456.395663530333,5896.81360261028
4456.41883909967,5880.83536876117
4456.442014789531,6039.88036570848
4456.465190599917,6162.262765269549
4456.488366530831,5931.126413735466
4456.5115425822705,5862.099610617609
4456.5347187542375,5808.722945355317
4456.557895046733,5833.462907356755
4456.581071459757,5647.543704218078
4456.604247993311,5717.11846964163
4456.627424647395,5654.6219325224
4456.650601422009,5811.456950183206
4456.673778317154,5846.704102755608
4456.696955332832,5911.180340226879
4456.720132469041,6114.693382195411
4456.7433097257845,6240.543260977315
4456.766487103061,6151.017231322524
4456.789664600872,6088.035477569639
4456.8128422192185,6060.906189892711
4456.8360199581,5983.871638519994
4456.859197817518,5687.338092263445
4456.882375797473,5294.71320451623
4456.905553897966,4927.242377007132
4456.928732118997,4579.477868386646
4456.951910460566,4168.792030427123
4456.975088922674,3788.6210896265957
4456.998267505323,3522.4291057862406
4457.021446208513,3346.3703020310454
4457.044625032244,3350.991019452314
4457.067803976516,3410.6672900157223
4457.090983041332,3519.8270037467137
4457.1141622266905,3802.8982099196924
4457.1373415325925,4148.457648386959
4457.160520959039,4549.857886711545
4457.183700506031,4907.741344873457
4457.206880173568,5188.985153345895
4457.230059961651,5578.2062154311425
4457.2532398702815,5866.265389975182
4457.27641989946,5946.666350903186
4457.299600049186,6042.763067470757
4457.322780319461,6132.367245173653
4457.345960710286,6083.715719608653
4457.36914122166,6088.522304880741
4457.392321853586,6168.1520168869965
4457.415502606062,6087.483996878242
4457.43868347909,6009.735121344272
4457.461864472672,6006.949530556992
4457.485045586805,5869.2222949374745
4457.508226821494,5736.499252764708
4457.5314081767365,5598.886361899172
4457.554589652534,5354.963938273555
4457.577771248887,5020.503636789115
4457.600952965797,4678.298133606376
4457.624134803263,4411.873540485519
4457.647316761288,4239.264611247698
4457.67049883987,4113.054331862383
4457.693681039011,4036.7769393800086
4457.716863358712,4142.953962763755
4457.7400457989725,4138.033062433887
4457.763228359793,3962.044059865262
4457.7864110411765,3962.137794758705
4457.809593843121,4056.296414440902
4457.832776765628,4189.457948203182
4457.855959808699,4392.400841905572
4457.879142972333,4623.929100533455
4457.902326256532,4915.645602047013
4457.925509661296,5156.382744231518
4457.948693186626,5292.228586249187
4457.971876832522,5369.508919065881
4457.995060598985,5362.31793799845
4458.018244486016,5250.987467074569
4458.041428493615,5128.580256741966
4458.0646126217825,5026.815987124033
4458.08779687052,4934.80185391072
4458.110981239827,4928.629797588608
4458.134165729705,5058.466781374582
4458.157350340155,5260.551061098627
4458.180535071177,5492.173955090242
4458.203719922771,5680.644964434684
4458.226904894938,5882.8087060564885
4458.2500899876795,6099.745649343013
4458.273275200995,6174.325924139574
4458.296460534886,6257.862199693433
4458.3196459893525,6252.298484476691
4458.342831564396,6168.683451084961
4458.366017260016,6146.518916606597
4458.389203076214,6154.341851899586
4458.4123890129895,6012.559464603858
4458.435575070344,5741.858324471871
4458.458761248279,5418.35059806627
4458.481947546794,5009.286097535845
4458.505133965889,4620.390416190723
4458.528320505566,4164.266091540805
4458.551507165825,3649.0647779338833
4458.574693946666,3138.0208408759954
4458.597880848091,2712.484777371528
4458.6210678701,2352.6759418261313
4458.644255012693,2032.6454770451714
4458.6674422758715,1913.012584262217
4458.690629659636,1956.9748093121555
4458.713817163986,1983.138968737499
4458.737004788924,2202.18516839624
4458.76019253445,2567.1813979846024
4458.783380400563,2864.475905750042
4458.8065683872655,3154.1228038699637
4458.829756494558,3430.27016717811
4458.85294472244,3503.6445453085435
4458.876133070914,3592.395284896404
4458.899321539979,3733.8493692233505
4458.922510129635,3830.631233972993
4458.945698839884,4035.348992844757
4458.968887670727,4415.478376086147
4458.992076622164,4748.744274019313
4459.015265694195,5211.7121294677145
4459.0384548868215,5587.870804928699
4459.061644200044,5739.887193299089
4459.084833633862,5973.323431372773
4459.108023188278,6125.118922149203
4459.131212863292,6249.800381715328
4459.154402658904,6331.2913256856955
4459.177592575114,6319.967405582144
4459.200782611925,6296.405404052412
4459.223972769336,6146.407779010967
4459.247163047347,5941.172178253307
4459.27035344596,5826.297530649542
4459.293543965176,5699.766284685482
4459.316734604993,5584.867990244234
4459.339925365414,5612.470516996416
4459.363116246439,5728.204862128521
4459.386307248069,5808.642158221702
4459.409498370304,6054.819028471632
4459.432689613145,6231.774062197847
4459.455880976592,6165.279777996403
4459.479072460647,6261.520629438833
4459.502264065309,6445.134448465713
4459.52545579058,6461.668836304751
4459.5486476364595,6396.397326368008
4459.571839602949,6259.015956936694
4459.595031690048,6115.206240113511
4459.618223897759,6006.6766085799045
4459.641416226081,5833.691547172733
4459.664608675014,5460.301913418822
4459.687801244561,5086.332454473352
4459.710993934721,4678.172901560445
4459.734186745496,4101.919066035309
4459.757379676885,3724.8859631118326
4459.780572728889,3522.0828327265995
4459.803765901509,3375.5589770063293
4459.8269591947455,3466.596528315499
4459.850152608599,3655.195309478853
4459.87334614307,3838.8111542147576
4459.89653979816,4072.6379605521342
4459.91973357387,4426.748154992047
4459.942927470198,4817.860528736633
4459.966121487147,5158.337421012966
4459.989315624717,5542.226223285672
4460.0125098829085,5826.528497458757
4460.035704261722,5977.9498386574805
4460.058898761158,6161.8121610984
4460.082093381218,6315.707630855443
4460.105288121902,6505.220613056621
4460.12848298321,6616.807231231254
4460.151677965145,6593.784685420639
4460.1748730677045,6684.046824258939
4460.198068290891,6684.638739199118
4460.221263634704,6683.684223416575
4460.244459099145,6670.347649535579
4460.267654684215,6613.373952673997
4460.290850389914,6528.914698655786
4460.314046216243,6403.165417423139
4460.337242163202,6316.525423184466
4460.360438230791,6376.785405607155
4460.383634419013,6480.782067191493
4460.406830727867,6410.297402120805
4460.430027157354,6366.52005507302
4460.453223707474,6361.983632998232
4460.476420378228,6299.195909752953
4460.499617169617,6067.628382840856
4460.522814081641,5912.282426926351
4460.5460111143,5695.294628825436
4460.569208267598,5362.76429492096
4460.592405541532,4905.019174268802
4460.615602936104,4482.4658676061
4460.638800451314,4059.7395772931377
4460.661998087163,3771.749994043207
4460.685195843652,3413.3342621802617
4460.708393720782,3115.7802452964947
4460.731591718552,2965.350718483415
4460.754789836965,2849.2249341051875
4460.777988076019,2937.8915387586258
4460.801186435716,3022.2339291323865
4460.824384916057,3062.1044782419367
4460.847583517042,3222.8903385437543
4460.870782238671,3261.9488363701907
4460.893981080947,3327.0571525634978
4460.917180043868,3210.181829830921
4460.940379127435,3064.6764514646666
4460.963578331651,2919.7591402931344
4460.986777656513,2805.112520661514
4461.009977102025,2805.79847204994
4461.033176668186,2812.629446066973
4461.056376354995,2734.8999437986095
4461.079576162457,2810.466983982141
4461.102776090568,2784.36253023775
4461.125976139332,2618.531119442228
4461.149176308748,2490.9312856264323
4461.172376598816,2307.093852848816
4461.195577009538,2127.231750638715
4461.218777540915,2065.35175924496
4461.241978192946,2194.1194828852636
4461.265178965633,2268.1381510804217
4461.2883798589755,2609.4465452732784
4461.311580872974,2914.781134846063
4461.3347820076315,3420.1374094190023
4461.357983262946,3683.7176825394617
4461.381184638919,4025.2340343158285
4461.404386135551,4292.186077777966
4461.4275877528435,4298.726781540363
4461.4507894907965,4186.862832386395
4461.4739913494095,4045.1861654622303
4461.497193328685,3730.6415816092467
4461.520395428623,3525.5044702900423
4461.543597649224,3275.6818899749965
4461.566799990488,3160.336321134835
4461.590002452416,3206.975166615406
4461.61320503501,3423.319424527322
4461.636407738269,3724.310701686538
4461.659610562193,4089.564437458029
4461.682813506784,4300.15492648403
4461.706016572044,4683.066195262775
4461.729219757971,4924.87625343704
4461.752423064566,5093.840193975207
4461.775626491831,5235.498459005917
4461.798830039766,5408.392035115348
4461.82203370837,5563.449850282963
4461.845237497647,5481.894709305195
4461.868441407595,5427.433441334777
4461.891645438215,5294.695980508505
4461.914849589509,5063.632126811793
4461.938053861475,4784.739497413523
4461.961258254117,4481.571450262595
4461.984462767433,4214.643186889677
4462.007667401424,4113.485609869831
4462.030872156092,4136.447991508481
4462.0540770314365,4350.338464029264
4462.077282027459,4664.19573862087
4462.100487144158,4911.264474898344
4462.123692381537,5237.334734340068
4462.146897739594,5579.690549851465
4462.170103218332,5782.36109669903
4462.19330881775,5967.226391322244
4462.21651453785,6037.389481125478
4462.239720378631,6021.579604777965
4462.262926340095,6089.366059259847
4462.286132422241,6084.223242512549
4462.309338625071,6071.247108499303
4462.3325449485865,6051.521685701092
4462.355751392785,6008.3670669830235
4462.3789579576705,5996.397193444264
4462.402164643242,5981.5000145265
4462.4253714495,5824.817416058457
4462.448578376446,5512.8735224386755
4462.471785424079,5151.102379331415
4462.494992592401,4871.599677092831
4462.518199881412,4577.015888929673
4462.541407291114,4359.6021252054015
4462.564614821506,4392.494292573313
4462.587822472589,4375.115857871754
4462.611030244365,4506.35763735285
4462.634238136832,4666.732261951713
4462.657446149992,4927.919088763938
4462.680654283847,5047.930659205815
4462.703862538396,5349.752414926296
4462.727070913639,5620.383711972054
4462.750279409578,5689.653056605687
4462.773488026214,5897.492866779953
4462.796696763546,5846.488374375629
