wave,flux
5000.025812696027,57697.93424529827
5000.051815424163,61545.3890978152
5000.0778182875265,64669.27112360182
5000.103821286119,67099.15917897459
5000.12982441994,68489.61438723054
5000.155827688991,68132.74921245572
5000.181831093272,67374.66366423108
5000.207834632784,64784.51995866663
5000.2338383075285,61465.37889487405
5000.259842117506,58171.65950931566
5000.285846062716,55508.97527766087
5000.311850143161,53974.03862985066
5000.33785435884,54403.9686612434
5000.363858709754,55605.97987569561
5000.389863195905,57204.10350989296
5000.415867817292,59180.08499378299
5000.441872573917,60612.21771524456
5000.4678774657805,62060.93544286672
5000.493882492882,63199.03349589586
5000.519887655224,63133.851506209234
5000.545892952806,64123.48804688354
5000.571898385629,65246.73735752201
5000.597903953694,67153.67117357621
5000.623909657001,69115.41758073488
5000.649915495552,70963.52362907503
5000.675921469346,72348.15375117245
5000.701927578384,73035.46280257493
5000.727933822669,73472.52111988708
5000.7539402021985,73447.4265030699
5000.779946716975,73363.19272214605
5000.805953366999,73482.03904719603
5000.831960152272,73086.76963483733
5000.857967072792,72466.9773767558
5000.883974128563,71935.88239115957
5000.9099813195835,70314.32004384532
5000.935988645855,68034.91336946351
5000.961996107378,64895.66227057545
5000.988003704153,61368.09746867366
5001.014011436181,58526.89737508094
5001.040019303464,56391.13861026511
5001.066027306,55623.78424907203
5001.092035443791,56806.145251544214
5001.118043716839,58613.991267998426
5001.1440521251425,60750.0871656585
5001.170060668704,62430.74845841749
5001.196069347523,63340.67350213744
5001.222078161601,63282.4874815592
5001.248087110937,61831.59234411472
5001.274096195534,59429.28187637052
5001.300105415392,55719.95109907058
5001.326114770512,50322.729490910926
5001.352124260892,44865.658863721415
5001.3781338865365,39430.33498846825
5001.4041436474445,35466.56082577803
5001.430153543616,33238.43398712237
5001.456163575053,33232.53154430387
5001.482173741756,35477.40736764791
5001.508184043724,39346.751774466895
5001.534194480961,44318.14224044226
5001.560205053464,49702.30365023524
5001.586215761236,55269.69873412321
5001.612226604278,60471.815808708394
5001.638237582589,64547.59598422375
5001.664248696171,67860.5328668868
5001.690259945024,70616.47660498357
5001.716271329149,72537.91966266827
5001.742282848547,74283.17606712432
5001.768294503218,75107.83072642749
5001.794306293164,76091.08430801367
5001.820318218383,76470.03334143285
5001.84633027888,76630.8848143494
5001.872342474651,76957.83574155829
5001.8983548056995,77004.62919161595
5001.924367272026,76419.70403487726
5001.9503798736305,75731.99381107069
5001.976392610514,75304.69795866053
5002.002405482678,74877.96233167742
5002.028418490122,74271.51496170751
5002.054431632847,73567.53936284731
5002.080444910854,73083.71509965061
5002.106458324142,72603.34562251541
5002.1324718727155,71661.1397798107
5002.158485556572,70597.80129322073
5002.184499375713,69106.62450825366
5002.210513330139,67266.23721078075
5002.236527419852,65054.28466122541
5002.262541644852,61325.8730076911
5002.288556005138,56989.770829656016
5002.314570500714,52554.778763963965
5002.340585131577,49621.40633026856
5002.36659989773,48820.86328776334
5002.392614799174,49622.937969847015
5002.418629835909,52210.46882275143
5002.444645007936,56474.72833095203
5002.4706603152545,60859.18492344051
5002.496675757866,64737.15108903833
5002.522691335772,68097.59537582596
5002.548707048972,70903.50480967827
5002.574722897468,73524.90781491749
5002.600738881259,75038.45620399747
5002.626755000347,75696.16262700167
5002.652771254732,76518.31247532397
5002.678787644415,76896.14127517576
5002.704804169397,76958.96275910127
5002.730820829678,77253.21876204511
5002.75683762526,77705.77089893901
5002.782854556142,77585.21707875769
5002.8088716223265,77579.01810992444
5002.834888823812,77586.29967203792
5002.860906160601,77241.8286288469
5002.886923632695,77243.69894393429
5002.912941240092,76954.94345498577
5002.938958982793,76607.67936454636
5002.9649768608015,76765.37720588023
5002.990994874116,76372.16484712926
5003.017013022737,75915.41908657934
5003.043031306666,76157.21122362674
5003.069049725905,76071.37708007911
5003.095068280452,76190.90793658393
5003.121086970309,76249.70946282936
5003.147105795477,75807.34453301053
5003.173124755956,75104.06560671079
5003.199143851748,73951.71759982494
5003.225163082852,72764.68345221918
5003.251182449269,70979.49115587842
5003.277201951001,69072.2465026689
5003.3032215880485,67705.21700527902
5003.32924136041,67588.10455707782
5003.35526126809,68119.83586721033
5003.381281311085,68908.7105126704
5003.407301489398,69823.6621788804
5003.433321803031,70389.10544722428
5003.459342251982,70557.05920301165
5003.4853628362525,70083.76392530922
5003.511383555844,68792.48166761399
5003.537404410757,66685.33137806722
5003.563425400991,64048.0254203796
5003.589446526548,61314.71175992321
5003.615467787429,60279.378457410865
5003.641489183634,60797.085088894186
5003.667510715163,61958.31834863243
5003.693532382018,63769.580561961164
5003.719554184199,65557.737127999
5003.745576121707,67216.43879423235
5003.771598194542,68575.38501030118
5003.797620402706,69805.60890898803
5003.823642746199,70726.82780183194
5003.849665225021,71250.82790060513
5003.875687839174,71518.89831365476
5003.901710588658,71695.95481336194
5003.927733473473,72050.51781532931
5003.953756493622,72501.48757206798
5003.979779649103,73148.66152830565
5004.005802939919,73980.60536202551
5004.031826366068,75001.14341541294
5004.057849927553,75887.60004808061
5004.083873624375,76466.67080915761
5004.109897456533,76485.30706122845
5004.135921424028,76947.8555087537
5004.161945526862,77181.87522304279
5004.187969765035,77572.39510418836
5004.213994138547,77240.07544422317
5004.240018647399,76939.82517426967
5004.266043291592,77381.3458349352
5004.292068071127,77396.42239214986
5004.318092986004,77109.9957450727
5004.344118036223,76639.72311840781
5004.370143221788,75860.5341824466
5004.396168542696,75437.31971527057
5004.422193998949,74628.33091537365
5004.448219590549,73513.38563341374
5004.474245317495,72802.04676760212
5004.500271179789,72157.47363104622
5004.52629717743,71618.2230014233
5004.5523233104195,70526.43335127304
5004.578349578759,68445.79196601616
5004.604375982449,65586.40156841009
5004.630402521489,61409.519894295896
5004.656429195881,56500.96065881016
5004.682456005625,51752.600619374665
5004.708482950721,47829.600702998425
5004.734510031172,45723.55769797605
5004.760537246977,46020.41505684971
5004.7865645981365,48394.48594753299
5004.812592084652,52071.2273253753
5004.838619706525,56401.90022307405
5004.8646474637535,60960.91862256187
5004.890675356341,64676.557593603146
5004.916703384286,66994.46079236531
5004.942731547591,69011.8608344887
5004.968759846256,70036.16643645962
5004.994788280281,70439.77102253347
5005.020816849668,70168.72831819757
5005.046845554417,68920.51436446406
5005.072874394528,67464.44335907167
5005.098903370003,64886.8996566339
5005.124932480842,61244.64527616402
5005.150961727047,56923.7349738941
5005.176991108617,51896.24366116361
5005.203020625552,46034.12603729291
5005.229050277856,40717.314120517294
5005.255080065526,36763.37825243549
5005.281109988566,34530.09614627517
5005.3071400469735,34718.54466846524
5005.333170240751,36924.72607260234
5005.3592005699,40124.03461869938
5005.38523103442,43940.09756227376
5005.411261634312,47676.93491271104
5005.4372923695755,50533.33947200062
5005.463323240213,52351.96063531836
5005.489354246225,52653.02905046624
5005.515385387611,51150.360275943276
5005.541416664373,48872.529487501175
5005.567448076511,44696.33943141273
5005.593479624025,40097.10702023087
5005.619511306918,35188.455204973194
5005.645543125189,31524.241980430652
5005.671575078838,29285.155233330013
5005.697607167867,28979.274056091504
5005.723639392277,30405.164739150187
5005.749671752068,33566.65504968472
5005.77570424724,38225.687044065686
5005.8017368777955,43823.79112641891
5005.8277696437335,49574.210762958995
5005.853802545055,55164.68022904566
5005.879835581762,60192.715249715664
5005.905868753854,64446.80067278414
5005.931902061331,68302.38150740143
5005.957935504196,70843.85947162395
5005.983969082448,72844.80307158649
5006.010002796088,74137.56216477416
5006.036036645117,74938.39023015082
5006.062070629536,75598.54597887212
5006.088104749344,75676.18137988924
5006.114139004544,75630.58501026948
5006.140173395135,75688.16832200652
5006.166207921118,75986.50832988646
5006.192242582495,75462.94880069823
5006.218277379266,75171.89292429601
5006.244312311431,75063.77103602736
5006.270347378991,74733.80253814228
5006.296382581946,74805.19369918613
5006.322417920299,75078.34157121589
5006.348453394048,74947.78243209726
5006.374489003196,74504.10870057759
5006.400524747743,74135.87753318866
5006.426560627688,73940.62618666363
5006.452596643034,73588.13763496092
5006.47863279378,73118.28197437474
5006.504669079928,72520.41202967257
5006.530705501478,71375.76227368646
5006.556742058431,69948.76189957267
5006.582778750788,68421.21544789447
5006.608815578549,65794.72188117963
5006.634852541715,62379.63288837202
5006.660889640287,57814.626738317806
5006.686926874265,52403.467844188846
5006.71296424365,46425.561065280905
5006.739001748444,40756.80318389817
5006.765039388645,35867.55122785429
5006.791077164256,32351.776373748962
5006.817115075277,30905.999025922163
5006.843153121708,31792.612995702497
5006.869191303552,34693.01005459554
5006.895229620806,39195.86576559966
5006.921268073474,44736.61922654468
5006.947306661555,50363.53845069662
5006.97334538505,55717.74309693549
5006.999384243961,60779.37339670481
5007.025423238286,65005.68702847627
5007.051462368028,68582.12409762702
5007.077501633187,71287.60370023244
5007.103541033764,72997.81673021916
5007.129580569759,74142.63562834145
5007.155620241173,74250.94476193182
5007.181660048007,74531.20801158814
5007.207699990262,73843.55923938238
5007.233740067937,72358.92135268914
5007.259780281035,70862.19113812223
5007.285820629555,70106.24369091264
5007.311861113499,69977.50489273683
5007.337901732866,70709.22513029861
5007.363942487658,72056.02788422049
5007.389983377876,73671.44643971378
5007.41602440352,75285.50899809788
5007.442065564591,76629.59921561356
5007.468106861089,77457.48405451703
5007.494148293015,78128.86143422133
5007.520189860371,78711.9383017864
5007.546231563156,78715.54477720524
5007.572273401372,78501.53924905506
5007.598315375018,78345.77242688423
5007.624357484096,78549.87765406696
5007.650399728607,78850.75162797487
5007.676442108551,78928.35087847848
5007.702484623929,79205.3094660526
5007.728527274741,79452.24911712186
5007.754570060989,79212.08782035034
5007.780612982673,79133.2846898349
5007.806656039793,79321.36212892547
5007.832699232351,79180.06368541016
5007.858742560347,79693.21940705937
5007.884786023782,79746.37560092412
5007.910829622656,79754.82386678741
5007.936873356971,79752.34455455981
5007.962917226726,79557.49771863731
5007.988961231923,79691.90895869427
5008.015005372563,79700.42141470856
5008.041049648646,79246.49090699182
5008.067094060171,78810.04674530754
5008.0931386071425,78436.03878837403
5008.119183289558,77747.75504816414
5008.14522810742,76663.39219117894
5008.171273060728,75748.551267764
5008.197318149483,75222.22521100607
5008.223363373687,75026.44110987554
5008.249408733339,75296.54953808677
5008.27545422844,75907.10151865303
5008.301499858992,77101.88318847437
5008.327545624995,77950.68121863887
5008.353591526448,78486.29875322164
5008.379637563355,78680.351617876
5008.405683735714,78851.83052264716
5008.431730043527,78948.41254348776
5008.457776486794,78967.8942270493
5008.483823065515,78857.10988505709
5008.509869779693,78698.54666479996
5008.535916629327,78566.16358555527
5008.561963614418,78563.58919851658
5008.588010734968,78583.26960891181
5008.614057990975,78780.40781914908
5008.640105382442,78964.09508336427
5008.666152909369,79085.61753836542
5008.692200571756,79314.06019082604
5008.718248369605,79384.39620056417
5008.744296302916,79419.88465322384
5008.77034437169,79418.9510520659
5008.796392575927,79259.06305602538
5008.822440915628,79476.59093940594
5008.848489390794,79640.87576018341
5008.874538001426,79733.62927037598
5008.900586747524,79453.05073141225
5008.926635629089,79391.95419346473
5008.952684646122,78833.98867631418
5008.978733798623,78170.65241225448
5009.004783086593,78336.79593154506
5009.030832510033,77983.95440810065
5009.056882068944,78031.72932425702
5009.082931763326,77505.51103452948
5009.108981593179,76732.67197933656
5009.135031558506,76245.47257403548
5009.161081659306,75468.69100512058
5009.187131895579,74772.00214971018
5009.213182267327,74222.98106297773
5009.239232774552,73926.47952242495
5009.265283417251,74249.17496206453
5009.291334195428,74560.62903209405
5009.317385109083,75059.26539218439
5009.343436158216,75835.41386441694
5009.369487342828,75807.39771734111
5009.395538662919,75612.13451225002
5009.421590118491,75557.06402488601
5009.447641709544,74823.31775380825
5009.473693436078,73517.75029931925
5009.499745298095,71306.03917070567
5009.525797295596,69018.5398842804
5009.55184942858,66125.28448065308
5009.577901697049,63345.88245764033
5009.603954101003,61215.85420531997
5009.630006640443,59801.28174462553
5009.65605931537,58076.98173081963
5009.682112125784,55615.65826050928
5009.708165071686,52487.3237906333
5009.7342181530785,49262.88335120447
5009.760271369959,47156.43123649922
5009.78632472233,46689.77631436807
5009.812378210192,47976.09479398106
5009.838431833546,50842.20674407025
5009.864485592391,54612.063335881336
5009.890539486731,58970.60376332715
5009.916593516564,63643.34266377566
5009.942647681891,67512.3520075431
5009.968701982713,70457.5969415653
5009.994756419032,73109.33032010848
5010.020810990847,75384.93139965946
5010.046865698159,76893.69787023254
5010.072920540969,77579.47982841688
5010.098975519279,78275.35142722055
5010.125030633087,78745.64738866634
5010.151085882395,79155.29079940371
5010.177141267204,78953.41313658319
5010.2031967875155,78902.05927272297
5010.229252443328,78826.44961407645
5010.255308234644,78636.32533418923
5010.281364161464,78177.33431391296
5010.307420223788,77200.853029737
5010.333476421617,76416.44428243268
5010.359532754951,75098.81117371228
5010.3855892237925,72546.65578111866
5010.4116458281405,69695.01151969527
5010.437702567997,66741.7511776817
5010.463759443362,63681.07990086886
5010.489816454236,61199.72136766947
5010.51587360062,60582.04264189076
5010.541930882514,61767.767203436844
5010.56798829992,64069.52867748126
5010.5940458528385,66969.28965538899
5010.62010354127,69968.74886413565
5010.646161365214,72660.16949604767
5010.672219324672,74852.14808818104
5010.698277419646,76418.79235649657
5010.724335650135,77327.87662465425
5010.7503940161405,77965.52522408986
5010.7764525176635,78514.2269175062
5010.802511154703,78717.09271995579
5010.828569927262,78777.06162855988
5010.85462883534,78919.91827968843
5010.880687878937,79227.4734135773
5010.906747058056,79353.90253244812
5010.932806372695,79487.79976086623
5010.958865822856,79760.53058510598
5010.98492540854,79529.22406545287
5011.0109851297475,79414.72354005706
5011.0370449864795,79355.94189515592
5011.063104978735,79639.98804047784
5011.089165106517,79474.10714173965
5011.115225369825,78342.03498252798
5011.14128576866,77545.97302771761
5011.167346303022,76491.83386582207
5011.193406972913,74997.76694896207
5011.219467778333,73523.92671973247
5011.2455287192815,71491.97396908174
5011.271589795761,69601.55764130595
5011.297651007772,68032.95913720402
5011.323712355315,67054.48822914112
5011.34977383839,66136.3805302239
5011.375835456999,64773.69487974182
5011.401897211142,63796.058300039476
5011.427959100819,62496.70181571205
5011.454021126031,59549.68447846007
5011.4800832867795,55619.58473916471
5011.506145583065,51047.59343982254
5011.532208014888,45373.95526730943
5011.558270582248,39571.38665659237
5011.584333285148,34460.03789303247
5011.610396123588,30269.55855566262
5011.636459097567,27610.82964006141
5011.662522207088,26881.486208973023
5011.68858545215,27927.441067680757
5011.714648832754,30702.340304207726
5011.740712348902,35158.47490104913
5011.766776000594,40231.60940391988
5011.79283978783,45767.229637002
5011.818903710611,51047.00939762492
5011.844967768939,55404.82644198611
5011.871031962813,58088.877272854115
5011.897096292234,59438.797851040574
5011.923160757203,59239.31223674476
5011.949225357721,57283.137268324084
5011.975290093788,55030.551550790646
5012.001354965406,53951.82938341486
5012.027419972574,54165.56386245479
5012.053485115294,55780.359344567594
5012.079550393566,58511.404233167304
5012.105615807392,61118.78494823403
5012.13168135677,63584.7416588599
5012.157747041703,65328.29468322423
5012.183812862192,65802.04622686426
5012.209878818236,65483.25963741484
5012.235944909837,64868.24670862607
5012.262011136994,64609.80606338671
5012.28807749971,65272.547989924155
5012.3141439979845,67061.71116096049
5012.340210631818,68854.12629044948
5012.366277401212,70605.63461588054
5012.392344306166,72483.67942507015
5012.418411346682,74212.89463189388
5012.44447852276,75517.28588182262
5012.470545834401,76058.34147883931
5012.496613281605,76684.70122289522
5012.522680864374,77065.31077248318
5012.548748582707,77377.83900513523
5012.574816436606,77416.97973681157
5012.600884426071,77509.94184563565
5012.626952551104,77282.00854393904
5012.653020811705,76691.85785078809
5012.679089207873,76091.69014797582
5012.705157739611,74519.70005627917
5012.73122640692,72455.18327771749
5012.757295209798,69524.0239577721
5012.7833641482475,65939.40481284312
5012.80943322227,61610.00317368886
5012.835502431864,57789.42721286971
5012.861571777033,54504.412604153404
5012.887641257775,52912.87256845962
5012.9137108740915,53311.54481066954
5012.939780625984,55169.95771047859
5012.965850513452,57421.30097349005
5012.991920536498,59579.232146493916
5013.017990695121,61621.19629568219
5013.044060989323,62382.18246087235
5013.070131419104,61757.247548604275
5013.096201984464,59769.727052420465
5013.122272685405,56183.72420586544
5013.148343521927,51798.18546570226
5013.17441449403,46622.35248035323
5013.200485601717,41701.94014320421
5013.226556844987,38009.21045882911
5013.2526282238405,35968.21554717075
5013.278699738279,35784.60439968357
5013.304771388303,38188.023354569166
5013.330843173913,41963.58682749526
5013.35691509511,46454.27064640794
5013.382987151894,51190.26628829739
5013.409059344267,55345.81574386241
5013.435131672228,59229.3501169391
5013.46120413578,61945.55259907647
5013.487276734921,64240.81589268899
5013.513349469653,65997.92990769868
5013.539422339977,67525.88996327492
5013.565495345894,68595.69719883961
5013.5915684874035,68370.23460075723
5013.617641764507,66956.80734222806
5013.643715177206,64247.7726047143
5013.6697887254995,60309.33426699266
5013.695862409389,54840.785330058745
5013.721936228875,48964.46110777793
5013.748010183958,43607.419639387284
5013.77408427464,39109.48866446385
5013.800158500921,36276.641451690884
5013.826232862801,35675.184459002274
5013.852307360281,37189.59324358426
5013.8783819933615,40591.82148220402
5013.904456762045,45567.42823902944
5013.930531666329,51105.386444699645
5013.956606706218,56497.062079628966
5013.982681881709,61254.18609205671
5014.008757192805,65301.04982142194
5014.034832639507,68310.37381626159
5014.060908221814,70227.0952251989
5014.086983939728,71869.53678292183
5014.113059793249,72563.08463752257
5014.139135782378,72674.30802625985
5014.165211907116,72936.98778208549
5014.1912881674625,72640.7193950434
5014.21736456342,72091.1473185039
5014.243441094988,71455.00199760155
5014.269517762167,69959.83227079832
5014.295594564959,68452.20045718455
5014.321671503363,66248.70678141598
5014.347748577381,63439.90663865239
5014.373825787014,59492.956970108375
5014.399903132261,54635.80921933881
5014.425980613125,49402.95296796452
5014.4520582296045,44237.023869203884
