wave,flux
4450.003811362098,28490.460383174664
4450.026953690486,28971.410740464395
4450.050096139227,29204.598155790303
4450.073238708321,29135.009116116536
4450.096381397769,29154.965404249055
4450.119524207569,28785.11972369429
4450.142667137726,28250.55614076867
4450.165810188237,27592.292519689134
4450.188953359103,26645.906275187994
4450.212096650326,25581.806912018357
4450.2352400619075,24205.890383026435
4450.258383593846,22668.564034394207
4450.281527246142,21174.16110263916
4450.304671018797,19476.66264747881
4450.327814911813,17733.0834731118
4450.350958925188,16186.970983952004
4450.374103058924,14609.859786657695
4450.3972473130225,13085.723966318512
4450.420391687483,11922.29304045039
4450.443536182305,10742.038621645213
4450.466680797492,9856.001425792076
4450.489825533042,9199.75308125117
4450.512970388957,8745.829323306905
4450.536115365237,8666.927435203812
4450.559260461882,8412.943129816103
4450.582405678895,8361.458278515873
4450.605551016274,8812.572479569371
4450.628696474022,9390.159055908023
4450.651842052138,10110.916962789935
4450.674987750623,11075.506322155174
4450.698133569476,12134.02225001049
4450.721279508702,13533.000349813845
4450.744425568297,15000.336600303799
4450.767571748264,16137.622779643529
4450.790718048604,17099.98269571871
4450.813864469315,18013.460200054822
4450.837011010401,18704.209760525107
4450.86015767186,19208.81274228227
4450.883304453694,20040.31575980431
4450.906451355903,20866.39526744104
4450.929598378489,21774.363808766277
4450.95274552145,22884.14036807441
4450.975892784789,23999.745872799704
4450.999040168505,24996.738262355488
4451.022187672601,26381.019475759153
4451.045335297074,27867.082808178842
4451.068483041929,28924.799719490074
4451.091630907163,30350.492059039654
4451.114778892777,31841.854816336083
4451.137926998774,32863.7692462016
4451.161075225153,33753.451517617454
4451.184223571914,34230.553008498704
4451.207372039059,34469.8051340844
4451.230520626587,34277.030523011104
4451.253669334501,34238.14844257984
4451.2768181628,33724.19144440954
4451.299967111485,32911.27014462711
4451.323116180556,31915.14779747734
4451.346265370014,31223.263285096342
4451.369414679861,30306.413375478947
4451.392564110095,28921.889410425945
4451.415713660719,27545.356156491966
4451.438863331732,26734.035300423173
4451.462013123136,25311.68290223058
4451.48516303493,23925.085775714477
4451.508313067117,22790.790206019414
4451.531463219695,21685.387052248603
4451.554613492666,20341.80996333812
4451.577763886031,18853.12403582471
4451.60091439979,18105.39490074962
4451.624065033943,17386.303267437455
4451.647215788492,16948.128358056576
4451.670366663436,16879.738071690575
4451.693517658777,17289.411939680995
4451.716668774516,18212.704890561454
4451.739820010652,19357.979009870814
4451.762971367186,20819.530363077607
4451.78612284412,22570.785684845876
4451.8092744414525,24245.80118975336
4451.832426159187,25561.579232099975
4451.855577997321,26970.644042227188
4451.878729955857,27758.337479626196
4451.901882034796,28168.82704933798
4451.925034234137,28362.313815458023
4451.948186553881,28184.363403946798
4451.97133899403,27877.840177992137
4451.994491554583,27361.756948240356
4452.017644235542,26855.798687345396
4452.040797036907,26356.08146998709
4452.063949958678,26029.88293435862
4452.087103000857,25835.852643726987
4452.1102561634425,26041.741736920467
4452.133409446437,26619.853677490737
4452.156562849841,27471.20714180415
4452.179716373655,28727.83708645668
4452.202870017878,29908.229605959346
4452.226023782513,30947.77037977805
4452.24917766756,32133.334170347578
4452.272331673018,32915.236427788404
4452.29548579889,33459.269378263656
4452.318640045174,34318.67634597221
4452.341794411874,34080.18320982073
4452.364948898987,34294.30490311912
4452.388103506516,34530.76270639331
4452.4112582344615,34093.724298784786
4452.434413082823,33548.302379308916
4452.457568051602,32983.124320622665
4452.480723140799,32783.52201365518
4452.503878350413,31967.376124534083
4452.527033680448,31216.78184345907
4452.550189130902,30586.60198260841
4452.5733447017765,29443.271271066966
4452.596500393071,28340.29068709042
4452.619656204789,27616.073983703023
4452.642812136928,26802.99274033376
4452.66596818949,25913.286659755326
4452.689124362475,25188.57987979969
4452.7122806558855,24450.48852934292
4452.735437069719,23990.429671523612
4452.7585936039795,23522.91198515885
4452.781750258665,23228.490693230586
4452.804907033777,23296.822839139422
4452.828063929317,23239.30518295916
4452.851220945285,23404.728573319568
4452.87437808168,23709.929728644547
4452.897535338506,24087.805119984616
4452.92069271576,24536.774204776393
4452.943850213445,25076.153197949814
4452.967007831562,25517.62937587123
4452.99016557011,25471.707883012983
4453.01332342909,25387.99187550534
4453.036481408502,25209.837601384414
4453.059639508349,24673.343322965404
4453.08279772863,24316.441375617727
4453.105956069345,24055.75800365825
4453.129114530496,23784.991688936763
4453.152273112083,23744.725726006942
4453.175431814107,23766.034869774936
4453.198590636567,23991.26299482277
4453.221749579466,24381.666493710658
4453.244908642802,24343.432522102907
4453.268067826579,24116.60890182723
4453.291227130795,24258.176390906094
4453.314386555451,23518.90494371015
4453.337546100549,23129.36088922256
4453.360705766087,22958.530666154988
4453.3838655520685,22590.40971739042
4453.407025458493,22560.244321183014
4453.430185485361,23061.90688757634
4453.453345632673,23839.397742244728
4453.476505900429,24606.870822513683
4453.4996662886315,26150.149220665302
4453.52282679728,27001.671024138726
4453.545987426375,28331.430149413372
4453.569148175917,28921.191251459546
4453.592309045907,29353.699467085775
4453.615470036346,29910.238955203364
4453.638631147233,29934.269647203415
4453.661792378571,29638.48505664159
4453.684953730359,29460.178491419374
4453.708115202598,29037.008587386073
4453.731276795288,28524.359922181182
4453.754438508431,28534.9335911836
4453.777600342027,28125.195122681325
4453.800762296077,28242.42878365014
4453.82392437058,28479.56214242502
4453.847086565538,28841.38492375363
4453.870248880952,29726.97472995198
4453.8934113168225,30847.94716253057
4453.916573873149,31556.598919227603
4453.939736549933,32260.07880526033
4453.962899347174,32722.123620062735
4453.986062264875,33141.12866989252
4454.009225303034,33295.5521812622
4454.032388461654,33395.25742895227
4454.055551740734,33596.61143961575
4454.078715140275,32956.77186147457
4454.101878660277,32447.30562189867
4454.125042300742,31861.86473113458
4454.14820606167,30924.249972514495
4454.171369943061,29909.30466616126
4454.194533944917,28592.807694888103
4454.2176980672375,27379.784397849024
4454.240862310024,26105.70013656229
4454.264026673275,24665.107520582405
4454.287191156994,23353.100828107064
4454.31035576118,22058.279294467295
4454.333520485834,20556.954480240875
4454.356685330957,18967.35029509134
4454.379850296548,17711.88311819582
4454.40301538261,16379.043554751945
4454.426180589142,15057.639258083473
4454.449345916145,14194.076231301402
4454.4725113636205,13267.4415472006
4454.495676931568,12727.055587214341
4454.5188426199875,12484.473585037747
4454.542008428882,12501.10483201086
4454.565174358249,12810.589266428937
4454.588340408092,13209.380994304709
4454.611506578411,13676.915377705163
4454.634672869205,13683.15040763
4454.657839280476,13745.22681061267
4454.681005812225,13169.89794866801
4454.704172464451,12585.797296629518
4454.727339237156,11912.799483639343
4454.750506130341,10986.98487963605
4454.773673144005,10037.577213977944
4454.79684027815,9270.343082154897
4454.820007532776,8754.355707434683
4454.843174907884,8254.009502873669
4454.866342403473,8320.714943813546
4454.889510019546,8411.428804260151
4454.912677756102,8862.379656192208
4454.935845613144,9373.370591560088
4454.959013590669,10095.907825192484
4454.982181688681,11082.056372448951
4455.005349907178,12119.950870746045
4455.028518246162,13232.47330177907
4455.051686705633,14093.907535872033
4455.074855285593,14781.705939853939
4455.098023986041,15291.406636422727
4455.121192806979,15836.029994787623
4455.144361748406,16527.49689756295
4455.167530810323,17076.136889010028
4455.190699992732,17775.212437171656
4455.213869295633,18541.363840017875
4455.237038719026,19111.697377038818
4455.260208262912,19573.150831985535
4455.283377927292,20252.73542051628
4455.306547712166,20212.192227592066
4455.329717617535,19994.779575647604
4455.352887643399,19822.777093544748
4455.37605778976,19957.509599655015
4455.399228056617,20071.72228529768
4455.422398443972,20603.516249487806
4455.445568951825,21363.651921837074
4455.468739580177,22349.34825469296
4455.491910329028,23530.654487365882
4455.515081198378,25006.883665459736
4455.538252188229,26029.75699492626
4455.561423298582,26654.1672385458
4455.584594529436,27115.316267925908
4455.607765880793,27275.98331969391
4455.630937352652,27013.090303089328
4455.654108945016,26117.741910337863
4455.677280657883,24931.816652253878
4455.700452491255,23669.719062417844
4455.723624445134,22379.71693463283
4455.746796519518,21227.93870204235
4455.7699687144095,20074.215547417596
4455.793141029808,18676.440809290056
4455.816313465714,17408.412264767907
4455.83948602213,16390.206033155282
4455.862658699055,15241.536083396675
4455.885831496489,14355.79518606242
4455.909004414434,13820.814931734662
4455.932177452891,13335.634207924799
4455.955350611858,13279.569705952823
4455.978523891339,13657.810774512527
4456.001697291333,14301.276368973113
4456.024870811841,15252.160254330916
4456.048044452862,16799.679850161283
4456.071218214399,18453.291866774256
4456.094392096451,20175.875565253118
4456.117566099019,22060.996085498475
4456.140740222105,23495.767535518164
4456.163914465707,24698.400345256858
4456.187088829828,25537.617757731663
4456.210263314468,25918.629031366912
4456.233437919626,26023.65814025641
4456.256612645306,25593.148858100765
4456.279787491505,24878.761782778656
4456.302962458226,24351.371835844384
4456.326137545469,23429.329761194047
4456.349312753233,22357.687889254532
4456.372488081522,21247.545919809585
4456.395663530333,20032.859996041243
4456.41883909967,18949.388026882814
4456.442014789531,18139.196952126
4456.465190599917,17734.003733983238
4456.488366530831,17557.013212600694
4456.5115425822705,17821.295769201053
4456.5347187542375,18313.936239798306
4456.557895046733,18827.038802686806
4456.581071459757,19218.42582589657
4456.604247993311,19851.88026848638
4456.627424647395,20146.17373615252
4456.650601422009,19939.53934412821
4456.673778317154,20060.757361562428
4456.696955332832,20167.017145114984
4456.720132469041,20360.85144268011
4456.7433097257845,20940.505616785398
4456.766487103061,21658.300924283016
4456.789664600872,23081.37289628912
4456.8128422192185,24643.081743258128
4456.8360199581,25744.932440505534
4456.859197817518,26995.102300838764
4456.882375797473,28135.005795448225
4456.905553897966,28864.769398257213
4456.928732118997,29645.510945210553
4456.951910460566,29535.073346185593
4456.975088922674,29386.173676108425
4456.998267505323,29287.446681929126
4457.021446208513,28694.043404820986
4457.044625032244,28335.908459176997
4457.067803976516,28016.536654099298
4457.090983041332,27781.039139262575
4457.1141622266905,27260.285530294896
4457.1373415325925,27158.17285197076
4457.160520959039,26897.414150762364
4457.183700506031,26891.136401864533
4457.206880173568,26755.729104308837
4457.230059961651,26951.395861892874
4457.2532398702815,26763.959295422545
4457.27641989946,26208.25272868592
4457.299600049186,25718.032545167418
4457.322780319461,25098.595804903973
4457.345960710286,24303.341503818283
4457.36914122166,23154.285476958365
4457.392321853586,21983.966015096317
4457.415502606062,20840.878957364017
4457.43868347909,19521.659041235045
4457.461864472672,18560.56893421484
4457.485045586805,17427.15981500416
4457.508226821494,16750.04778498813
4457.5314081767365,16214.723855068409
4457.554589652534,16187.519146545632
4457.577771248887,16485.988167887794
4457.600952965797,17519.783993409583
4457.624134803263,18851.132893186314
4457.647316761288,20194.012445925542
4457.67049883987,21724.600433021616
4457.693681039011,23446.547390844295
4457.716863358712,24911.13220350501
4457.7400457989725,26259.778262289703
4457.763228359793,27571.527387141083
4457.7864110411765,28583.593153135917
4457.809593843121,29009.48237844965
4457.832776765628,28984.102766918204
4457.855959808699,28740.189225975162
4457.879142972333,28315.47147409962
4457.902326256532,28068.78127970227
4457.925509661296,27185.511308626006
4457.948693186626,26963.669029613502
4457.971876832522,26017.849414369946
4457.995060598985,25383.37183747258
4458.018244486016,24137.597741846806
4458.041428493615,23202.711460360155
4458.0646126217825,21792.32476740546
4458.08779687052,20888.82759596715
4458.110981239827,19573.018452281125
4458.134165729705,18591.945750933697
4458.157350340155,17781.010287121862
4458.180535071177,17411.500953811912
4458.203719922771,16644.538884798974
4458.226904894938,16819.882522682805
4458.2500899876795,16891.710000287738
4458.273275200995,17165.783879280883
4458.296460534886,17828.10376981653
4458.3196459893525,18423.423090727436
4458.342831564396,18868.669500008145
4458.366017260016,19222.6659222711
4458.389203076214,20054.25833041478
4458.4123890129895,21012.041941177435
4458.435575070344,21707.646243704934
4458.458761248279,22596.417258755464
4458.481947546794,23191.074429628374
4458.505133965889,23773.939847262307
4458.528320505566,23951.35873834171
4458.551507165825,24125.633018449196
4458.574693946666,24129.937637174586
4458.597880848091,24256.383143814783
4458.6210678701,24418.7123538047
4458.644255012693,24642.842256816966
4458.6674422758715,25089.069041317714
4458.690629659636,26054.41852998602
4458.713817163986,26826.528805446556
4458.737004788924,27834.193072339793
4458.76019253445,28299.213713171957
4458.783380400563,28719.932728697964
4458.8065683872655,28329.079649701398
4458.829756494558,27632.82359181094
4458.85294472244,27114.85239216999
4458.876133070914,26218.187644871912
4458.899321539979,24963.902313612347
4458.922510129635,23504.23468865873
4458.945698839884,21907.924908305635
4458.968887670727,20518.934750952554
4458.992076622164,18911.02497764065
4459.015265694195,17360.32293976628
4459.0384548868215,15440.341144024427
4459.061644200044,14011.666494502299
4459.084833633862,12477.860189189803
4459.108023188278,11378.31672723372
4459.131212863292,10166.114822049412
4459.154402658904,9459.60130957887
4459.177592575114,8671.160656979033
4459.200782611925,8775.511025658949
4459.223972769336,8878.107589940379
4459.247163047347,9629.352276024418
4459.27035344596,10348.17498747582
4459.293543965176,11277.299373369406
4459.316734604993,12727.411628274944
4459.339925365414,13918.501448254856
4459.363116246439,15358.815580095003
4459.386307248069,16875.35934506742
4459.409498370304,18276.60153647315
4459.432689613145,19534.53228917551
4459.455880976592,20715.009545531182
4459.479072460647,22126.76810925892
4459.502264065309,23196.93436661007
4459.52545579058,24848.42346440447
4459.5486476364595,26151.70430934297
4459.571839602949,27249.326886395487
4459.595031690048,28572.40056648476
4459.618223897759,28771.405584057673
4459.641416226081,29215.28002788625
4459.664608675014,29690.264312220468
4459.687801244561,29171.08273521347
4459.710993934721,28898.648179326407
4459.734186745496,28511.759681540425
4459.757379676885,27841.97681580409
4459.780572728889,27235.72545895629
4459.803765901509,27232.37984984988
4459.8269591947455,26627.12127313949
4459.850152608599,26523.030368696953
4459.87334614307,26639.14620247492
4459.89653979816,27153.13088514251
4459.91973357387,27835.64624178654
4459.942927470198,28494.691844749832
4459.966121487147,28733.51359799185
4459.989315624717,28770.265558575848
4460.0125098829085,28616.86462897678
4460.035704261722,28534.849470368055
4460.058898761158,27985.327567855573
4460.082093381218,26978.088662168633
4460.105288121902,25883.813996546996
4460.12848298321,24809.471774997706
4460.151677965145,23687.36368128264
4460.1748730677045,22223.81830161917
4460.198068290891,20988.531354790794
4460.221263634704,19647.75037249173
4460.244459099145,18530.076707240656
4460.267654684215,17615.604687093357
4460.290850389914,16717.049263644592
4460.314046216243,16328.300160146324
4460.337242163202,16364.972113585429
4460.360438230791,16776.625206374873
4460.383634419013,17933.28679310111
4460.406830727867,19400.570333073683
4460.430027157354,21013.297934212438
4460.453223707474,23087.442952904716
4460.476420378228,24875.128750133976
4460.499617169617,26969.579842468516
4460.522814081641,28645.887323402498
4460.5460111143,30274.13516134572
4460.569208267598,31477.5990741354
4460.592405541532,32230.537403470447
4460.615602936104,33217.73994489646
4460.638800451314,33490.961143474204
4460.661998087163,33537.68855827299
4460.685195843652,33717.50275037522
4460.708393720782,33993.18812488784
4460.731591718552,33704.94605959323
4460.754789836965,33264.52017510728
4460.777988076019,33107.94902183577
4460.801186435716,32617.952015027964
4460.824384916057,32017.135937557898
4460.847583517042,31553.758720636648
4460.870782238671,30794.63534490848
4460.893981080947,29938.30334398676
4460.917180043868,29322.7835411093
4460.940379127435,28544.94829049512
4460.963578331651,27628.220511189884
4460.986777656513,26725.12762396623
4461.009977102025,25733.076254302297
4461.033176668186,24446.41286426579
4461.056376354995,22917.950673358937
4461.079576162457,21478.49707389835
4461.102776090568,19887.208357574502
4461.125976139332,18371.56270644348
4461.149176308748,16959.050013492917
4461.172376598816,15390.501260042487
4461.195577009538,14230.28469549645
4461.218777540915,13239.052519406645
4461.241978192946,12531.5812769472
4461.265178965633,12261.549065926736
4461.2883798589755,12073.178513234368
4461.311580872974,12112.617647897945
4461.3347820076315,12360.907365649127
4461.357983262946,12566.525074813093
4461.381184638919,12622.75764201238
4461.404386135551,12742.184955505896
4461.4275877528435,12704.072172714066
4461.4507894907965,12609.802450219282
4461.4739913494095,12283.638343757171
4461.497193328685,11997.771291682386
4461.520395428623,11476.890710320755
4461.543597649224,10974.199050735384
4461.566799990488,10503.171035302377
4461.590002452416,10240.484043436481
4461.61320503501,10062.561047766561
4461.636407738269,9900.556427704354
4461.659610562193,9854.565099984795
4461.682813506784,9719.246665775721
4461.706016572044,9477.092291559895
4461.729219757971,9345.362413736524
4461.752423064566,9437.187542053603
4461.775626491831,9636.772731041885
4461.798830039766,10086.318366269668
4461.82203370837,10617.001434931632
4461.845237497647,11323.908470024526
4461.868441407595,12392.7836371448
4461.891645438215,13604.500891713142
4461.914849589509,14574.854105324428
4461.938053861475,15267.650432127593
4461.961258254117,15953.297228486628
4461.984462767433,15922.22765088181
4462.007667401424,15763.284878418015
4462.030872156092,15478.777443231847
4462.0540770314365,15271.277982257163
4462.077282027459,15008.999138826695
4462.100487144158,15266.78955632848
4462.123692381537,15681.133213764071
4462.146897739594,16262.563636194449
4462.170103218332,17319.69369102376
4462.19330881775,18491.59918372978
4462.21651453785,19698.01585563619
4462.239720378631,20608.584333016566
4462.262926340095,21280.192526813815
4462.286132422241,21828.16605231898
4462.309338625071,22158.456093525616
4462.3325449485865,22201.39388059454
4462.355751392785,22049.102103347104
4462.3789579576705,21931.542081857853
4462.402164643242,21672.627652428222
4462.4253714495,21231.290255385917
4462.448578376446,20758.44970859072
4462.471785424079,20352.528598143363
4462.494992592401,20167.471047437382
4462.518199881412,19931.96445251843
4462.541407291114,20142.957959599156
4462.564614821506,20660.617365645514
4462.587822472589,21725.640730615778
4462.611030244365,23032.596825010856
4462.634238136832,24616.917757047424
