wave,flux
5000.025812696027,34375.24105895036
5000.051815424163,32858.29065931276
5000.0778182875265,31178.666004912575
5000.103821286119,29490.5572659875
5000.12982441994,27648.211627287386
5000.155827688991,25723.042465939314
5000.181831093272,24110.698842459555
5000.207834632784,22586.108320795272
5000.2338383075285,21667.21163553254
5000.259842117506,21209.348335565555
5000.285846062716,21072.843740884335
5000.311850143161,21516.6361600457
5000.33785435884,22574.34735858704
5000.363858709754,24287.182913550103
5000.389863195905,26317.77295676626
5000.415867817292,28279.492892881128
5000.441872573917,30281.912259522942
5000.4678774657805,31379.77163486652
5000.493882492882,31844.676135384674
5000.519887655224,32197.87672587793
5000.545892952806,31637.12716155231
5000.571898385629,30784.948960853206
5000.597903953694,29666.290960726827
5000.623909657001,28633.096558474674
5000.649915495552,27729.680888845352
5000.675921469346,27138.28587252115
5000.701927578384,26925.732210039583
5000.727933822669,27176.496638884626
5000.7539402021985,27845.169055234248
5000.779946716975,28535.656056036074
5000.805953366999,29025.311233547658
5000.831960152272,29351.30980739667
5000.857967072792,29519.671190932437
5000.883974128563,29814.363061779084
5000.9099813195835,29960.051064141066
5000.935988645855,30443.225695159934
5000.961996107378,31271.623463480464
5000.988003704153,32251.179939928752
5001.014011436181,33623.222090421834
5001.040019303464,34485.73346147607
5001.066027306,35302.31615339315
5001.092035443791,35883.79970329163
5001.118043716839,36130.841761992524
5001.1440521251425,35927.79512741176
5001.170060668704,35532.76652365794
5001.196069347523,35296.373645378015
5001.222078161601,35017.492337560165
5001.248087110937,34735.073055589964
5001.274096195534,34511.011441219925
5001.300105415392,34104.26005072102
5001.326114770512,33228.08220791527
5001.352124260892,32554.526734031784
5001.3781338865365,31970.256133440118
5001.4041436474445,31212.193696229984
5001.430153543616,30521.446212669412
5001.456163575053,30128.017004256228
5001.482173741756,30233.400036640516
5001.508184043724,30110.138374442875
5001.534194480961,29773.460943735787
5001.560205053464,29077.59455350867
5001.586215761236,27806.182292428322
5001.612226604278,26242.111928091694
5001.638237582589,24509.503964621406
5001.664248696171,22576.775853480758
5001.690259945024,20478.78543367974
5001.716271329149,18435.298143346838
5001.742282848547,16582.462036763427
5001.768294503218,15406.174233148002
5001.794306293164,14763.615988151754
5001.820318218383,15020.776584614625
5001.84633027888,16385.26282438342
5001.872342474651,18424.81693763821
5001.8983548056995,21181.985129671713
5001.924367272026,24391.572002835615
5001.9503798736305,27443.749462821266
5001.976392610514,30078.87103196339
5002.002405482678,32478.82265803156
5002.028418490122,34422.06081641619
5002.054431632847,35779.137893073996
5002.080444910854,36854.959297236586
5002.106458324142,37509.17662044389
5002.1324718727155,37849.22489260973
5002.158485556572,38087.822796897904
5002.184499375713,38192.51456777733
5002.210513330139,38029.059950176124
5002.236527419852,38156.28610998058
5002.262541644852,37734.89785654436
5002.288556005138,37568.693450185194
5002.314570500714,37190.083821376546
5002.340585131577,36737.81461134426
5002.36659989773,36119.62096287863
5002.392614799174,35460.63905507242
5002.418629835909,34550.52534626512
5002.444645007936,33682.782481411305
5002.4706603152545,32952.42350590256
5002.496675757866,31756.917959723723
5002.522691335772,30355.991419900518
5002.548707048972,29131.051767610348
5002.574722897468,27951.842646286063
5002.600738881259,26631.917598941873
5002.626755000347,25060.907084705093
5002.652771254732,23822.69627375042
5002.678787644415,22401.071768865222
5002.704804169397,21695.790339039642
5002.730820829678,21379.689980643296
5002.75683762526,21984.575573273123
5002.782854556142,23552.12222549895
5002.8088716223265,25837.583850984425
5002.834888823812,28386.033164167304
5002.860906160601,31166.749717308732
5002.886923632695,33673.87037852847
5002.912941240092,35356.87718534904
5002.938958982793,36559.70123940762
5002.9649768608015,37528.37425039869
5002.990994874116,38084.9360733202
5003.017013022737,38264.122468709334
5003.043031306666,38657.17820372728
5003.069049725905,38744.13344405633
5003.095068280452,38589.966092632116
5003.121086970309,38652.53240732151
5003.147105795477,38588.27891985704
5003.173124755956,38389.906534459966
5003.199143851748,38663.54015384415
5003.225163082852,38652.734207781024
5003.251182449269,38193.642168518934
5003.277201951001,38128.843990572
5003.3032215880485,38136.555775201494
5003.32924136041,37929.324877088264
5003.35526126809,37708.49067358673
5003.381281311085,37298.56281871502
5003.407301489398,37040.76015494851
5003.433321803031,36975.323470311894
5003.459342251982,36330.348740606896
5003.4853628362525,35934.532639627556
5003.511383555844,35380.153512151956
5003.537404410757,34431.99919499381
5003.563425400991,33617.5659319856
5003.589446526548,32785.274148443874
5003.615467787429,31722.780496395684
5003.641489183634,30374.36977858567
5003.667510715163,29668.87267302232
5003.693532382018,29433.539881072695
5003.719554184199,29667.345467110677
5003.745576121707,30027.49525571392
5003.771598194542,30634.371968552692
5003.797620402706,31248.159178870912
5003.823642746199,31523.761415322944
5003.849665225021,31453.321355545777
5003.875687839174,30843.814460428326
5003.901710588658,30097.67918113006
5003.927733473473,29419.145680406746
5003.953756493622,28563.445536470783
5003.979779649103,28087.483056095374
5004.005802939919,28130.525540427327
5004.031826366068,29001.744463053514
5004.057849927553,29603.557808067744
5004.083873624375,31013.514739876264
5004.109897456533,32431.15517996574
5004.135921424028,33312.36979139907
5004.161945526862,33679.06743853801
5004.187969765035,34008.09238499152
5004.213994138547,34349.44037210102
5004.240018647399,34629.58905602543
5004.266043291592,34730.9696467721
5004.292068071127,34733.436567264784
5004.318092986004,35004.108640062106
5004.344118036223,35414.64517726396
5004.370143221788,35964.708441067574
5004.396168542696,36980.46557779753
5004.422193998949,37546.60806944882
5004.448219590549,37966.26344463876
5004.474245317495,38483.676199489004
5004.500271179789,38694.11226690154
5004.52629717743,38767.8230301898
5004.5523233104195,38678.506374862474
5004.578349578759,38670.10075401717
5004.604375982449,38552.19306836482
5004.630402521489,38384.412380659465
5004.656429195881,38167.054218423335
5004.682456005625,37786.91293284255
5004.708482950721,37326.63175316655
5004.734510031172,36853.33438870517
5004.760537246977,36241.059958363505
5004.7865645981365,35443.996842589266
5004.812592084652,34498.7677148423
5004.838619706525,33543.082401179156
5004.8646474637535,32722.464611582294
5004.890675356341,31831.69635193199
5004.916703384286,30922.901287162582
5004.942731547591,29980.711937818534
5004.968759846256,28771.864666798603
5004.994788280281,27412.44738260864
5005.020816849668,25999.080223847017
5005.046845554417,24547.624067327626
5005.072874394528,23333.291924891255
5005.098903370003,22713.592839419187
5005.124932480842,23086.055532098337
5005.150961727047,24101.49830611594
5005.176991108617,25725.16968510587
5005.203020625552,27919.01863274005
5005.229050277856,30065.81841894592
5005.255080065526,31735.46763448405
5005.281109988566,32886.68311453855
5005.3071400469735,33326.33406129962
5005.333170240751,33150.232566785344
5005.3592005699,32582.667067289898
5005.38523103442,31406.077006514428
5005.411261634312,30004.623318498812
5005.4372923695755,28337.70518344534
5005.463323240213,26587.787747006525
5005.489354246225,24540.77629628093
5005.515385387611,22457.823370431786
5005.541416664373,20670.111521149116
5005.567448076511,18768.331701926374
5005.593479624025,17071.526959492356
5005.619511306918,15825.45828088037
5005.645543125189,14958.43840256443
5005.671575078838,14858.577260519907
5005.697607167867,15512.42094146038
5005.723639392277,16781.83779917772
5005.749671752068,18273.33142702914
5005.77570424724,19677.225605753236
5005.8017368777955,20714.99016514608
5005.8277696437335,21123.039904485882
5005.853802545055,21104.02785977281
5005.879835581762,20475.279584591288
5005.905868753854,19020.217272427166
5005.931902061331,17477.7910154221
5005.957935504196,15926.305469930485
5005.983969082448,14146.630457896837
5006.010002796088,12710.078658739067
5006.036036645117,12068.54421678575
5006.062070629536,12128.820048125399
5006.088104749344,12929.440551155665
5006.114139004544,14587.26937194851
5006.140173395135,16975.056867635136
5006.166207921118,20041.922733317264
5006.192242582495,23107.524347983843
5006.218277379266,26233.898868609424
5006.244312311431,29138.141138656694
5006.270347378991,31681.22749175661
5006.296382581946,33664.73209211635
5006.322417920299,35111.693666948304
5006.348453394048,36199.161662507024
5006.374489003196,36787.13346722818
5006.400524747743,37226.783827965904
5006.426560627688,37402.35288582387
5006.452596643034,37287.575539408965
5006.47863279378,37437.17124719411
5006.504669079928,37368.788166029306
5006.530705501478,37131.39373608151
5006.556742058431,37341.57367853396
5006.582778750788,37263.35217072864
5006.608815578549,37073.196056711415
5006.634852541715,37041.471437569555
5006.660889640287,36869.05910435323
5006.686926874265,36857.53091494476
5006.71296424365,36876.65139221381
5006.739001748444,36702.22680358292
5006.765039388645,36538.75957967087
5006.791077164256,36169.03752233813
5006.817115075277,35454.52785721399
5006.843153121708,34432.40187547907
5006.869191303552,33161.23009855669
5006.895229620806,31778.385304717034
5006.921268073474,30239.61711074491
5006.947306661555,28517.22286601909
5006.97334538505,26613.429462390384
5006.999384243961,24611.58956578134
5007.025423238286,22511.91240754756
5007.051462368028,20044.43444246971
5007.077501633187,17571.07176359315
5007.103541033764,15839.529315870293
5007.129580569759,14242.85489327111
5007.155620241173,13249.633011571641
5007.181660048007,13286.658184150056
5007.207699990262,14098.771025182295
5007.233740067937,15717.71821452471
5007.259780281035,18080.43873560592
5007.285820629555,20777.551514154966
5007.311861113499,23793.321614060478
5007.337901732866,27041.893129383745
5007.363942487658,29994.981523545703
5007.389983377876,32262.433204066412
5007.41602440352,33942.044332760895
5007.442065564591,35238.990108649654
5007.468106861089,35857.84338805441
5007.494148293015,35921.78165095039
5007.520189860371,36093.56181224294
5007.546231563156,35954.71568898397
5007.572273401372,35465.83101397943
5007.598315375018,34698.2873092401
5007.624357484096,34505.813484430815
5007.650399728607,34129.5576313119
5007.676442108551,33966.594689152815
5007.702484623929,34434.15790986305
5007.728527274741,35331.52653703158
5007.754570060989,36246.83799327548
5007.780612982673,37361.070298658
5007.806656039793,38415.81281724061
5007.832699232351,38800.349221107725
5007.858742560347,39249.209191466296
5007.884786023782,39546.885805907565
5007.910829622656,39795.76767646232
5007.936873356971,40066.32651409726
5007.962917226726,39925.45352338726
5007.988961231923,39683.59012965225
5008.015005372563,39677.584933564416
5008.041049648646,39856.56185232186
5008.067094060171,40083.63243721268
5008.0931386071425,40070.1614867903
5008.119183289558,40197.1097469255
5008.14522810742,40482.8197580706
5008.171273060728,40627.990497926345
5008.197318149483,40687.501350758626
5008.223363373687,40538.31722091661
5008.249408733339,40716.91815506318
5008.27545422844,40661.120541234865
5008.301499858992,40429.58793768204
5008.327545624995,40581.38370948485
5008.353591526448,40052.455353716854
5008.379637563355,39618.84668551255
5008.405683735714,39451.09295896392
5008.431730043527,39265.40425535913
5008.457776486794,38811.116459060766
5008.483823065515,38312.60151105961
5008.509869779693,37949.513179765214
5008.535916629327,37595.2558654325
5008.561963614418,37471.03310695877
5008.588010734968,37333.55427169014
5008.614057990975,37364.39079420888
5008.640105382442,37826.437906159605
5008.666152909369,38391.222874659514
5008.692200571756,39062.58001531685
5008.718248369605,39503.278003005726
5008.744296302916,39893.265322934414
5008.77034437169,39846.12286735651
5008.796392575927,39895.830886794036
5008.822440915628,39973.186236670306
5008.848489390794,40019.548253209075
5008.874538001426,40131.51944888743
5008.900586747524,40154.546767372725
5008.926635629089,40168.304965817806
5008.952684646122,40395.44261809148
5008.978733798623,40147.37243910773
5009.004783086593,40097.67658132094
5009.030832510033,40002.89101038179
5009.056882068944,40049.85028036176
5009.082931763326,40159.682022367124
5009.108981593179,40042.399848643254
5009.135031558506,39916.30837014568
5009.161081659306,39923.818993275
5009.187131895579,39935.77283397866
5009.213182267327,39855.74128791388
5009.239232774552,39850.716842088426
5009.265283417251,39730.863274913994
5009.291334195428,39354.46134904251
5009.317385109083,38961.03394369981
5009.343436158216,38391.7401545543
5009.369487342828,37907.81192293877
5009.395538662919,37382.056305217666
5009.421590118491,36734.434747553736
5009.447641709544,36364.29059615661
5009.473693436078,35725.96431773525
5009.499745298095,35208.91110926379
5009.525797295596,34519.33975386508
5009.55184942858,33895.602396774164
5009.577901697049,33543.93166822819
5009.603954101003,33383.247710555974
5009.630006640443,33762.44488793574
5009.65605931537,34602.6554282419
5009.682112125784,35325.09606358611
5009.708165071686,35891.623622509294
5009.7342181530785,35939.41094378619
5009.760271369959,35865.67972967743
5009.78632472233,35576.104697168645
5009.812378210192,34799.70281975501
5009.838431833546,33845.09627400704
5009.864485592391,32771.67703050366
5009.890539486731,31107.22622740704
5009.916593516564,29468.781368280055
5009.942647681891,28133.301015497906
5009.968701982713,26776.866828027316
5009.994756419032,25939.226778423785
5010.020810990847,25248.37374784198
5010.046865698159,25025.068146025504
5010.072920540969,24864.88048684657
5010.098975519279,24530.300560549564
5010.125030633087,24212.788872433124
5010.151085882395,24606.32994674519
5010.177141267204,25294.96360175114
5010.2031967875155,26709.892698069565
5010.229252443328,28660.756961221774
5010.255308234644,30582.479877163412
5010.281364161464,32692.126522307757
5010.307420223788,34715.56161581966
5010.333476421617,36294.5082329444
5010.359532754951,37580.30022339127
5010.3855892237925,38702.6121622572
5010.4116458281405,39464.56345676982
5010.437702567997,39584.10575435038
5010.463759443362,39867.691747065204
5010.489816454236,40114.7076532584
5010.51587360062,40000.73973730904
5010.541930882514,39682.189584319814
5010.56798829992,39324.36229828399
5010.5940458528385,38910.31053100912
5010.62010354127,38378.979001288404
5010.646161365214,37595.315413199925
5010.672219324672,36566.81611658975
5010.698277419646,35514.29834873557
5010.724335650135,34204.4732834637
5010.7503940161405,32978.82481787243
5010.7764525176635,31638.10840574133
5010.802511154703,30194.085877630052
5010.828569927262,29076.084463024617
5010.85462883534,28386.775969870883
5010.880687878937,28221.573504087784
5010.906747058056,29016.406354406226
5010.932806372695,30272.49531458078
5010.958865822856,32136.907107924002
5010.98492540854,34113.69815361037
5011.0109851297475,35716.517670222056
5011.0370449864795,37398.13428281753
5011.063104978735,38544.089256795705
5011.089165106517,39192.120568200735
5011.115225369825,39654.31385618073
5011.14128576866,39786.515534078644
5011.167346303022,39803.94801617292
5011.193406972913,39823.39126501333
5011.219467778333,40055.89382224056
5011.2455287192815,40305.353895217464
5011.271589795761,40347.435945124176
5011.297651007772,40352.33654975382
5011.323712355315,40289.74076578795
5011.34977383839,40004.57806121362
5011.375835456999,39735.59078425012
5011.401897211142,39542.79803862274
5011.427959100819,39195.4197511565
5011.454021126031,38752.81025831738
5011.4800832867795,38144.351138156315
5011.506145583065,37500.17755434249
5011.532208014888,36611.733851199235
5011.558270582248,35528.13449223064
5011.584333285148,34800.56073917703
5011.610396123588,33506.32909921433
5011.636459097567,32507.829061923156
5011.662522207088,31266.04120949072
5011.68858545215,29886.680947780154
5011.714648832754,28834.682806581684
5011.740712348902,27576.073387373304
5011.766776000594,26123.895848591077
5011.79283978783,24926.37902344867
5011.818903710611,23251.412855064893
5011.844967768939,21304.874590130643
5011.871031962813,19212.412985498704
5011.897096292234,17110.690440810045
5011.923160757203,14927.126488996488
5011.949225357721,13077.865629356234
5011.975290093788,11654.631034210995
5012.001354965406,10856.600474828489
5012.027419972574,10903.996137832219
5012.053485115294,11609.64432740518
5012.079550393566,12977.961756984643
5012.105615807392,14830.361065078776
5012.13168135677,16925.599154267657
5012.157747041703,19416.193033255924
5012.183812862192,21876.915936098398
5012.209878818236,23777.03313350579
5012.235944909837,25219.99010093774
5012.262011136994,26007.823428362524
5012.28807749971,26109.681620062896
5012.3141439979845,25795.22224981978
5012.340210631818,25127.162062141397
5012.366277401212,24460.368851477604
5012.392344306166,24411.698458962255
5012.418411346682,24683.472817965554
5012.44447852276,25819.503178051462
5012.470545834401,27198.629353993638
5012.496613281605,28448.53369267753
5012.522680864374,29585.346330148997
5012.548748582707,30448.438441685066
5012.574816436606,30905.155628678804
5012.600884426071,30979.74906256061
5012.626952551104,31010.10794720212
5012.653020811705,31485.183117574783
5012.679089207873,32313.417772453424
5012.705157739611,33308.6438081914
5012.73122640692,34833.07446401221
5012.757295209798,36457.814717461726
5012.7833641482475,37355.38394251961
5012.80943322227,38033.78145994309
5012.835502431864,38734.27722145905
5012.861571777033,39073.55168497655
5012.887641257775,38831.91083299209
5012.9137108740915,38545.5727322957
5012.939780625984,38327.57170492824
5012.965850513452,37801.87357197346
5012.991920536498,36989.968811747465
5013.017990695121,36074.782568050054
5013.044060989323,34903.74138525301
5013.070131419104,33433.862863578834
5013.096201984464,32147.37958450669
5013.122272685405,30788.065788213993
5013.148343521927,29163.232344436925
5013.17441449403,27325.093653887565
5013.200485601717,25974.604048875884
5013.226556844987,24954.072549031047
5013.2526282238405,24271.03717240771
5013.278699738279,24319.051606724595
5013.304771388303,25117.572401762485
5013.330843173913,25899.486078236925
5013.35691509511,26660.641566050785
5013.382987151894,27244.517084713243
5013.409059344267,27215.97319961186
5013.435131672228,26778.63649286036
5013.46120413578,25757.130951319672
5013.487276734921,24486.34550900447
5013.513349469653,22696.207282706146
5013.539422339977,21001.273349565516
5013.565495345894,19488.13509255196
5013.5915684874035,18016.112924831417
5013.617641764507,17239.551892674805
5013.643715177206,17390.091730983648
5013.6697887254995,18444.10483524898
5013.695862409389,20012.135923262314
5013.721936228875,22188.413729864806
5013.748010183958,24576.62621264713
5013.77408427464,26831.41038605092
5013.800158500921,28432.474927280487
5013.826232862801,29410.422103317283
5013.852307360281,29975.099812469463
5013.8783819933615,29964.251421444726
5013.904456762045,29507.61163865035
5013.930531666329,28720.906646673488
5013.956606706218,27751.074627609134
5013.982681881709,26372.15963189648
5014.008757192805,24485.388078547145
5014.034832639507,22560.51361645687
5014.060908221814,20270.900986871893
5014.086983939728,17958.43139864574
5014.113059793249,16077.69949227064
5014.139135782378,14583.883236105523
5014.165211907116,14074.488211407664
5014.1912881674625,14151.820224590163
5014.21736456342,15220.602444883561
5014.243441094988,17097.04029800254
5014.269517762167,19489.81088311238
