wave,flux
4450.003811362098,38075.82363013482
4450.026953690486,36998.7693552742
4450.050096139227,35915.97990521573
4450.073238708321,34252.43656045531
4450.096381397769,32409.144196297595
4450.119524207569,30280.385882732848
4450.142667137726,27889.074729433967
4450.165810188237,25324.70350592634
4450.188953359103,22734.529941595734
4450.212096650326,20143.450729617314
4450.2352400619075,17387.130893075246
4450.258383593846,15010.981724121446
4450.281527246142,13224.094321646682
4450.304671018797,11850.496577843298
4450.327814911813,10789.786304828676
4450.350958925188,9910.626625251916
4450.374103058924,9287.479715522335
4450.3972473130225,8855.698947830044
4450.420391687483,8792.708770901463
4450.443536182305,9036.372192547824
4450.466680797492,9690.567155624394
4450.489825533042,10995.67955138357
4450.512970388957,12850.469612080273
4450.536115365237,14693.499297374741
4450.559260461882,17048.127905829628
4450.582405678895,19066.65315083474
4450.605551016274,20171.26340064289
4450.628696474022,20744.760397342205
4450.651842052138,21149.41002250684
4450.674987750623,21134.588102977552
4450.698133569476,21277.82468119005
4450.721279508702,21754.406709644398
4450.744425568297,22612.6267717556
4450.767571748264,23584.404601112754
4450.790718048604,24571.217509096045
4450.813864469315,26053.657521032215
4450.837011010401,27252.980735091794
4450.86015767186,29023.818351757945
4450.883304453694,31580.272438057284
4450.906451355903,34543.57109913647
4450.929598378489,37432.4025090908
4450.95274552145,39771.84056496994
4450.975892784789,41635.7469403619
4450.999040168505,43115.077242989544
4451.022187672601,44063.126249071975
4451.045335297074,44622.59699113679
4451.068483041929,44959.42175263047
4451.091630907163,45056.07049300605
4451.114778892777,44922.88103415341
4451.137926998774,44484.95356246978
4451.161075225153,43964.49201195962
4451.184223571914,43204.7837172751
4451.207372039059,42078.05214131059
4451.230520626587,40897.484907322265
4451.253669334501,39813.5158005333
4451.2768181628,38199.989543359035
4451.299967111485,35905.824362233136
4451.323116180556,34158.19583600607
4451.346265370014,31543.36337630445
4451.369414679861,29324.298940009787
4451.392564110095,26703.97256778632
4451.415713660719,23957.614238400685
4451.438863331732,21578.243819448362
4451.462013123136,19466.261941610082
4451.48516303493,17868.44757373477
4451.508313067117,16891.85455009189
4451.531463219695,17359.868447234272
4451.554613492666,18659.728082588932
4451.577763886031,21211.939836889796
4451.60091439979,24335.01592529831
4451.624065033943,27844.535557796396
4451.647215788492,31088.748869332212
4451.670366663436,33902.740329779415
4451.693517658777,35864.927557851646
4451.716668774516,37308.96443420695
4451.739820010652,37962.55229211634
4451.762971367186,37716.36811969401
4451.78612284412,36974.44738665937
4451.8092744414525,35709.5404596431
4451.832426159187,34096.26405887587
4451.855577997321,32270.25768179214
4451.878729955857,30521.063586949407
4451.901882034796,28951.582659357893
4451.925034234137,28132.253295550032
4451.948186553881,28207.09845976516
4451.97133899403,28956.906234020516
4451.994491554583,30599.023546037122
4452.017644235542,32750.384544451434
4452.040797036907,35239.26371327529
4452.063949958678,37285.329041201265
4452.087103000857,39249.58586893869
4452.1102561634425,40975.147659578324
4452.133409446437,42567.561820584626
4452.156562849841,43860.99571418263
4452.179716373655,44439.06797191273
4452.202870017878,44869.78693612768
4452.226023782513,44889.20968865244
4452.24917766756,44538.080781286946
4452.272331673018,44450.996423907935
4452.29548579889,43784.92350194914
4452.318640045174,43350.53905057821
4452.341794411874,42720.460798692846
4452.364948898987,41675.252531218546
4452.388103506516,40365.15592453817
4452.4112582344615,38793.99104327824
4452.434413082823,37544.38097161416
4452.457568051602,35606.03764567667
4452.480723140799,33725.82385970629
4452.503878350413,31984.236205508707
4452.527033680448,30127.328752065307
4452.550189130902,28983.579924569105
4452.5733447017765,27720.24637851345
4452.596500393071,27266.82364501254
4452.619656204789,26476.690765890173
4452.642812136928,26255.54600775484
4452.66596818949,26488.454558113208
4452.689124362475,27194.17034936299
4452.7122806558855,28006.41572085617
4452.735437069719,29428.19261898915
4452.7585936039795,30874.1822999974
4452.781750258665,31850.21370019917
4452.804907033777,32398.91987064874
4452.828063929317,32427.137694665238
4452.851220945285,32025.706629867793
4452.87437808168,31203.89757162126
4452.897535338506,30050.586504657425
4452.92069271576,28918.247419401607
4452.943850213445,28377.884567083787
4452.967007831562,28533.68044961367
4452.99016557011,29139.121013220345
4453.01332342909,30221.398163917875
4453.036481408502,31211.975886104156
4453.059639508349,31661.60040041645
4453.08279772863,31533.566587312336
4453.105956069345,30790.67509881647
4453.129114530496,30052.243029783538
4453.152273112083,28879.120478181427
4453.175431814107,27255.50870018136
4453.198590636567,25944.30852288248
4453.221749579466,24956.006304495917
4453.244908642802,24482.561823948166
4453.268067826579,24615.838052873183
4453.291227130795,25916.117566268174
4453.314386555451,28714.550135963487
4453.337546100549,31293.77321472613
4453.360705766087,34047.16184391756
4453.3838655520685,36463.19445201526
4453.407025458493,38165.495082848356
4453.430185485361,38721.97030401813
4453.453345632673,39318.93715856071
4453.476505900429,38975.80157264665
4453.4996662886315,38094.7416755309
4453.52282679728,37287.07808176607
4453.545987426375,36010.20441775453
4453.569148175917,34713.27176327979
4453.592309045907,33444.20443523481
4453.615470036346,32511.75812350927
4453.638631147233,31748.97808704761
4453.661792378571,32059.526180770565
4453.684953730359,33042.13475179749
4453.708115202598,34742.2536886118
4453.731276795288,36666.133259958966
4453.754438508431,38540.98421115112
4453.777600342027,40102.51954837574
4453.800762296077,41290.403135314154
4453.82392437058,42107.80779757154
4453.847086565538,43149.69628292748
4453.870248880952,43441.42439128022
4453.8934113168225,43789.48528294788
4453.916573873149,43850.435769686424
4453.939736549933,43731.9602332546
4453.962899347174,43388.451448736094
4453.986062264875,42706.023263229414
4454.009225303034,41682.06497208026
4454.032388461654,40756.25105938258
4454.055551740734,39542.57101326351
4454.078715140275,37748.59422641258
4454.101878660277,35775.327110629856
4454.125042300742,33468.454253974975
4454.14820606167,30997.288450722845
4454.171369943061,28491.370125015324
4454.194533944917,25779.995792175912
4454.2176980672375,23019.50406918226
4454.240862310024,20417.924534571954
4454.264026673275,18165.31199706205
4454.287191156994,16041.024901017117
4454.31035576118,14511.408928318837
4454.333520485834,14143.509793854744
4454.356685330957,14513.208283826278
4454.379850296548,15800.402107736538
4454.40301538261,17443.972579159374
4454.426180589142,19088.22811511469
4454.449345916145,20482.266846686678
4454.4725113636205,20705.579343983118
4454.495676931568,20468.59671903768
4454.5188426199875,19683.10931095253
4454.542008428882,17967.76173618345
4454.565174358249,16129.004844565481
4454.588340408092,13820.635678679037
4454.611506578411,11973.169847939103
4454.634672869205,10456.769732558081
4454.657839280476,9293.2273929926
4454.681005812225,8664.47706022303
4454.704172464451,8310.244585447694
4454.727339237156,8269.716269907982
4454.750506130341,8834.23247651397
4454.773673144005,9893.579794470852
4454.79684027815,11146.792935442752
4454.820007532776,12768.9665203023
4454.843174907884,14499.264670709957
4454.866342403473,15575.712102261079
4454.889510019546,16566.104030793154
4454.912677756102,17190.883539635895
4454.935845613144,17639.252095604992
4454.959013590669,18090.826293927817
4454.982181688681,19103.11526559081
4455.005349907178,20865.439973616012
4455.028518246162,22559.3987991045
4455.051686705633,24195.186607182364
4455.074855285593,25372.59276535736
4455.098023986041,26109.233794160067
4455.121192806979,26163.069789032474
4455.144361748406,25321.13034118764
4455.167530810323,24258.626218285925
4455.190699992732,22794.53854191788
4455.213869295633,21750.497932702387
4455.237038719026,21202.778083074085
4455.260208262912,21345.9097162084
4455.283377927292,22859.582696010915
4455.306547712166,25492.303235147876
4455.329717617535,28293.226097996616
4455.352887643399,31111.747602692878
4455.37605778976,33886.03225745048
4455.399228056617,36035.85144923352
4455.422398443972,37420.903797620296
4455.445568951825,37867.38735105388
4455.468739580177,37543.29415345752
4455.491910329028,36876.32468336938
4455.515081198378,35277.72607833464
4455.538252188229,33580.34380050624
4455.561423298582,31539.121471121092
4455.584594529436,29324.73740336818
4455.607765880793,27339.681140166507
4455.630937352652,25446.254819784983
4455.654108945016,23463.54230445124
4455.677280657883,21611.546765393705
4455.700452491255,19415.184466555304
4455.723624445134,17254.95415381701
4455.746796519518,15471.019606188473
4455.7699687144095,13704.593309393305
4455.793141029808,12714.73826064929
4455.816313465714,12685.961373467073
4455.83948602213,13453.797816721086
4455.862658699055,15279.270017675584
4455.885831496489,17796.65485211719
4455.909004414434,21011.56632472586
4455.932177452891,24513.359610410214
4455.955350611858,27835.046503083668
4455.978523891339,30862.087320303355
4456.001697291333,32938.931185647154
4456.024870811841,34345.18431306747
4456.048044452862,35186.35966999364
4456.071218214399,35392.95641126007
4456.094392096451,34948.2966180186
4456.117566099019,33679.376632966305
4456.140740222105,32234.77569385351
4456.163914465707,30657.424993821845
4456.187088829828,28730.18463114096
4456.210263314468,26426.284311648025
4456.233437919626,24038.52428998974
4456.256612645306,21975.71537742678
4456.279787491505,20891.056088113368
4456.302962458226,20392.05326425916
4456.326137545469,20367.064400813266
4456.349312753233,21194.94776834862
4456.372488081522,22185.611707993015
4456.395663530333,23379.00895938464
4456.41883909967,24481.959631241632
4456.442014789531,24874.117697061567
4456.465190599917,24456.821337923342
4456.488366530831,23880.468990406796
4456.5115425822705,22996.69028071531
4456.5347187542375,22265.615304813924
4456.557895046733,21756.25582291299
4456.581071459757,22426.347124705786
4456.604247993311,23861.81206177061
4456.627424647395,26419.547410362593
4456.650601422009,29345.915214280954
4456.673778317154,32002.60561083569
4456.696955332832,34874.070702274556
4456.720132469041,36800.06053173101
4456.7433097257845,37873.634345888124
4456.766487103061,38621.898184229125
4456.789664600872,38904.72457019847
4456.8128422192185,38058.37288861799
4456.8360199581,37251.00330451601
4456.859197817518,36393.65932014547
4456.882375797473,35389.89674238833
4456.905553897966,34432.05519318847
4456.928732118997,33346.692246676415
4456.951910460566,32658.3679497582
4456.975088922674,32300.55915153221
4456.998267505323,32326.59068906037
4457.021446208513,33121.031051582766
4457.044625032244,34383.64220289507
4457.067803976516,35501.1968421785
4457.090983041332,35962.77811247052
4457.1141622266905,36700.44857233556
4457.1373415325925,36289.556654829634
4457.160520959039,35082.68077035857
4457.183700506031,34005.42924157167
4457.206880173568,32394.63329183352
4457.230059961651,30197.785599131297
4457.2532398702815,27802.940673515903
4457.27641989946,25297.64333675405
4457.299600049186,22753.41488889015
4457.322780319461,20172.691791588753
4457.345960710286,18305.75939802607
4457.36914122166,16671.01202681784
4457.392321853586,15993.562487304987
4457.415502606062,16219.458431195066
4457.43868347909,17317.75809523281
4457.461864472672,19187.044646616945
4457.485045586805,21279.00291485161
4457.508226821494,24007.04823293978
4457.5314081767365,26850.482045646713
4457.554589652534,30072.2828319835
4457.577771248887,32631.328938830095
4457.600952965797,34799.289397933
4457.624134803263,37053.56479673121
4457.647316761288,37833.295872712944
4457.67049883987,38079.54947685089
4457.693681039011,38270.65980808331
4457.716863358712,37570.764099050066
4457.7400457989725,37160.43699808828
4457.763228359793,36724.53566644717
4457.7864110411765,36189.193344339474
4457.809593843121,35314.179747198796
4457.832776765628,34325.536375052616
4457.855959808699,33010.508110701245
4457.879142972333,31068.959014663043
4457.902326256532,29309.146029836902
4457.925509661296,27085.011370441884
4457.948693186626,24924.0119688032
4457.971876832522,22587.53192164405
4457.995060598985,21028.157737774694
4458.018244486016,19592.156731694136
4458.041428493615,18828.553108617216
4458.0646126217825,18757.746818265263
4458.08779687052,19064.66552185768
4458.110981239827,19582.88595476945
4458.134165729705,20030.99446124226
4458.157350340155,20829.284852207667
4458.180535071177,21322.686225866277
4458.203719922771,22356.31731407242
4458.226904894938,23567.90593266618
4458.2500899876795,25184.184644446665
4458.273275200995,27069.151398291906
4458.296460534886,28927.648885171853
4458.3196459893525,29828.42207285444
4458.342831564396,30182.112479899457
4458.366017260016,30059.37356557663
4458.389203076214,29138.838711538083
4458.4123890129895,28148.984443182177
4458.435575070344,27197.225854948403
4458.458761248279,26607.816437769623
4458.481947546794,27129.617273005715
4458.505133965889,28318.89298741891
4458.528320505566,30945.009109152186
4458.551507165825,33213.49136366962
4458.574693946666,35981.29601807034
4458.597880848091,37684.79680131537
4458.6210678701,39175.18302198159
4458.644255012693,39851.07599180209
4458.6674422758715,39834.99388050285
4458.690629659636,39234.566578921345
4458.713817163986,38038.374962798574
4458.737004788924,36493.45374756447
4458.76019253445,34537.31957958192
4458.783380400563,32074.187089488245
4458.8065683872655,30139.241813449466
4458.829756494558,27517.046070710698
4458.85294472244,25018.280286988556
4458.876133070914,21894.210056832613
4458.899321539979,19015.018497212888
4458.922510129635,16155.82997497266
4458.945698839884,13796.021269570132
4458.968887670727,11453.86072763325
4458.992076622164,9680.131620758759
4459.015265694195,8623.414002682875
4459.0384548868215,8342.232094634624
4459.061644200044,8482.71506640136
4459.084833633862,9251.021030773005
4459.108023188278,10316.27069860747
4459.131212863292,11721.851248146875
4459.154402658904,13473.699965411628
4459.177592575114,15368.97596123594
4459.200782611925,17094.5659507509
4459.223972769336,18402.09156049103
4459.247163047347,19753.50226304922
4459.27035344596,21175.961864529312
4459.293543965176,22349.31891792128
4459.316734604993,24191.969799186176
4459.339925365414,26656.958635047395
4459.363116246439,29565.059146617903
4459.386307248069,32525.81082608343
4459.409498370304,34976.25454119399
4459.432689613145,37372.98484308636
4459.455880976592,38363.7883551039
4459.479072460647,38902.76205306496
4459.502264065309,39023.66698104603
4459.52545579058,38175.863012743546
4459.5486476364595,37037.066299230195
4459.571839602949,36009.042147306194
4459.595031690048,34050.99096611165
4459.618223897759,32830.47034566367
4459.641416226081,30959.101443994103
4459.664608675014,29985.357969613615
4459.687801244561,29445.63415546258
4459.710993934721,29807.01873835424
4459.734186745496,30778.88273808591
4459.757379676885,32983.51964012469
4459.780572728889,35313.72342584094
4459.803765901509,36598.16247526743
4459.8269591947455,38615.754157444346
4459.850152608599,39513.81112695804
4459.87334614307,39245.85490918763
4459.89653979816,38923.37258248401
4459.91973357387,38192.809643250184
4459.942927470198,36718.89042376834
4459.966121487147,34817.15352340312
4459.989315624717,32759.189588592875
4460.0125098829085,30420.452493091256
4460.035704261722,27779.31138244891
4460.058898761158,25395.423607386496
4460.082093381218,22460.74572932961
4460.105288121902,19847.40777957627
4460.12848298321,17918.607112465863
4460.151677965145,16183.566607690998
4460.1748730677045,15665.848046531335
4460.198068290891,15945.01510985885
4460.221263634704,17137.820534831346
4460.244459099145,19152.407110559143
4460.267654684215,21742.867725422628
4460.290850389914,24585.405683226007
4460.314046216243,27719.52652965473
4460.337242163202,31040.35014131901
4460.360438230791,33934.30197966116
4460.383634419013,36630.5164873067
4460.406830727867,39035.24062807371
4460.430027157354,40664.33530251363
4460.453223707474,41932.049424940764
4460.476420378228,42744.88097335724
4460.499617169617,43203.17249354699
4460.522814081641,43625.49529499287
4460.5460111143,43490.36348960013
4460.569208267598,43178.47462275951
4460.592405541532,43178.711172952826
4460.615602936104,42827.06521451038
4460.638800451314,42042.04808448055
4460.661998087163,41225.53024515198
4460.685195843652,40477.89664824873
4460.708393720782,40264.57206157662
4460.731591718552,39784.24532050111
4460.754789836965,39259.30122118932
4460.777988076019,38715.079609078864
4460.801186435716,38025.728266078106
4460.824384916057,37334.5352971822
4460.847583517042,36285.27681000976
4460.870782238671,34376.53589379967
4460.893981080947,32413.491321311307
4460.917180043868,29952.45568053198
4460.940379127435,27328.904361528206
4460.963578331651,24293.301547359613
4460.986777656513,21364.676555537724
4461.009977102025,19016.596749765155
4461.033176668186,16743.215165420635
4461.056376354995,15143.606557063385
4461.079576162457,14166.251531117896
4461.102776090568,13821.236221603684
4461.125976139332,13797.968010321096
4461.149176308748,14032.550348105062
4461.172376598816,14485.907909256555
4461.195577009538,15301.468035117514
4461.218777540915,16212.83848648286
4461.241978192946,16894.51754189173
4461.265178965633,17108.679960955935
4461.2883798589755,17080.61237157409
4461.311580872974,16622.122474004762
4461.3347820076315,15634.837002862847
4461.357983262946,14698.987472858194
4461.381184638919,14120.536414936596
4461.404386135551,13651.290857742426
4461.4275877528435,13484.944204149322
4461.4507894907965,13277.476444215818
4461.4739913494095,12857.686547011637
4461.497193328685,12232.242952444885
4461.520395428623,11031.122932817954
4461.543597649224,10102.247363401053
4461.566799990488,9427.200213043416
4461.590002452416,8977.519708159007
4461.61320503501,9280.79670537737
4461.636407738269,10254.489314914124
4461.659610562193,11753.496120694565
4461.682813506784,13753.279977651224
4461.706016572044,16035.708596223729
4461.729219757971,17970.29027263593
4461.752423064566,19929.794792449306
4461.775626491831,21115.524470821292
4461.798830039766,21383.262443414766
4461.82203370837,21119.458859729326
4461.845237497647,19986.938288113048
4461.868441407595,18514.478719774725
4461.891645438215,17067.51916990262
4461.914849589509,15855.721303411605
4461.938053861475,15564.698803979903
4461.961258254117,16163.499926407174
4461.984462767433,17315.66406361159
4462.007667401424,19328.70740233265
4462.030872156092,21778.112050985506
4462.0540770314365,24017.629795093384
4462.077282027459,25760.87953156235
4462.100487144158,27263.963133457688
4462.123692381537,27952.365676354457
4462.146897739594,28652.309612234578
4462.170103218332,28624.451824338234
4462.19330881775,28507.35608254874
4462.21651453785,28122.355905888027
4462.239720378631,27385.76261143795
4462.262926340095,26288.380691632716
4462.286132422241,24736.968344462202
4462.309338625071,23200.823081185383
4462.3325449485865,21586.65637832877
4462.355751392785,20849.526211007407
4462.3789579576705,21060.14304954353
4462.402164643242,21914.285960419067
4462.4253714495,23612.226110660216
4462.448578376446,26314.84780227362
4462.471785424079,29329.214348349273
4462.494992592401,32509.64861820406
4462.518199881412,34930.65868481783
4462.541407291114,36920.70425402016
4462.564614821506,37742.82690686565
4462.587822472589,38103.39136929441
4462.611030244365,38034.96178870218
4462.634238136832,37232.77326932121
4462.657446149992,36503.0168302279
4462.680654283847,35850.54795282266
