wave,flux
4450.003811362098,21030.619540149153
4450.026953690486,21389.74586409029
4450.050096139227,21614.417087238766
4450.073238708321,21576.401651584696
4450.096381397769,21548.46332492563
4450.119524207569,21320.523934913293
4450.142667137726,20779.925031856925
4450.165810188237,20239.7866706178
4450.188953359103,19607.276070648808
4450.212096650326,18677.434416505377
4450.2352400619075,17693.658574784233
4450.258383593846,16496.443349168178
4450.281527246142,15332.691069537854
4450.304671018797,14414.138411769307
4450.327814911813,13286.923173215486
4450.350958925188,12065.832242083485
4450.374103058924,10867.004433067092
4450.3972473130225,9839.389317181787
4450.420391687483,8900.70486932122
4450.443536182305,8000.176486434427
4450.466680797492,7446.1163510908
4450.489825533042,7063.7773002521035
4450.512970388957,6562.164128781453
4450.536115365237,6325.917777324766
4450.559260461882,6292.4403225730875
4450.582405678895,6319.263480678861
4450.605551016274,6438.1276679630655
4450.628696474022,6831.675918436464
4450.651842052138,7444.296241072753
4450.674987750623,7967.449637003639
4450.698133569476,8812.517023743676
4450.721279508702,9870.269596327782
4450.744425568297,10912.276331099005
4450.767571748264,11663.711831936202
4450.790718048604,12476.852319064194
4450.813864469315,13288.829753850467
4450.837011010401,13813.515039829212
4450.86015767186,14287.774714672614
4450.883304453694,14857.869960090464
4450.906451355903,15609.980276135831
4450.929598378489,16196.8848555516
4450.95274552145,16715.627716107167
4450.975892784789,17695.29792013621
4450.999040168505,18604.32647680205
4451.022187672601,19294.792495335234
4451.045335297074,20340.91362719231
4451.068483041929,21463.38138798166
4451.091630907163,22402.345714849995
4451.114778892777,23269.313796339808
4451.137926998774,24037.50032922547
4451.161075225153,24511.037417138028
4451.184223571914,24750.692120439464
4451.207372039059,25095.11342849066
4451.230520626587,25121.849487098407
4451.253669334501,24993.939129766277
4451.2768181628,24528.52558225143
4451.299967111485,23859.11795694527
4451.323116180556,23403.485125861014
4451.346265370014,22888.92320791048
4451.369414679861,22112.161275365746
4451.392564110095,21337.454433226536
4451.415713660719,20646.23250588775
4451.438863331732,19755.75706548972
4451.462013123136,18699.178451078755
4451.48516303493,17804.38648358558
4451.508313067117,16754.63038444851
4451.531463219695,15756.431646048643
4451.554613492666,14996.734414119157
4451.577763886031,14388.018995103994
4451.60091439979,13511.2390983718
4451.624065033943,12919.597932567785
4451.647215788492,12579.281658790109
4451.670366663436,12454.49678061698
4451.693517658777,12774.427927098033
4451.716668774516,13325.014964811076
4451.739820010652,14295.457005221022
4451.762971367186,15417.890528299566
4451.78612284412,16652.015446097674
4451.8092744414525,17770.017623133914
4451.832426159187,18780.012100500448
4451.855577997321,19658.69375351798
4451.878729955857,20367.717531642138
4451.901882034796,20807.920882098
4451.925034234137,20924.380873429836
4451.948186553881,20815.799628589055
4451.97133899403,20454.504062675296
4451.994491554583,20188.914940523115
4452.017644235542,20007.950414975912
4452.040797036907,19605.048537734856
4452.063949958678,19289.473939408388
4452.087103000857,19103.577000985722
4452.1102561634425,19371.462805378873
4452.133409446437,19910.074935665856
4452.156562849841,20130.799314331583
4452.179716373655,21010.67359495251
4452.202870017878,21975.427723230496
4452.226023782513,22654.19597627574
4452.24917766756,23703.297311087495
4452.272331673018,24363.693242454352
4452.29548579889,24738.31812412869
4452.318640045174,25037.686720072477
4452.341794411874,24959.492853111784
4452.364948898987,25257.53970063994
4452.388103506516,25383.57345479116
4452.4112582344615,25010.72401946433
4452.434413082823,24722.237411216676
4452.457568051602,24468.33466457278
4452.480723140799,24046.24010479986
4452.503878350413,23697.07785567136
4452.527033680448,22979.928087483495
4452.550189130902,22619.02149736327
4452.5733447017765,21853.19507462842
4452.596500393071,21238.745082814767
4452.619656204789,20613.281521998528
4452.642812136928,19531.525748202763
4452.66596818949,19006.967243510997
4452.689124362475,18742.630012650337
4452.7122806558855,18169.289213154585
4452.735437069719,17662.72911581265
4452.7585936039795,17497.276198069725
4452.781750258665,17348.50329826478
4452.804907033777,17252.863344348745
4452.828063929317,17380.85373323533
4452.851220945285,17465.12817074327
4452.87437808168,17411.16315198888
4452.897535338506,17633.23928092613
4452.92069271576,18187.512758223456
4452.943850213445,18666.879036955776
4452.967007831562,18841.862771267803
4452.99016557011,18788.09586854392
4453.01332342909,18700.028222855395
4453.036481408502,18612.64440539363
4453.059639508349,18259.57346678296
4453.08279772863,17802.389166225686
4453.105956069345,17638.45406675001
4453.129114530496,17579.19498643678
4453.152273112083,17649.286427062107
4453.175431814107,17723.83774571162
4453.198590636567,17745.717383774278
4453.221749579466,18070.18792536065
4453.244908642802,18000.400399865113
4453.268067826579,17890.242103432414
4453.291227130795,17775.889629681744
4453.314386555451,17432.622772790663
4453.337546100549,17154.68003742411
4453.360705766087,17031.970671254003
4453.3838655520685,16981.18625235162
4453.407025458493,16727.87717443755
4453.430185485361,17109.0851354574
4453.453345632673,17572.70351704156
4453.476505900429,18363.835196630513
4453.4996662886315,18970.544138079695
4453.52282679728,20058.70843940656
4453.545987426375,20575.872426121474
4453.569148175917,21257.02140149394
4453.592309045907,21796.83804326359
4453.615470036346,21930.280635287327
4453.638631147233,21909.343223086194
4453.661792378571,21684.29965092431
4453.684953730359,21602.305564694954
4453.708115202598,21430.343604521153
4453.731276795288,21297.206586984
4453.754438508431,21024.731679712087
4453.777600342027,20950.20546068425
4453.800762296077,20653.734299813776
4453.82392437058,21214.714000571483
4453.847086565538,21315.57680761555
4453.870248880952,21840.250123546743
4453.8934113168225,22615.574321904936
4453.916573873149,23365.38209966254
4453.939736549933,23729.747096435276
4453.962899347174,24134.68733185459
4453.986062264875,24451.52526081132
4454.009225303034,24655.828073766
4454.032388461654,24669.662016309707
4454.055551740734,24548.274317219635
4454.078715140275,24302.00231615011
4454.101878660277,23906.37187936017
4454.125042300742,23240.318712988643
4454.14820606167,22714.810776660648
4454.171369943061,22051.647589524728
4454.194533944917,20936.612099613438
4454.2176980672375,20060.558712080507
4454.240862310024,19069.635315133215
4454.264026673275,18075.797018590954
4454.287191156994,17176.546293662996
4454.31035576118,16180.52677863803
4454.333520485834,15289.900158513532
4454.356685330957,14289.815577106678
4454.379850296548,13287.822281662637
4454.40301538261,12139.689940188162
4454.426180589142,11120.083225520706
4454.449345916145,10481.594451596211
4454.4725113636205,9900.121013415212
4454.495676931568,9462.580010940621
4454.5188426199875,9255.839811878997
4454.542008428882,9301.10984244892
4454.565174358249,9605.699150177012
4454.588340408092,9743.096300815836
4454.611506578411,9947.091195222534
4454.634672869205,10065.995875460665
4454.657839280476,10062.045465190064
4454.681005812225,9875.235129511475
4454.704172464451,9312.182104482985
4454.727339237156,8790.338934533436
4454.750506130341,8003.078728029271
4454.773673144005,7494.110838416183
4454.79684027815,6941.449682103177
4454.820007532776,6575.032016293669
4454.843174907884,6376.229676501686
4454.866342403473,6109.594257537565
4454.889510019546,6322.400967355358
4454.912677756102,6513.860408271182
4454.935845613144,6923.615909687757
4454.959013590669,7596.797667108795
4454.982181688681,8282.554686560465
4455.005349907178,8995.583338898325
4455.028518246162,9676.753307386229
4455.051686705633,10281.314315822101
4455.074855285593,10959.134334700122
4455.098023986041,11422.168251999805
4455.121192806979,11570.979439094965
4455.144361748406,12251.225600773463
4455.167530810323,12849.985729258276
4455.190699992732,13065.110529648939
4455.213869295633,13579.160248117707
4455.237038719026,14166.495917041644
4455.260208262912,14577.300379831506
4455.283377927292,14775.965861533054
4455.306547712166,14839.248651137923
4455.329717617535,15079.72990165087
4455.352887643399,14829.180840581294
4455.37605778976,14789.69952565044
4455.399228056617,14916.220687055527
4455.422398443972,15136.90732051989
4455.445568951825,15794.288840146359
4455.468739580177,16518.493783881713
4455.491910329028,17281.845339467727
4455.515081198378,18216.16620519789
4455.538252188229,19065.406880477367
4455.561423298582,19690.383143443047
4455.584594529436,19950.8949921888
4455.607765880793,20020.86408847792
4455.630937352652,19630.748892774074
4455.654108945016,19078.71269344867
4455.677280657883,18457.458305574328
4455.700452491255,17642.830965165365
4455.723624445134,16669.17188940049
4455.746796519518,15751.882001899941
4455.7699687144095,14858.973676701222
4455.793141029808,13874.783452525098
4455.816313465714,12913.136034285371
4455.83948602213,12165.683362334554
4455.862658699055,11467.133462971486
4455.885831496489,10805.977688664027
4455.909004414434,10220.140371710626
4455.932177452891,9952.349365690214
4455.955350611858,9982.413599689256
4455.978523891339,10113.894986953148
4456.001697291333,10482.920673460849
4456.024870811841,11332.198399944578
4456.048044452862,12497.845821813033
4456.071218214399,13520.297651628267
4456.094392096451,14759.484927889507
4456.117566099019,16058.876775891511
4456.140740222105,17083.367892826416
4456.163914465707,17970.52090045549
4456.187088829828,18534.025884857114
4456.210263314468,19032.633618685733
4456.233437919626,19190.566232002708
4456.256612645306,18825.544592503113
4456.279787491505,18483.777129764494
4456.302962458226,18002.742311987728
4456.326137545469,17167.239798614406
4456.349312753233,16548.122923290648
4456.372488081522,16022.008473813696
4456.395663530333,14975.807934303048
4456.41883909967,14182.18754060272
4456.442014789531,13706.87565473345
4456.465190599917,13221.755033755631
4456.488366530831,13197.187276785824
4456.5115425822705,13437.374116854426
4456.5347187542375,13695.547473336275
4456.557895046733,13990.537545756803
4456.581071459757,14250.424665476292
4456.604247993311,14571.985314439478
4456.627424647395,14733.953413938152
4456.650601422009,14907.824843203038
4456.673778317154,14884.180801487522
4456.696955332832,15041.092119001756
4456.720132469041,15039.990227024326
4456.7433097257845,15521.874892417143
4456.766487103061,16075.115472549098
4456.789664600872,16901.810057532046
4456.8128422192185,17804.981349985115
4456.8360199581,18891.319113664067
4456.859197817518,19648.53888471381
4456.882375797473,20718.75309579136
4456.905553897966,21296.0567479922
4456.928732118997,21559.877897259754
4456.951910460566,21516.802044345844
4456.975088922674,21730.216777400332
4456.998267505323,21426.351524588277
4457.021446208513,21234.630536409888
4457.044625032244,21238.47469749763
4457.067803976516,20751.592831934046
4457.090983041332,20468.403600472047
4457.1141622266905,20039.875508618108
4457.1373415325925,19777.914861342117
4457.160520959039,19870.302870116826
4457.183700506031,19705.563197286934
4457.206880173568,19814.601242741952
4457.230059961651,19732.688040078872
4457.2532398702815,19602.689350471188
4457.27641989946,19266.07371319232
4457.299600049186,19097.804574025795
4457.322780319461,18538.896597939824
4457.345960710286,17930.8751040724
4457.36914122166,17002.57645561189
4457.392321853586,16214.952020777411
4457.415502606062,15401.250141462931
4457.43868347909,14537.789700801985
4457.461864472672,13701.823310009282
4457.485045586805,13007.500965043822
4457.508226821494,12511.072342671929
4457.5314081767365,12018.462043879508
4457.554589652534,12017.434329058147
4457.577771248887,12263.140111554196
4457.600952965797,13033.420940349892
4457.624134803263,14015.289615909252
4457.647316761288,14960.987267006543
4457.67049883987,16071.785556133314
4457.693681039011,17197.371039140005
4457.716863358712,18432.287775427165
4457.7400457989725,19270.599466510583
4457.763228359793,20146.22079453783
4457.7864110411765,20908.60294055782
4457.809593843121,21155.482624119522
4457.832776765628,21144.197397932385
4457.855959808699,21283.70416674593
4457.879142972333,20785.17514649593
4457.902326256532,20572.8305689126
4457.925509661296,20121.15756453588
4457.948693186626,19825.174483870243
4457.971876832522,19121.388085062434
4457.995060598985,18438.25731143828
4458.018244486016,17901.061406053777
4458.041428493615,17214.035862244862
4458.0646126217825,16308.328566975746
4458.08779687052,15278.186707138564
4458.110981239827,14660.913815577176
4458.134165729705,14009.438209168531
4458.157350340155,13263.726775763853
4458.180535071177,12866.74278310265
4458.203719922771,12679.2257057029
4458.226904894938,12501.257451062946
4458.2500899876795,12713.240423408906
4458.273275200995,12836.79496437322
4458.296460534886,13423.692315035529
4458.3196459893525,13593.44833140856
4458.342831564396,13929.341956317929
4458.366017260016,14298.048816522398
4458.389203076214,14867.894405011248
4458.4123890129895,15512.067207643398
4458.435575070344,16069.69943553451
4458.458761248279,16594.85711731263
4458.481947546794,17189.784592795102
4458.505133965889,17792.715271531233
4458.528320505566,17609.189093101395
4458.551507165825,17825.378657415356
4458.574693946666,17822.037776454777
4458.597880848091,17925.704792517347
4458.6210678701,18053.555910683204
4458.644255012693,18143.408940330355
4458.6674422758715,18619.877618635983
4458.690629659636,19057.479288048995
4458.713817163986,19725.389339397738
4458.737004788924,20534.830184233222
4458.76019253445,20585.224186844203
4458.783380400563,20911.074113002487
4458.8065683872655,20745.074118402703
4458.829756494558,20590.41313004754
4458.85294472244,19649.407282185824
4458.876133070914,19140.26847295697
4458.899321539979,18362.87321259505
4458.922510129635,17251.256513895467
4458.945698839884,16077.557031517772
4458.968887670727,15060.788032100474
4458.992076622164,13777.713318002498
4459.015265694195,12860.823618013754
4459.0384548868215,11474.826946828418
4459.061644200044,10531.020477110194
4459.084833633862,9682.851684285832
4459.108023188278,8434.970344070955
4459.131212863292,7686.917436735249
4459.154402658904,6992.668238482382
4459.177592575114,6754.932764066915
4459.200782611925,6595.554585521696
4459.223972769336,6779.208436237168
4459.247163047347,7135.144574343615
4459.27035344596,7828.804402123521
4459.293543965176,8425.290888301526
4459.316734604993,9179.350675747832
4459.339925365414,10351.896884868516
4459.363116246439,11452.683654279193
4459.386307248069,12505.230092445649
4459.409498370304,13510.42393810677
4459.432689613145,14501.502279127617
4459.455880976592,15192.487433117547
4459.479072460647,16288.331544623301
4459.502264065309,17151.159802411243
4459.52545579058,18261.059619294483
4459.5486476364595,19336.928397357122
4459.571839602949,20176.448562803937
4459.595031690048,20838.25877310313
4459.618223897759,21432.123645306292
4459.641416226081,21650.47982431759
4459.664608675014,21834.30061619842
4459.687801244561,21387.55296113471
4459.710993934721,21412.940619764602
4459.734186745496,21187.86633097418
4459.757379676885,20773.70478429502
4459.780572728889,20552.201577362346
4459.803765901509,20158.89163519102
4459.8269591947455,19909.575790173
4459.850152608599,19767.542307918917
4459.87334614307,19978.81206796106
4459.89653979816,20160.28141537769
4459.91973357387,20286.21640099737
4459.942927470198,20798.436846435627
4459.966121487147,21255.705931702072
4459.989315624717,21364.05958721269
4460.0125098829085,21144.049884818043
4460.035704261722,20840.301532796202
4460.058898761158,20355.267755550147
4460.082093381218,20143.11721408017
4460.105288121902,19257.863381243398
4460.12848298321,18461.939451750914
4460.151677965145,17524.625654276268
4460.1748730677045,16477.750144641046
4460.198068290891,15415.535025884892
4460.221263634704,14762.2484216722
4460.244459099145,13804.35263262708
4460.267654684215,13021.639038637733
4460.290850389914,12413.887672286144
4460.314046216243,12243.560457346473
4460.337242163202,12245.753686919354
4460.360438230791,12619.221354334493
4460.383634419013,13451.276853661086
4460.406830727867,14494.104801228807
4460.430027157354,15493.914968990699
4460.453223707474,16755.326679316677
4460.476420378228,18329.126755988174
4460.499617169617,19686.647038531948
4460.522814081641,21023.21803553842
4460.5460111143,22433.78904253694
4460.569208267598,23205.344648900784
4460.592405541532,23641.435368974722
4460.615602936104,24135.545726337263
4460.638800451314,24436.35345813225
4460.661998087163,24664.90566417664
4460.685195843652,24685.538661996325
4460.708393720782,24822.082818075174
4460.731591718552,24783.196756093028
4460.754789836965,24475.41334135453
4460.777988076019,24319.136960416497
4460.801186435716,23981.10434340941
4460.824384916057,23542.612478009167
4460.847583517042,23112.50199230948
4460.870782238671,22627.36526087427
4460.893981080947,22124.398234430664
4460.917180043868,21529.995514446335
4460.940379127435,20948.275779634656
4460.963578331651,20366.617661035998
4460.986777656513,19670.991976375873
4461.009977102025,18910.63543502063
4461.033176668186,17890.225109629257
4461.056376354995,16866.07340691427
4461.079576162457,15932.10371373347
4461.102776090568,14806.222668164077
4461.125976139332,13649.737190742168
4461.149176308748,12604.03243961567
4461.172376598816,11539.461681830297
4461.195577009538,10795.599477030364
4461.218777540915,10094.660166825699
4461.241978192946,9567.508374718202
4461.265178965633,9263.806573348214
4461.2883798589755,9067.612372364372
4461.311580872974,9189.486291620384
4461.3347820076315,9080.956597212975
4461.357983262946,9243.412609614938
4461.381184638919,9314.93243385814
4461.404386135551,9475.438995179231
4461.4275877528435,9488.859034428215
4461.4507894907965,9171.0671202719
4461.4739913494095,9044.33970839469
4461.497193328685,8846.308739519323
4461.520395428623,8415.864393041009
4461.543597649224,8188.431142299509
4461.566799990488,7951.207174433225
4461.590002452416,7740.0958903593155
4461.61320503501,7611.465771971373
4461.636407738269,7451.204772405734
4461.659610562193,7427.98701999988
4461.682813506784,7328.618159199575
4461.706016572044,7225.081203866457
4461.729219757971,7094.906147003751
4461.752423064566,6959.922056418709
4461.775626491831,7126.805888289758
4461.798830039766,7287.498381173026
4461.82203370837,7753.469107481224
4461.845237497647,8478.68903344668
4461.868441407595,9048.557767252953
4461.891645438215,9978.683130754174
4461.914849589509,10484.006148116947
4461.938053861475,11031.989380031071
4461.961258254117,11586.688561900659
4461.984462767433,11698.712092431198
4462.007667401424,11596.028256205318
4462.030872156092,11544.45776134013
4462.0540770314365,11515.884839462093
4462.077282027459,11388.176270619695
4462.100487144158,11260.843988885192
4462.123692381537,11724.617097589015
4462.146897739594,12013.926448421229
4462.170103218332,12935.060483465266
4462.19330881775,13716.391206574564
4462.21651453785,14339.971019582397
4462.239720378631,15232.575689521052
4462.262926340095,15598.418993858255
4462.286132422241,16174.503580418785
4462.309338625071,16158.626851647407
4462.3325449485865,16310.741775003818
4462.355751392785,16360.446773404119
4462.3789579576705,16372.98681262312
4462.402164643242,16137.393670990521
4462.4253714495,15812.044609590703
4462.448578376446,15561.232532039574
4462.471785424079,15291.087463967939
4462.494992592401,14816.026898429598
4462.518199881412,14913.799097537789
4462.541407291114,14961.24654453413
4462.564614821506,15407.50259184011
4462.587822472589,16211.89410830831
4462.611030244365,17111.4316149347
4462.634238136832,18066.45997710492
