wave,flux
5000.025812696027,73129.95773703977
5000.051815424163,71726.31188389618
5000.0778182875265,69975.89479994489
5000.103821286119,68386.51606641656
5000.12982441994,67170.58926421124
5000.155827688991,67042.32122543479
5000.181831093272,67020.91179124045
5000.207834632784,68583.70891574194
5000.2338383075285,69396.42812392002
5000.259842117506,70075.93972848982
5000.285846062716,71442.04891563275
5000.311850143161,72542.5407194451
5000.33785435884,73620.26405220297
5000.363858709754,74568.8194748809
5000.389863195905,75501.73016488062
5000.415867817292,76667.77193056997
5000.441872573917,77537.05541646731
5000.4678774657805,78236.17603321311
5000.493882492882,79101.72527921197
5000.519887655224,79499.17370791965
5000.545892952806,79887.0801383377
5000.571898385629,79910.30658569103
5000.597903953694,79948.37610586606
5000.623909657001,79317.94388800208
5000.649915495552,79308.85930532825
5000.675921469346,78712.80977236568
5000.701927578384,77748.1911592964
5000.727933822669,76424.42152393922
5000.7539402021985,74821.92582092066
5000.779946716975,72438.0784073528
5000.805953366999,69308.77732757441
5000.831960152272,66188.58126806175
5000.857967072792,63801.32465124853
5000.883974128563,62154.27368757553
5000.9099813195835,61185.19703312169
5000.935988645855,61585.3326434675
5000.961996107378,62728.43185841602
5000.988003704153,63380.872915739725
5001.014011436181,64133.69187411803
5001.040019303464,64457.4232578741
5001.066027306,64275.472025538555
5001.092035443791,63149.61520915178
5001.118043716839,61477.18254484408
5001.1440521251425,58846.610942576845
5001.170060668704,55733.51327915348
5001.196069347523,52225.64844949471
5001.222078161601,49076.13070538249
5001.248087110937,46799.19821149901
5001.274096195534,45516.383339415464
5001.300105415392,45637.19523295581
5001.326114770512,46782.191524724985
5001.352124260892,48711.96682391715
5001.3781338865365,51902.289770795374
5001.4041436474445,55542.81470992898
5001.430153543616,59030.02201303003
5001.456163575053,63131.165380739
5001.482173741756,66019.24667688814
5001.508184043724,69212.63474837162
5001.534194480961,71912.73462641219
5001.560205053464,74368.92273537176
5001.586215761236,76431.61691942844
5001.612226604278,78254.64212562959
5001.638237582589,79884.47502952874
5001.664248696171,80782.33648624232
5001.690259945024,81465.35198981228
5001.716271329149,82180.1259109852
5001.742282848547,82345.15391953397
5001.768294503218,82671.95827539772
5001.794306293164,82896.84723891293
5001.820318218383,82959.70207079928
5001.84633027888,82997.48833869975
5001.872342474651,82769.38799184511
5001.8983548056995,82425.85588827297
5001.924367272026,82077.19260492097
5001.9503798736305,81706.7897314602
5001.976392610514,81083.63789597597
5002.002405482678,80739.36001468005
5002.028418490122,79569.92839480039
5002.054431632847,78173.70405758165
5002.080444910854,76021.39627517268
5002.106458324142,73536.00654697705
5002.1324718727155,71556.22791662457
5002.158485556572,69278.38881211482
5002.184499375713,67799.11995423569
5002.210513330139,67395.26199882294
5002.236527419852,67769.06713481795
5002.262541644852,69268.42055814929
5002.288556005138,70513.45298003007
5002.314570500714,72522.83810509996
5002.340585131577,73451.00625532014
5002.36659989773,75442.1100290779
5002.392614799174,76919.31368116838
5002.418629835909,78170.22938877897
5002.444645007936,79528.90322794543
5002.4706603152545,80539.44047599696
5002.496675757866,81160.36157789682
5002.522691335772,81808.77390433126
5002.548707048972,82423.42797729441
5002.574722897468,82960.81431645332
5002.600738881259,83469.48012548072
5002.626755000347,83650.68665842614
5002.652771254732,83743.3299276065
5002.678787644415,83646.31378692195
5002.704804169397,83512.57941462849
5002.730820829678,84020.75281081795
5002.75683762526,83384.63756128702
5002.782854556142,83783.04792942591
5002.8088716223265,83471.37218070992
5002.834888823812,83523.89942396639
5002.860906160601,83411.06706656123
5002.886923632695,83511.1797814599
5002.912941240092,83776.46026003553
5002.938958982793,83843.03020673839
5002.9649768608015,83634.88009582771
5002.990994874116,83626.46586174464
5003.017013022737,83584.05058505268
5003.043031306666,83065.17319109906
5003.069049725905,82582.3297982461
5003.095068280452,82063.55099993087
5003.121086970309,82114.64834569069
5003.147105795477,81846.37730792056
5003.173124755956,81101.05196650424
5003.199143851748,81354.61503612864
5003.225163082852,80932.09136973717
5003.251182449269,80760.89405114605
5003.277201951001,80389.47960815292
5003.3032215880485,80080.11111167121
5003.32924136041,79232.53417767782
5003.35526126809,78330.39047296847
5003.381281311085,77109.54144220751
5003.407301489398,75909.95094748773
5003.433321803031,75328.12100900004
5003.459342251982,74608.11820895932
5003.4853628362525,74175.94114274635
5003.511383555844,74400.7853858194
5003.537404410757,74037.30037997113
5003.563425400991,74369.5950048267
5003.589446526548,74717.79633706056
5003.615467787429,75332.45438888257
5003.641489183634,76112.27479977254
5003.667510715163,77180.64382951256
5003.693532382018,77995.7043985146
5003.719554184199,78970.47773631828
5003.745576121707,79290.94237777493
5003.771598194542,80323.6265792474
5003.797620402706,80883.12138787628
5003.823642746199,81143.54793196499
5003.849665225021,81862.9928027958
5003.875687839174,82480.53977902253
5003.901710588658,82967.77470061037
5003.927733473473,83335.40685754677
5003.953756493622,83231.33294720696
5003.979779649103,83319.91148319152
5004.005802939919,83654.72423329297
5004.031826366068,83666.18785892738
5004.057849927553,84011.16234827151
5004.083873624375,83681.2937691515
5004.109897456533,83871.20543152084
5004.135921424028,84115.60883239278
5004.161945526862,84094.80676884632
5004.187969765035,83404.93414246548
5004.213994138547,83207.143530801
5004.240018647399,82759.7676198179
5004.266043291592,82323.26004919923
5004.292068071127,81855.45683758974
5004.318092986004,81109.17301890666
5004.344118036223,80299.56785564772
5004.370143221788,79641.8444245918
5004.396168542696,78487.36746755206
5004.422193998949,76439.45320924808
5004.448219590549,73857.6422402385
5004.474245317495,70931.23916692814
5004.500271179789,67980.58251284537
5004.52629717743,64749.49463345984
5004.5523233104195,62617.307507804246
5004.578349578759,61965.92973141983
5004.604375982449,61957.25066912858
5004.630402521489,63365.34951801036
5004.656429195881,65249.75180429588
5004.682456005625,67398.28803784629
5004.708482950721,68969.83623742078
5004.734510031172,70875.86175316953
5004.760537246977,72400.5749585362
5004.7865645981365,73388.67644980476
5004.812592084652,74360.05787184901
5004.838619706525,75034.22073019798
5004.8646474637535,74746.76324627394
5004.890675356341,73936.80596772535
5004.916703384286,72992.03057711295
5004.942731547591,71369.05342433321
5004.968759846256,68643.98934715673
5004.994788280281,64677.456434724845
5005.020816849668,61111.63895237424
5005.046845554417,57144.86138089563
5005.072874394528,53251.24829061576
5005.098903370003,50714.5266968172
5005.124932480842,49293.58890803801
5005.150961727047,49172.84417242655
5005.176991108617,50124.08045401751
5005.203020625552,51956.155162382915
5005.229050277856,53777.841970837435
5005.255080065526,55420.16900390928
5005.281109988566,56580.388503585564
5005.3071400469735,56898.15580565878
5005.333170240751,56745.407851298805
5005.3592005699,55322.409093486895
5005.38523103442,52882.61520599635
5005.411261634312,50371.210376938194
5005.4372923695755,47395.99271752922
5005.463323240213,44644.712934398216
5005.489354246225,42627.810112029634
5005.515385387611,41900.688001415285
5005.541416664373,42288.40256066668
5005.567448076511,43827.081414104294
5005.593479624025,46396.35766947694
5005.619511306918,49641.32794910599
5005.645543125189,53376.86593733152
5005.671575078838,56871.26473999719
5005.697607167867,60666.082822013486
5005.723639392277,64395.15429196409
5005.749671752068,67656.03493141476
5005.77570424724,70522.39676100606
5005.8017368777955,73071.32392181637
5005.8277696437335,74947.74618932925
5005.853802545055,76682.44234246718
5005.879835581762,78487.85957879506
5005.905868753854,79856.54369264272
5005.931902061331,80694.64348014184
5005.957935504196,81270.2505268303
5005.983969082448,81903.02822311576
5006.010002796088,82314.77986306185
5006.036036645117,82513.05903558576
5006.062070629536,82472.31815225855
5006.088104749344,82631.73378218235
5006.114139004544,82602.5819022217
5006.140173395135,82554.14249824769
5006.166207921118,82403.0465049879
5006.192242582495,82246.02796736367
5006.218277379266,82118.32376841965
5006.244312311431,81760.0599642736
5006.270347378991,81319.12989781595
5006.296382581946,81000.34422297555
5006.322417920299,80578.62628384058
5006.348453394048,79818.30737603962
5006.374489003196,79443.75115098494
5006.400524747743,78579.38951308625
5006.426560627688,76988.54364107148
5006.452596643034,75030.2037966671
5006.47863279378,72260.92806644556
5006.504669079928,69035.16237569539
5006.530705501478,64812.28555150514
5006.556742058431,60628.02430418926
5006.582778750788,56374.037644526485
5006.608815578549,52892.67997372973
5006.634852541715,50489.22110565193
5006.660889640287,48768.34494573545
5006.686926874265,48706.235166313774
5006.71296424365,50436.77708724377
5006.739001748444,52591.98472559144
5006.765039388645,55721.99512403979
5006.791077164256,59091.85180081782
5006.817115075277,62294.188367761155
5006.843153121708,65470.30252088212
5006.869191303552,68519.16383338998
5006.895229620806,70951.14957881448
5006.921268073474,73298.4874152031
5006.947306661555,75304.52524762567
5006.97334538505,76833.27919298825
5006.999384243961,78427.89593949499
5007.025423238286,79388.75269173752
5007.051462368028,79530.96508040915
5007.077501633187,79644.21725722338
5007.103541033764,79833.14269528436
5007.129580569759,79672.68357099882
5007.155620241173,79510.11279284085
5007.181660048007,80348.22897951386
5007.207699990262,81184.26860089281
5007.233740067937,81252.64573632425
5007.259780281035,82083.57898642762
5007.285820629555,82315.95353246397
5007.311861113499,82802.25420014291
5007.337901732866,83452.7846118645
5007.363942487658,83906.75785436819
5007.389983377876,84045.8315089951
5007.41602440352,83915.95999857524
5007.442065564591,84198.3503168794
5007.468106861089,84611.27837489237
5007.494148293015,84698.22683661131
5007.520189860371,84833.36015354122
5007.546231563156,84798.29461994371
5007.572273401372,84940.70522385286
5007.598315375018,85402.74749679041
5007.624357484096,85273.91256686479
5007.650399728607,85482.85405761408
5007.676442108551,85541.61936045763
5007.702484623929,85284.90437441753
5007.728527274741,85622.54419812042
5007.754570060989,85642.70113262722
5007.780612982673,85584.86838530304
5007.806656039793,85175.23830665846
5007.832699232351,85490.74557658983
5007.858742560347,85524.96820061999
5007.884786023782,84946.89712472534
5007.910829622656,84374.78844884777
5007.936873356971,84759.09788865027
5007.962917226726,84400.82274457277
5007.988961231923,83868.72764997206
5008.015005372563,83890.956968346
5008.041049648646,83788.78465030753
5008.067094060171,83480.536134652
5008.0931386071425,83627.66634729174
5008.119183289558,83952.2850787801
5008.14522810742,84058.68526542795
5008.171273060728,84153.00093155823
5008.197318149483,84213.34719462295
5008.223363373687,84277.572940204
5008.249408733339,84505.56810618659
5008.27545422844,84850.44818279194
5008.301499858992,84251.83962150272
5008.327545624995,84402.09312202844
5008.353591526448,84254.7399193129
5008.379637563355,84086.90431625304
5008.405683735714,84433.96262234401
5008.431730043527,84610.06024289224
5008.457776486794,84686.4968410789
5008.483823065515,84342.61193692965
5008.509869779693,84640.38137531914
5008.535916629327,85007.37970377917
5008.561963614418,84879.50456821779
5008.588010734968,85315.76021608704
5008.614057990975,85308.60437386298
5008.640105382442,84998.22152497752
5008.666152909369,85071.2506634213
5008.692200571756,85152.55191037507
5008.718248369605,85125.79691125013
5008.744296302916,85054.09829744174
5008.77034437169,84976.83131868318
5008.796392575927,85015.22233313644
5008.822440915628,84902.6402042003
5008.848489390794,84884.53419972207
5008.874538001426,85192.60896263704
5008.900586747524,84646.1562143926
5008.926635629089,84572.95105915754
5008.952684646122,85009.23664659171
5008.978733798623,84334.6426721076
5009.004783086593,84165.850127605
5009.030832510033,84261.49525488271
5009.056882068944,84333.08593301097
5009.082931763326,83985.5048353191
5009.108981593179,84282.24959162629
5009.135031558506,84008.89978228704
5009.161081659306,83907.48827270967
5009.187131895579,83734.99144208722
5009.213182267327,83602.68631518564
5009.239232774552,83572.23430389308
5009.265283417251,83178.8951555453
5009.291334195428,82333.38147665875
5009.317385109083,81382.08345620765
5009.343436158216,80127.90404039418
5009.369487342828,78627.05862251802
5009.395538662919,77345.79275226829
5009.421590118491,75929.7442196539
5009.447641709544,73949.955453717
5009.473693436078,71551.8547933866
5009.499745298095,68898.82897286276
5009.525797295596,66098.34595391862
5009.55184942858,63158.172284523534
5009.577901697049,60857.22793230064
5009.603954101003,59400.51670832135
5009.630006640443,59353.2755439709
5009.65605931537,60076.27570874443
5009.682112125784,61876.65708038064
5009.708165071686,64179.07377687982
5009.7342181530785,66923.36872958577
5009.760271369959,69447.10961962247
5009.78632472233,71703.66840143208
5009.812378210192,73962.33065916089
5009.838431833546,75825.56339620022
5009.864485592391,77756.93764977182
5009.890539486731,79371.60262835381
5009.916593516564,80785.43305128733
5009.942647681891,82031.97431148968
5009.968701982713,82837.54862556518
5009.994756419032,83495.41487635607
5010.020810990847,84071.33167710857
5010.046865698159,84218.63671230023
5010.072920540969,84301.43477648657
5010.098975519279,84555.70925049586
5010.125030633087,84498.99873755404
5010.151085882395,84226.11491169925
5010.177141267204,83772.71309011833
5010.2031967875155,82861.76023707971
5010.229252443328,81582.07549333987
5010.255308234644,80446.56060245431
5010.281364161464,79208.95034633279
5010.307420223788,77780.25867879305
5010.333476421617,77106.63444368713
5010.359532754951,76655.7749740679
5010.3855892237925,76885.38269098537
5010.4116458281405,77636.17600438482
5010.437702567997,78278.05084161983
5010.463759443362,79400.95527994599
5010.489816454236,80110.30424649926
5010.51587360062,80772.6255962036
5010.541930882514,81666.16322180661
5010.56798829992,82255.74944074947
5010.5940458528385,82818.74213005396
5010.62010354127,83386.68576662711
5010.646161365214,83728.26659892676
5010.672219324672,84313.49728902124
5010.698277419646,84941.36135737818
5010.724335650135,84959.44879698404
5010.7503940161405,84794.15585974616
5010.7764525176635,85053.23732514588
5010.802511154703,85360.44385839568
5010.828569927262,85182.16385478257
5010.85462883534,85130.79734646589
5010.880687878937,85538.45466793356
5010.906747058056,85388.24580119336
5010.932806372695,85306.2037773664
5010.958865822856,85112.09583446702
5010.98492540854,84461.49470889627
5011.0109851297475,84057.99322598169
5011.0370449864795,83395.8304982158
5011.063104978735,83235.90575216952
5011.089165106517,82496.00265379321
5011.115225369825,81597.07464328712
5011.14128576866,80586.34519352615
5011.167346303022,79408.53124528355
5011.193406972913,78155.00804644327
5011.219467778333,76918.09211090332
5011.2455287192815,75389.57474454682
5011.271589795761,73192.17435328272
5011.297651007772,70192.81393946841
5011.323712355315,66252.87277150048
5011.34977383839,62155.36701365574
5011.375835456999,57765.6630840606
5011.401897211142,53223.9468611013
5011.427959100819,49183.707624272174
5011.454021126031,46331.72641101211
5011.4800832867795,44729.99944517479
5011.506145583065,44149.3609474693
5011.532208014888,45022.79315210066
5011.558270582248,47137.87341309843
5011.584333285148,49791.410551444715
5011.610396123588,52747.24448739013
5011.636459097567,55969.06556327964
5011.662522207088,59259.35509518395
5011.68858545215,61703.080344284645
5011.714648832754,63539.35915260237
5011.740712348902,65176.90667288823
5011.766776000594,66014.12672560471
5011.79283978783,66453.12165419209
5011.818903710611,66945.8513307138
5011.844967768939,67421.72886120272
5011.871031962813,68474.84499219127
5011.897096292234,69802.88687960086
5011.923160757203,71268.55839722145
5011.949225357721,72558.58162055159
5011.975290093788,73820.73118419736
5012.001354965406,74589.80460830957
5012.027419972574,75071.70878275078
5012.053485115294,75253.64846909935
5012.079550393566,75727.59254001593
5012.105615807392,76262.30365891854
5012.13168135677,76860.039747048
5012.157747041703,77682.02224250828
5012.183812862192,78795.67284485087
5012.209878818236,79977.16501514644
5012.235944909837,80625.41994774353
5012.262011136994,81014.18742145941
5012.28807749971,81849.08669458363
5012.3141439979845,82263.38137724635
5012.340210631818,82407.35124210533
5012.366277401212,82919.46289846269
5012.392344306166,82824.99237844511
5012.418411346682,82921.68978464752
5012.44447852276,83052.04140160677
5012.470545834401,82893.78388820768
5012.496613281605,82835.00363260058
5012.522680864374,82386.14886426805
5012.548748582707,81243.32561774795
5012.574816436606,80458.40922427789
5012.600884426071,78965.59097967761
5012.626952551104,76919.14584860206
5012.653020811705,74210.15563753001
5012.679089207873,72239.47519323869
5012.705157739611,70539.51736555109
5012.73122640692,69837.68452481781
5012.757295209798,69285.77616449197
5012.7833641482475,69236.13677039988
5012.80943322227,69537.85771818325
5012.835502431864,69489.66347267847
5012.861571777033,68975.9884598327
5012.887641257775,68291.9491984558
5012.9137108740915,66745.04393446063
5012.939780625984,64203.54557516866
5012.965850513452,61199.081319653844
5012.991920536498,57649.86635280806
5013.017990695121,54139.38220548129
5013.044060989323,51112.91538105556
5013.070131419104,49116.64219695577
5013.096201984464,48487.86686647815
5013.122272685405,49145.39536489621
5013.148343521927,50988.85508351989
5013.17441449403,53618.65131307352
5013.200485601717,56614.0070418269
5013.226556844987,59729.04863750056
5013.2526282238405,62655.51513028241
5013.278699738279,65280.74339312951
5013.304771388303,67838.51356372189
5013.330843173913,70032.47343023481
5013.35691509511,71926.00397304245
5013.382987151894,73426.71871748044
5013.409059344267,74561.98638693508
5013.435131672228,75253.3300966775
5013.46120413578,74904.93719711968
5013.487276734921,74123.14146400498
5013.513349469653,72880.48144444409
5013.539422339977,70419.52791513402
5013.565495345894,67954.68941521712
5013.5915684874035,65231.02986558246
5013.617641764507,62663.90598485513
5013.643715177206,61099.75668065099
5013.6697887254995,60477.46872726831
5013.695862409389,60911.63316701518
5013.721936228875,62398.061207315084
5013.748010183958,64159.506795345544
5013.77408427464,66687.71992139722
5013.800158500921,68972.04605810186
5013.826232862801,71155.34595478635
5013.852307360281,72914.3665384932
5013.8783819933615,75054.89857278472
5013.904456762045,76837.81454886417
5013.930531666329,78019.79597200191
5013.956606706218,78963.70416867595
5013.982681881709,79449.05651679424
5014.008757192805,79664.09781558363
5014.034832639507,79670.62585488604
5014.060908221814,79666.47023949705
5014.086983939728,79052.50362862433
5014.113059793249,77779.09045714774
5014.139135782378,76381.14434939767
5014.165211907116,74346.35186666474
5014.1912881674625,71597.34514945866
5014.21736456342,68251.74043859476
5014.243441094988,64437.60276537013
5014.269517762167,60141.28984567348
5014.295594564959,56677.35597255366
5014.321671503363,54312.29194721792
5014.347748577381,52818.60868503466
5014.373825787014,52987.51933677425
5014.399903132261,54322.40712269842
5014.425980613125,56492.86151992763
5014.4520582296045,59761.05978116879
5014.478135981701,62803.54378204595
