wave,flux
5000.025812696027,79381.29873706475
5000.051815424163,78006.87604036317
5000.0778182875265,76213.98905989483
5000.103821286119,74279.07061404237
5000.12982441994,73289.19591828124
5000.155827688991,72854.14480424584
5000.181831093272,73433.14213339917
5000.207834632784,74398.13638631922
5000.2338383075285,74924.94958858531
5000.259842117506,76046.71816312711
5000.285846062716,77142.03368191021
5000.311850143161,78186.31002491745
5000.33785435884,79317.94478425576
5000.363858709754,80326.54992542454
5000.389863195905,81208.39319029047
5000.415867817292,82238.58490578247
5000.441872573917,83282.49279906972
5000.4678774657805,84300.99614935582
5000.493882492882,85306.15547809009
5000.519887655224,85876.68316919227
5000.545892952806,86482.18088072543
5000.571898385629,86437.46652385806
5000.597903953694,86342.43671880012
5000.623909657001,85911.88297445187
5000.649915495552,85450.47272695844
5000.675921469346,85004.36788536509
5000.701927578384,84167.06731394306
5000.727933822669,83028.11632297034
5000.7539402021985,81216.87102787952
5000.779946716975,78633.59347247577
5000.805953366999,75683.46935704506
5000.831960152272,72678.81036704284
5000.857967072792,69866.98743658983
5000.883974128563,67602.40332836921
5000.9099813195835,66418.71681889414
5000.935988645855,66646.84738303555
5000.961996107378,67451.68100242023
5000.988003704153,68547.0596701618
5001.014011436181,69515.13476238919
5001.040019303464,69637.4790686605
5001.066027306,69457.55556185058
5001.092035443791,68399.66341445314
5001.118043716839,66963.86725126945
5001.1440521251425,64035.757727182594
5001.170060668704,60685.91127542939
5001.196069347523,57111.772353804554
5001.222078161601,53753.91094076891
5001.248087110937,51211.730526133506
5001.274096195534,49415.015281818756
5001.300105415392,49118.980584398865
5001.326114770512,50354.77661150089
5001.352124260892,52206.99518853447
5001.3781338865365,55131.35686300466
5001.4041436474445,58725.659330508686
5001.430153543616,62567.383580222195
5001.456163575053,66428.02916371988
5001.482173741756,70406.34907262276
5001.508184043724,73917.36322720099
5001.534194480961,77147.3124655306
5001.560205053464,79801.52573109786
5001.586215761236,81940.23885400403
5001.612226604278,83936.46606195753
5001.638237582589,85463.33166719649
5001.664248696171,86475.6104428762
5001.690259945024,87531.95105866608
5001.716271329149,88514.3328838027
5001.742282848547,89198.87871648186
5001.768294503218,89701.10632043425
5001.794306293164,89537.48059785207
5001.820318218383,89871.13901147323
5001.84633027888,89663.9676860984
5001.872342474651,89077.45359223052
5001.8983548056995,89319.30735975351
5001.924367272026,89009.73428687574
5001.9503798736305,88383.93717011032
5001.976392610514,87903.70138522141
5002.002405482678,87479.10633839782
5002.028418490122,86344.05856340067
5002.054431632847,84722.46459220548
5002.080444910854,83017.07180263338
5002.106458324142,80554.01663386029
5002.1324718727155,77745.80692004229
5002.158485556572,75683.04145556198
5002.184499375713,73927.37006467038
5002.210513330139,72934.9001148139
5002.236527419852,73074.71922854232
5002.262541644852,74086.70285108281
5002.288556005138,75717.4779337912
5002.314570500714,77603.62877476508
5002.340585131577,79247.74993403738
5002.36659989773,81062.16838469818
5002.392614799174,82613.89140611132
5002.418629835909,84141.85290482233
5002.444645007936,85505.24387707583
5002.4706603152545,86578.91579752963
5002.496675757866,87640.8209193414
5002.522691335772,88610.65621831558
5002.548707048972,89182.7513336111
5002.574722897468,89616.84799660604
5002.600738881259,90245.87081820358
5002.626755000347,90598.67202189639
5002.652771254732,90496.72841376213
5002.678787644415,90906.19086912471
5002.704804169397,90486.39085644233
5002.730820829678,90750.25037839463
5002.75683762526,90748.10448721476
5002.782854556142,90504.72625260879
5002.8088716223265,90518.7122912287
5002.834888823812,90495.43979198771
5002.860906160601,90320.56789109026
5002.886923632695,90576.50739758543
5002.912941240092,90552.35130723052
5002.938958982793,90321.3771794618
5002.9649768608015,90266.80817934973
5002.990994874116,90302.12833601848
5003.017013022737,90593.16579872198
5003.043031306666,90290.28154565915
5003.069049725905,89175.73609995935
5003.095068280452,89045.11127332774
5003.121086970309,88597.56964677972
5003.147105795477,88066.0403484519
5003.173124755956,87523.69885751653
5003.199143851748,87941.45728177874
5003.225163082852,87930.42414244497
5003.251182449269,87428.37445791977
5003.277201951001,87181.9024405933
5003.3032215880485,87006.76952731042
5003.32924136041,86329.44621777219
5003.35526126809,85135.47269397296
5003.381281311085,83963.97230659309
5003.407301489398,82705.68745481713
5003.433321803031,81710.17757956649
5003.459342251982,81087.15752428494
5003.4853628362525,80459.31353983545
5003.511383555844,80442.77386579096
5003.537404410757,80665.43683216168
5003.563425400991,80671.02494436994
5003.589446526548,80793.87810966882
5003.615467787429,81291.2928812494
5003.641489183634,82300.2383865862
5003.667510715163,83309.36421583628
5003.693532382018,84160.71319458698
5003.719554184199,84775.97592589862
5003.745576121707,85723.76010228273
5003.771598194542,86596.98703373756
5003.797620402706,87468.10422545488
5003.823642746199,88019.86817144159
5003.849665225021,88390.9901314228
5003.875687839174,89176.34496103581
5003.901710588658,89693.88019009754
5003.927733473473,89801.85970381922
5003.953756493622,90096.82792459338
5003.979779649103,90127.82552279817
5004.005802939919,90461.26652787879
5004.031826366068,91063.65611068043
5004.057849927553,91097.73586034426
5004.083873624375,90918.67508157252
5004.109897456533,90811.58771585813
5004.135921424028,90926.18897030744
5004.161945526862,90325.104487475
5004.187969765035,90106.88967983844
5004.213994138547,89954.80369576876
5004.240018647399,89703.13238729294
5004.266043291592,89534.36880439954
5004.292068071127,88794.42429047415
5004.318092986004,88049.28607966332
5004.344118036223,87178.27869251028
5004.370143221788,86203.95350934134
5004.396168542696,85172.83303803748
5004.422193998949,83242.90952492868
5004.448219590549,80681.88353598288
5004.474245317495,77601.83435408931
5004.500271179789,74128.09949945049
5004.52629717743,70985.76463321912
5004.5523233104195,68619.39863427606
5004.578349578759,67583.38497067972
5004.604375982449,66996.68745001931
5004.630402521489,68412.06943216051
5004.656429195881,70066.21075183009
5004.682456005625,71852.12754392889
5004.708482950721,74214.37653899823
5004.734510031172,76193.36231712806
5004.760537246977,77844.81105056386
5004.7865645981365,79169.63993605666
5004.812592084652,80232.62536014288
5004.838619706525,80825.9870473577
5004.8646474637535,80852.81220538307
5004.890675356341,80578.21535433925
5004.916703384286,79645.84866786882
5004.942731547591,77758.09722922697
5004.968759846256,74964.22872029357
5004.994788280281,71220.66475821717
5005.020816849668,67242.87877691495
5005.046845554417,62483.65158672043
5005.072874394528,58371.13976086989
5005.098903370003,55523.59242470372
5005.124932480842,53711.83270308743
5005.150961727047,52869.518621153096
5005.176991108617,53787.54897326494
5005.203020625552,55597.08137350254
5005.229050277856,57492.64366530398
5005.255080065526,59341.827898448166
5005.281109988566,60757.5452344862
5005.3071400469735,61520.814719009926
5005.333170240751,61339.538956664
5005.3592005699,60121.2297588999
5005.38523103442,58011.65484467836
5005.411261634312,55040.94465717555
5005.4372923695755,51702.43052960637
5005.463323240213,48708.15269056663
5005.489354246225,46538.30004588022
5005.515385387611,45484.09100825799
5005.541416664373,45297.884899643956
5005.567448076511,46741.38830595037
5005.593479624025,48847.41738391935
5005.619511306918,52745.18186853373
5005.645543125189,56246.907692963374
5005.671575078838,60481.6327905618
5005.697607167867,64401.35900118781
5005.723639392277,68011.43460111515
5005.749671752068,71756.68559356891
5005.77570424724,75386.83167592828
5005.8017368777955,78034.1689747132
5005.8277696437335,80352.05298284475
5005.853802545055,82519.27124038001
5005.879835581762,84036.8377657554
5005.905868753854,85372.82140728654
5005.931902061331,86542.10318504724
5005.957935504196,87246.1987402862
5005.983969082448,87943.7593278768
5006.010002796088,88654.51694147933
5006.036036645117,89095.18603411422
5006.062070629536,89271.90885037994
5006.088104749344,89423.39652045506
5006.114139004544,89447.51646182722
5006.140173395135,89120.85812761645
5006.166207921118,89088.56184872403
5006.192242582495,89170.42911923316
5006.218277379266,88750.58488613748
5006.244312311431,88170.73942370711
5006.270347378991,88004.95588389345
5006.296382581946,87748.98115389734
5006.322417920299,87493.96202781999
5006.348453394048,87160.40843843592
5006.374489003196,86236.3306791598
5006.400524747743,84832.71071131843
5006.426560627688,83324.1581592711
5006.452596643034,81565.35414126041
5006.47863279378,78969.60587123336
5006.504669079928,75481.13824325622
5006.530705501478,71471.3428539537
5006.556742058431,66702.82995805463
5006.582778750788,62413.623858541716
5006.608815578549,58203.527793363704
5006.634852541715,55025.70184885391
5006.660889640287,52687.487596818195
5006.686926874265,52687.981837423446
5006.71296424365,53693.80727630725
5006.739001748444,56004.859545541585
5006.765039388645,59309.26664011616
5006.791077164256,62925.41376806727
5006.817115075277,66130.20298568235
5006.843153121708,69625.19884213345
5006.869191303552,73048.10493293511
5006.895229620806,75969.14317323243
5006.921268073474,78687.88327912048
5006.947306661555,80952.130243776
5006.97334538505,82688.94740266506
5006.999384243961,84398.2772907915
5007.025423238286,85636.24557287869
5007.051462368028,85908.70960551852
5007.077501633187,86041.73491469183
5007.103541033764,86136.35796714557
5007.129580569759,86210.82226080602
5007.155620241173,86210.61252356949
5007.181660048007,86739.13654322742
5007.207699990262,87195.14383001855
5007.233740067937,87979.20242998448
5007.259780281035,88076.62143656866
5007.285820629555,89024.0131936894
5007.311861113499,89810.9509854298
5007.337901732866,89909.12526383683
5007.363942487658,90103.32530530271
5007.389983377876,90613.42218268149
5007.41602440352,90895.82340608323
5007.442065564591,91265.47397067361
5007.468106861089,91691.82409993201
5007.494148293015,91828.0689183258
5007.520189860371,91804.56313738223
5007.546231563156,91959.81586080077
5007.572273401372,92156.20925071837
5007.598315375018,92181.95640342623
5007.624357484096,92345.9132707014
5007.650399728607,92401.6999586771
5007.676442108551,92538.38740997357
5007.702484623929,92136.06666684723
5007.728527274741,92448.92124164455
5007.754570060989,92336.41028448165
5007.780612982673,92625.5198590851
5007.806656039793,92249.49440529366
5007.832699232351,91922.80735967353
5007.858742560347,92116.02425186303
5007.884786023782,91889.17437050438
5007.910829622656,91821.72803217944
5007.936873356971,91673.83843384738
5007.962917226726,91307.70167708397
5007.988961231923,90934.60870969192
5008.015005372563,90634.49581030023
5008.041049648646,90550.96177041343
5008.067094060171,90317.04107623627
5008.0931386071425,90151.26401061894
5008.119183289558,90402.75804709169
5008.14522810742,90767.16014529526
5008.171273060728,90856.33979520596
5008.197318149483,90823.12882899599
5008.223363373687,91230.63049656773
5008.249408733339,91199.51225996284
5008.27545422844,91566.61090357855
5008.301499858992,91055.69609716508
5008.327545624995,91151.64910772753
5008.353591526448,91603.23978141662
5008.379637563355,91443.21189732838
5008.405683735714,91552.61437990716
5008.431730043527,91963.01151768918
5008.457776486794,91492.43720556796
5008.483823065515,91608.15077883156
5008.509869779693,91801.58078685883
5008.535916629327,91983.18117503723
5008.561963614418,92196.73446779112
5008.588010734968,92018.30355006592
5008.614057990975,91900.8769529856
5008.640105382442,92084.85149146563
5008.666152909369,92407.52028073334
5008.692200571756,92129.07448106447
5008.718248369605,91890.27657096875
5008.744296302916,92175.64332973017
5008.77034437169,91982.45182765393
5008.796392575927,91637.89107807733
5008.822440915628,91562.80333872822
5008.848489390794,91916.74198606338
5008.874538001426,91974.87041525714
5008.900586747524,91605.14984458058
5008.926635629089,91323.4689590231
5008.952684646122,91557.46508014893
5008.978733798623,91581.45457110045
5009.004783086593,91118.93734818762
5009.030832510033,91269.24181627702
5009.056882068944,90944.11154810422
5009.082931763326,90826.53268595296
5009.108981593179,90992.61157209298
5009.135031558506,91028.35413901365
5009.161081659306,91091.65096102352
5009.187131895579,90592.56351844531
5009.213182267327,90453.38077108386
5009.239232774552,90352.74310322429
5009.265283417251,89962.57599732534
5009.291334195428,89022.67903466505
5009.317385109083,87938.1383480511
5009.343436158216,86787.34608888242
5009.369487342828,85473.5739117975
5009.395538662919,84066.34790861463
5009.421590118491,82229.14734965746
5009.447641709544,80357.64533639004
5009.473693436078,78186.50710800657
5009.499745298095,75629.0588269746
5009.525797295596,72365.29488029619
5009.55184942858,69393.19658917814
5009.577901697049,66556.33713949981
5009.603954101003,64850.05187357833
5009.630006640443,64328.17473727781
5009.65605931537,64725.73622083986
5009.682112125784,66501.74190220427
5009.708165071686,68836.27647490309
5009.7342181530785,71781.66136367165
5009.760271369959,74487.90241263084
5009.78632472233,77020.20824467659
5009.812378210192,79182.71999748348
5009.838431833546,81658.65274567613
5009.864485592391,83994.09862720555
5009.890539486731,85562.62261712039
5009.916593516564,86990.63494468505
5009.942647681891,88388.82924411807
5009.968701982713,89161.95394406312
5009.994756419032,89650.1076521697
5010.020810990847,90490.3502214253
5010.046865698159,91039.603245277
5010.072920540969,91155.62453199974
5010.098975519279,91313.95636526184
5010.125030633087,91211.0243265127
5010.151085882395,91080.48164001535
5010.177141267204,90208.47076346833
5010.2031967875155,89346.22987965967
5010.229252443328,88673.97443191691
5010.255308234644,87095.64905039038
5010.281364161464,85454.3600137557
5010.307420223788,84274.76280572492
5010.333476421617,83598.952415969
5010.359532754951,82715.589320372
5010.3855892237925,83143.47817722519
5010.4116458281405,83767.10160911846
5010.437702567997,84287.69672152608
5010.463759443362,85419.79182633215
5010.489816454236,86102.63958543875
5010.51587360062,87083.73553258911
5010.541930882514,87872.37620624717
5010.56798829992,88574.12025896918
5010.5940458528385,89756.88484935272
5010.62010354127,90359.89971214796
5010.646161365214,90535.35257638653
5010.672219324672,91146.07176580139
5010.698277419646,91695.33062422872
5010.724335650135,91830.4359528323
5010.7503940161405,91929.40216153719
5010.7764525176635,92169.72725191768
5010.802511154703,92301.80461018259
5010.828569927262,92230.6819162748
5010.85462883534,92251.03756845725
5010.880687878937,92388.12971924947
5010.906747058056,92531.13010606934
5010.932806372695,92026.16256815274
5010.958865822856,91652.8653916036
5010.98492540854,91470.04360053527
5011.0109851297475,91301.29425376382
5011.0370449864795,90506.84095942114
5011.063104978735,89860.98262407229
5011.089165106517,88897.27311557847
5011.115225369825,88280.1368481096
5011.14128576866,87525.07508417017
5011.167346303022,86244.16952045221
5011.193406972913,84994.88766601108
5011.219467778333,83923.99559429652
5011.2455287192815,81964.18013365254
5011.271589795761,79955.60401968335
5011.297651007772,76814.12823215169
5011.323712355315,73050.1831909629
5011.34977383839,68549.30818157099
5011.375835456999,63424.5329128305
5011.401897211142,58466.13386223864
5011.427959100819,54139.122861239484
5011.454021126031,50848.4586408532
5011.4800832867795,48781.07741813047
5011.506145583065,47945.20866314131
5011.532208014888,48425.14914068636
5011.558270582248,50345.709291962165
5011.584333285148,53049.69190422678
5011.610396123588,56049.35093884125
5011.636459097567,59597.61773202236
5011.662522207088,63023.77040966675
5011.68858545215,66238.87810358782
5011.714648832754,68145.80163256408
5011.740712348902,70159.22667742633
5011.766776000594,71200.0287112194
5011.79283978783,71470.67698737909
5011.818903710611,72400.87085610045
5011.844967768939,72732.95694852422
5011.871031962813,73721.41845451065
5011.897096292234,74801.47262756585
5011.923160757203,76633.54518663553
5011.949225357721,78183.1532850626
5011.975290093788,79206.30131827849
5012.001354965406,80095.82074073862
5012.027419972574,81064.68091209518
5012.053485115294,81362.99833346224
5012.079550393566,81730.11663423825
5012.105615807392,82128.04491079849
5012.13168135677,82682.2145774922
5012.157747041703,83687.08904797335
5012.183812862192,84722.5314381943
5012.209878818236,85672.51716044778
5012.235944909837,86758.22490249625
5012.262011136994,87441.78983844905
5012.28807749971,87936.01517729378
5012.3141439979845,88659.89932105188
5012.340210631818,89107.29343239896
5012.366277401212,89416.9161363899
5012.392344306166,89639.93096078113
5012.418411346682,89973.34865349924
5012.44447852276,89957.47630266548
5012.470545834401,89803.71131257467
5012.496613281605,89918.74682190153
5012.522680864374,88946.0427022156
5012.548748582707,88665.48047378118
5012.574816436606,87171.85259375803
5012.600884426071,85726.18854873958
5012.626952551104,83715.66682175855
5012.653020811705,81128.34558156319
5012.679089207873,78618.06789051351
5012.705157739611,76917.1445414588
5012.73122640692,75692.49714409659
5012.757295209798,75190.28798063778
5012.7833641482475,74926.64968024695
5012.80943322227,75079.53267947292
5012.835502431864,74922.3684633059
5012.861571777033,74886.00862052408
5012.887641257775,74377.10378145686
5012.9137108740915,72757.19841127333
5012.939780625984,70298.97094572516
5012.965850513452,67134.31314612672
5012.991920536498,63574.11500283962
5013.017990695121,59871.9913005228
5013.044060989323,56223.60153327219
5013.070131419104,53680.311836444555
5013.096201984464,52741.49114126092
5013.122272685405,52888.87526518876
5013.148343521927,54432.51459108731
5013.17441449403,57304.29135834392
5013.200485601717,60466.22311692001
5013.226556844987,63700.614557049135
5013.2526282238405,66864.56200024261
5013.278699738279,69728.80450727104
5013.304771388303,72443.98387388846
5013.330843173913,75013.89070149869
5013.35691509511,77365.14440761301
5013.382987151894,79515.99411974674
5013.409059344267,80122.74083076068
5013.435131672228,80751.07241395047
5013.46120413578,81372.55712717348
5013.487276734921,80439.2237212997
5013.513349469653,79019.12934014617
5013.539422339977,77271.15150293679
5013.565495345894,74039.15019178785
5013.5915684874035,71188.8729789923
5013.617641764507,68626.15174897855
5013.643715177206,66481.67895684714
5013.6697887254995,65384.89223199623
5013.695862409389,65526.39090047539
5013.721936228875,67038.36139692107
5013.748010183958,68937.81357180924
5013.77408427464,71401.80169677488
5013.800158500921,73872.67584511498
5013.826232862801,76336.70142537825
5013.852307360281,78744.59829688352
5013.8783819933615,80465.28047928234
5013.904456762045,82319.51730606775
5013.930531666329,83918.59605421047
5013.956606706218,84757.22301614551
5013.982681881709,85609.33375052155
5014.008757192805,86116.95431813404
5014.034832639507,86204.29284057344
5014.060908221814,86076.30379938487
5014.086983939728,85637.26454406648
5014.113059793249,84844.47030336474
5014.139135782378,83300.59967683349
5014.165211907116,81152.42584632881
5014.1912881674625,78325.7256942214
5014.21736456342,74690.72113834321
5014.243441094988,70433.25112299707
5014.269517762167,66060.99497178076
5014.295594564959,62343.202748767304
5014.321671503363,59189.69856631081
5014.347748577381,57101.01482396084
5014.373825787014,56919.9829153306
5014.399903132261,58214.38144773965
5014.425980613125,60643.21890686549
5014.4520582296045,63452.520741998414
5014.478135981701,66623.98452078743
