wave,flux
4450.003811362098,28234.799324256917
4450.026953690486,30882.939842656375
4450.050096139227,34588.054249722205
4450.073238708321,38562.78073177222
4450.096381397769,42646.09884100767
4450.119524207569,46617.10013989442
4450.142667137726,50014.351854193665
4450.165810188237,52886.5031138986
4450.188953359103,55890.67401035181
4450.212096650326,58586.3884091774
4450.2352400619075,61239.014599459166
4450.258383593846,63932.625305010195
4450.281527246142,65813.5846365679
4450.304671018797,67502.70566589003
4450.327814911813,68900.20683229301
4450.350958925188,70121.06453491536
4450.374103058924,71856.85593731843
4450.3972473130225,73734.98565492818
4450.420391687483,75542.97905480415
4450.443536182305,77068.05215113696
4450.466680797492,78747.28343713799
4450.489825533042,80534.32037816013
4450.512970388957,81599.45956945636
4450.536115365237,82837.92811729282
4450.559260461882,83789.47143371489
4450.582405678895,84968.77721423593
4450.605551016274,85336.2681903346
4450.628696474022,85644.25252176133
4450.651842052138,85844.12628721794
4450.674987750623,86042.77327239564
4450.698133569476,85450.7271819843
4450.721279508702,85411.30499753972
4450.744425568297,84730.0729267176
4450.767571748264,83709.6370468386
4450.790718048604,83345.50330001049
4450.813864469315,81910.2946750299
4450.837011010401,81051.87597319346
4450.86015767186,79063.3492964588
4450.883304453694,76587.19774757697
4450.906451355903,73354.19739191407
4450.929598378489,69660.42053480328
4450.95274552145,64991.53241133171
4450.975892784789,60375.873934113835
4450.999040168505,56290.865936940805
4451.022187672601,53776.83057633916
4451.045335297074,52775.37663775157
4451.068483041929,53275.55679333309
4451.091630907163,55424.28117372626
4451.114778892777,58280.55990523872
4451.137926998774,61516.399746818235
4451.161075225153,64738.04241922939
4451.184223571914,67684.56191957282
4451.207372039059,70915.21850976109
4451.230520626587,73468.07649233617
4451.253669334501,75505.05601803708
4451.2768181628,77644.68344322167
4451.299967111485,79144.91692344165
4451.323116180556,80632.2655337089
4451.346265370014,81231.29797624797
4451.369414679861,81258.9966431812
4451.392564110095,81257.93213082508
4451.415713660719,80726.29103829249
4451.438863331732,80140.13979025398
4451.462013123136,80262.54464022942
4451.48516303493,80131.30919930559
4451.508313067117,80436.42504212816
4451.531463219695,80503.2238912463
4451.554613492666,80750.08498377922
4451.577763886031,81891.83704060793
4451.60091439979,82592.42168733166
4451.624065033943,82891.34605590075
4451.647215788492,83371.09688416788
4451.670366663436,83997.27684228796
4451.693517658777,84959.54371793682
4451.716668774516,85456.21292198356
4451.739820010652,85989.67142463656
4451.762971367186,85824.81338943653
4451.78612284412,86162.9250952577
4451.8092744414525,86531.55597317411
4451.832426159187,86601.91330795384
4451.855577997321,86640.092334454
4451.878729955857,86337.05782078352
4451.901882034796,86480.7275972999
4451.925034234137,85956.92186959041
4451.948186553881,85561.47942155013
4451.97133899403,84864.70338700872
4451.994491554583,83749.17738941258
4452.017644235542,82757.95046565794
4452.040797036907,82036.09664025334
4452.063949958678,80823.29455340822
4452.087103000857,79719.57975267504
4452.1102561634425,79085.84038773456
4452.133409446437,78291.21019293346
4452.156562849841,77749.36864856203
4452.179716373655,77555.87710175011
4452.202870017878,77565.42618609584
4452.226023782513,77960.20283954503
4452.24917766756,78730.0176030668
4452.272331673018,79355.65309226185
4452.29548579889,80069.61203106534
4452.318640045174,80612.8281948434
4452.341794411874,80352.759921051
4452.364948898987,79811.16615636721
4452.388103506516,79482.4710960299
4452.4112582344615,78695.10634098639
4452.434413082823,77994.13515667291
4452.457568051602,77015.79862332318
4452.480723140799,77464.39653371733
4452.503878350413,77393.78397360444
4452.527033680448,77716.02367309804
4452.550189130902,78185.74066401484
4452.5733447017765,78520.09631465063
4452.596500393071,79062.29269046825
4452.619656204789,78562.97432197683
4452.642812136928,78437.0647765712
4452.66596818949,77972.8160986688
4452.689124362475,76215.23189875083
4452.7122806558855,74723.98629043407
4452.735437069719,73032.17377473795
4452.7585936039795,71626.98385002025
4452.781750258665,70479.4140919705
4452.804907033777,70833.22240646301
4452.828063929317,71487.99021765363
4452.851220945285,73156.53045609145
4452.87437808168,74806.98014764555
4452.897535338506,76337.43942312458
4452.92069271576,77676.6657180555
4452.943850213445,78938.87765868548
4452.967007831562,79962.26245944212
4452.99016557011,81044.40189401145
4453.01332342909,81859.01921142811
4453.036481408502,82275.58965620773
4453.059639508349,82587.64540014787
4453.08279772863,82077.16267841926
4453.105956069345,82046.77554359002
4453.129114530496,81605.60512911376
4453.152273112083,80680.43938484187
4453.175431814107,80361.2648337996
4453.198590636567,80709.52061151531
4453.221749579466,81459.62488263397
4453.244908642802,81741.16501090335
4453.268067826579,82373.06104544204
4453.291227130795,82727.08647089207
4453.314386555451,83070.69572235491
4453.337546100549,83930.67036238087
4453.360705766087,84061.49614870313
4453.3838655520685,84849.52215323366
4453.407025458493,85611.42387242142
4453.430185485361,85696.6710933174
4453.453345632673,85941.49997481008
4453.476505900429,85688.17778417452
4453.4996662886315,85576.80243832496
4453.52282679728,85666.6766661673
4453.545987426375,84939.55471737025
4453.569148175917,84429.4464194695
4453.592309045907,84009.67586504643
4453.615470036346,83281.1164005491
4453.638631147233,82412.13845597919
4453.661792378571,80440.57089448048
4453.684953730359,78544.51903773364
4453.708115202598,75890.16389740685
4453.731276795288,72178.86409814193
4453.754438508431,67534.8740132448
4453.777600342027,63206.29553949622
4453.800762296077,58550.314989539576
4453.82392437058,54832.755343403674
4453.847086565538,52258.80354372299
4453.870248880952,51618.200706600204
4453.8934113168225,52624.51070863842
4453.916573873149,54015.72428468996
4453.939736549933,55579.172577014426
4453.962899347174,56453.65618035601
4453.986062264875,57381.90217271959
4454.009225303034,57599.78418675962
4454.032388461654,56798.64256047563
4454.055551740734,54750.595694166346
4454.078715140275,52377.331851857336
4454.101878660277,49239.587831650264
4454.125042300742,45641.353255440605
4454.14820606167,41723.96080877912
4454.171369943061,37785.593738524665
4454.194533944917,34451.75834563464
4454.2176980672375,32098.514541596585
4454.240862310024,30638.235252841838
4454.264026673275,30454.471753943137
4454.287191156994,31787.130697378103
4454.31035576118,34129.137180394326
4454.333520485834,37475.849212056644
4454.356685330957,40357.99139896009
4454.379850296548,42893.63177122523
4454.40301538261,44744.4521836205
4454.426180589142,46049.828645606
4454.449345916145,47469.241195187795
4454.4725113636205,48638.97085190838
4454.495676931568,50441.04933970132
4454.5188426199875,52953.485530406295
4454.542008428882,55927.35216698918
4454.565174358249,59155.289956229884
4454.588340408092,61540.42507026605
4454.611506578411,63029.34129473878
4454.634672869205,63599.34874941987
4454.657839280476,63265.972763199665
4454.681005812225,62263.009900445315
4454.704172464451,60538.302666912445
4454.727339237156,59151.26544448471
4454.750506130341,58216.772000607234
4454.773673144005,58195.73835294859
4454.79684027815,59710.88183814567
4454.820007532776,61672.32712191441
4454.843174907884,64455.7528203705
4454.866342403473,67146.08048491602
4454.889510019546,69850.12353562212
4454.912677756102,72354.4003468341
4454.935845613144,74402.2804915063
4454.959013590669,76080.54907137336
4454.982181688681,77515.93482598479
4455.005349907178,78347.55686172986
4455.028518246162,79090.87371774997
4455.051686705633,78929.76968854161
4455.074855285593,78852.60834223354
4455.098023986041,77769.96437613836
4455.121192806979,76711.62917132901
4455.144361748406,75278.0646636965
4455.167530810323,73102.1603518602
4455.190699992732,69942.81864433723
4455.213869295633,66109.74922836375
4455.237038719026,61773.34822189913
4455.260208262912,56812.146546865544
4455.283377927292,52144.01710377003
4455.306547712166,48280.92846271517
4455.329717617535,45634.674828634284
4455.352887643399,43983.374647224926
4455.37605778976,44570.01438186215
4455.399228056617,46590.298560825475
4455.422398443972,49183.854019737584
4455.445568951825,53436.55715405504
4455.468739580177,56697.87990305097
4455.491910329028,61043.114412007286
4455.515081198378,63899.229538631385
4455.538252188229,67213.85879185231
4455.561423298582,70485.24496422308
4455.584594529436,72699.07866559758
4455.607765880793,74801.45856483311
4455.630937352652,76316.24586826106
4455.654108945016,77296.08878005293
4455.677280657883,77902.57570450756
4455.700452491255,77288.91277983143
4455.723624445134,76166.51400289712
4455.746796519518,75052.17101749576
4455.7699687144095,73420.32107014545
4455.793141029808,72310.8566377004
4455.816313465714,71415.74051218976
4455.83948602213,70643.85427636291
4455.862658699055,70976.89184860273
4455.885831496489,71051.6821815336
4455.909004414434,71625.78727675624
4455.932177452891,71745.73890120837
4455.955350611858,71245.39045619706
4455.978523891339,69930.03852081446
4456.001697291333,68131.84594284809
4456.024870811841,66078.32383422292
4456.048044452862,63377.913783509925
4456.071218214399,61076.59670789842
4456.094392096451,59535.336699091815
4456.117566099019,59011.30482928823
4456.140740222105,59845.89590290208
4456.163914465707,61591.49151992862
4456.187088829828,63917.339014637626
4456.210263314468,66302.90207148503
4456.233437919626,68946.77528940514
4456.256612645306,71669.95243446878
4456.279787491505,73569.24397431534
4456.302962458226,74857.88379174517
4456.326137545469,76184.5205331597
4456.349312753233,77461.92446558857
4456.372488081522,78542.2640955499
4456.395663530333,79072.55375317452
4456.41883909967,79170.64552244733
4456.442014789531,79395.4541435955
4456.465190599917,79050.52887388058
4456.488366530831,78738.54268667185
4456.5115425822705,78633.47023934395
4456.5347187542375,78992.59391815265
4456.557895046733,79696.92387337211
4456.581071459757,80199.58417799672
4456.604247993311,80737.42977446149
4456.627424647395,80799.15656507786
4456.650601422009,80740.44921642907
4456.673778317154,80734.05857155008
4456.696955332832,80255.98729505968
4456.720132469041,79428.2435844673
4456.7433097257845,77991.76240438767
4456.766487103061,75400.72654985175
4456.789664600872,72662.57668357491
4456.8128422192185,69575.47021776394
4456.8360199581,66283.17562400247
4456.859197817518,62874.20701238271
4456.882375797473,60464.48598469432
4456.905553897966,58958.09541607037
4456.928732118997,57718.65515121273
4456.951910460566,57377.80724396633
4456.975088922674,57838.299669814136
4456.998267505323,58884.15382266877
4457.021446208513,60909.70370822065
4457.044625032244,63184.41759699456
4457.067803976516,65868.83314105526
4457.090983041332,68806.71390810434
4457.1141622266905,71774.57442510611
4457.1373415325925,74259.9064537719
4457.160520959039,75717.2314125899
4457.183700506031,77351.34283072344
4457.206880173568,78269.19125021568
4457.230059961651,79320.03354692961
4457.2532398702815,80147.1985818064
4457.27641989946,80948.92939348413
4457.299600049186,81485.64169935668
4457.322780319461,81728.52851709387
4457.345960710286,81381.51579273144
4457.36914122166,80657.71176266372
4457.392321853586,80177.83908644218
4457.415502606062,78731.71691987278
4457.43868347909,77089.77918860535
4457.461864472672,75146.55174194687
4457.485045586805,72357.10031591842
4457.508226821494,69682.05735787064
4457.5314081767365,67249.65995488198
4457.554589652534,65705.13961633848
4457.577771248887,64680.62656756445
4457.600952965797,64459.0677462785
4457.624134803263,64252.7712314881
4457.647316761288,63136.03096187774
4457.67049883987,62758.815014943815
4457.693681039011,61920.06379722552
4457.716863358712,62580.44691422018
4457.7400457989725,63427.8963522263
4457.763228359793,65382.94889376302
4457.7864110411765,67816.46494149754
4457.809593843121,69678.54903914982
4457.832776765628,71630.34514486765
4457.855959808699,73196.39533717895
4457.879142972333,73827.25997770177
4457.902326256532,74425.02315623817
4457.925509661296,73996.45007431862
4457.948693186626,73746.69929049833
4457.971876832522,73239.14709767331
4457.995060598985,73297.83600010823
4458.018244486016,74073.57336864792
4458.041428493615,74977.84955128604
4458.0646126217825,76362.22249747341
4458.08779687052,77682.5095141367
4458.110981239827,78692.30029189977
4458.134165729705,79643.69433708924
4458.157350340155,80225.21097577734
4458.180535071177,80756.93156681974
4458.203719922771,81508.71128615385
4458.226904894938,81467.86365684024
4458.2500899876795,81275.78595393263
4458.273275200995,80390.1340942609
4458.296460534886,78991.70745050284
4458.3196459893525,77271.23378161651
4458.342831564396,74378.57505884708
4458.366017260016,71616.1832866188
4458.389203076214,68190.85758038456
4458.4123890129895,63483.914912894164
4458.435575070344,58146.96370600551
4458.458761248279,52665.53613300393
4458.481947546794,47459.13749894589
4458.505133965889,42494.37783080099
4458.528320505566,38817.91013493437
4458.551507165825,36391.17133904323
4458.574693946666,34793.46289113069
4458.597880848091,34641.134422048475
4458.6210678701,36047.61572404622
4458.644255012693,38583.61601467429
4458.6674422758715,41808.60370073605
4458.690629659636,45125.2860956195
4458.713817163986,48010.402046770076
4458.737004788924,50515.15069134336
4458.76019253445,52117.83988141414
4458.783380400563,53217.458679206706
4458.8065683872655,54805.9255411783
4458.829756494558,57173.761300841645
4458.85294472244,59750.98397444706
4458.876133070914,62951.955487535175
4458.899321539979,66140.32144836859
4458.922510129635,69329.9572397751
4458.945698839884,72121.65690264023
4458.968887670727,74188.00697334087
4458.992076622164,76340.89520300945
4459.015265694195,78370.64326338266
4459.0384548868215,79887.44505380321
4459.061644200044,80684.7550018558
4459.084833633862,81393.23125768454
4459.108023188278,81194.90512288165
4459.131212863292,81673.36368021865
4459.154402658904,81134.27337523694
4459.177592575114,80365.77248620828
4459.200782611925,80215.3864873067
4459.223972769336,79893.35986264554
4459.247163047347,79919.92631700888
4459.27035344596,80330.0082017844
4459.293543965176,81020.89657493748
4459.316734604993,81240.26964714756
4459.339925365414,82301.11298681059
4459.363116246439,82968.62674492355
4459.386307248069,83439.6418637529
4459.409498370304,83391.41047707872
4459.432689613145,83218.9979066605
4459.455880976592,82960.9015851757
4459.479072460647,82352.7918881794
4459.502264065309,81548.88734064676
4459.52545579058,80101.509079638
4459.5486476364595,78212.61896277781
4459.571839602949,75402.73732972429
4459.595031690048,71839.07101177213
4459.618223897759,68079.83200555197
4459.641416226081,64570.46246651792
4459.664608675014,62350.481864691326
4459.687801244561,61310.55645544755
4459.710993934721,61389.031381879475
4459.734186745496,62127.43050124273
4459.757379676885,63300.16897049368
4459.780572728889,64817.203897607025
4459.803765901509,66696.39245791483
4459.8269591947455,69408.81475400884
4459.850152608599,71191.25778903563
4459.87334614307,73247.84667184655
4459.89653979816,75536.79537776067
4459.91973357387,77941.99885062984
4459.942927470198,79430.16377836147
4459.966121487147,80601.11958348914
4459.989315624717,82053.38641974339
4460.0125098829085,83024.16949744755
4460.035704261722,83591.27531834303
4460.058898761158,84337.32883318841
4460.082093381218,84757.23505475814
4460.105288121902,85384.20651183513
4460.12848298321,86147.23882683106
4460.151677965145,86034.53830272738
4460.1748730677045,85097.57760779992
4460.198068290891,84761.52190001817
4460.221263634704,84659.80361050337
4460.244459099145,84527.98739687313
4460.267654684215,83975.93367075015
4460.290850389914,84165.93401563108
4460.314046216243,84338.06559677109
4460.337242163202,83776.51123496174
4460.360438230791,82930.83701645602
4460.383634419013,82096.14826951406
4460.406830727867,81085.57879657415
4460.430027157354,79381.45380922318
4460.453223707474,77270.09469840032
4460.476420378228,74626.80594021117
4460.499617169617,71488.88232356335
4460.522814081641,68263.3627486036
4460.5460111143,64927.25171348511
4460.569208267598,61740.60650749183
4460.592405541532,58727.3892891243
4460.615602936104,55676.03604517893
4460.638800451314,53346.319450851675
4460.661998087163,51474.04119962687
4460.685195843652,50554.98040719153
4460.708393720782,50882.54763439472
4460.731591718552,51483.173988212475
4460.754789836965,51663.976402528584
4460.777988076019,51264.55796230474
4460.801186435716,50099.69387672139
4460.824384916057,48162.02499759211
4460.847583517042,46142.812495989005
4460.870782238671,44364.972761217
4460.893981080947,43302.522601824945
4460.917180043868,42995.26820132471
4460.940379127435,43078.44980405406
4460.963578331651,43078.86330643013
4460.986777656513,42681.295724929274
4461.009977102025,41407.389809717475
4461.033176668186,39532.77861034693
4461.056376354995,37419.14954381737
4461.079576162457,35480.45920676683
4461.102776090568,34448.41392692289
4461.125976139332,34362.59919758344
4461.149176308748,35754.65966292411
4461.172376598816,38189.70242083741
4461.195577009538,41461.558404483956
4461.218777540915,45430.012654992395
4461.241978192946,49368.328729370965
4461.265178965633,53108.85940926768
4461.2883798589755,55889.27940606352
4461.311580872974,57591.624050909144
4461.3347820076315,58298.51214345203
4461.357983262946,58062.15028452597
4461.381184638919,56277.12038448984
4461.404386135551,53971.34037121979
4461.4275877528435,52068.507376333815
4461.4507894907965,50808.088166349306
4461.4739913494095,50409.71256163864
4461.497193328685,51479.50784987382
4461.520395428623,53950.700963071795
4461.543597649224,56730.98181965096
4461.566799990488,60168.139600212366
4461.590002452416,63036.258964018765
4461.61320503501,65466.8447854988
4461.636407738269,67694.68295637636
4461.659610562193,69971.16957354888
4461.682813506784,71533.62354277878
4461.706016572044,73248.4975265191
4461.729219757971,74228.96036322045
4461.752423064566,74691.71427787612
4461.775626491831,74981.63807524652
4461.798830039766,74445.91674489934
4461.82203370837,72977.91864800913
4461.845237497647,70613.18457306763
4461.868441407595,69185.30198366559
4461.891645438215,67156.35098859112
4461.914849589509,66518.83978554458
4461.938053861475,66908.90560960409
4461.961258254117,67483.78556651455
4461.984462767433,69466.33112598804
4462.007667401424,71517.72881114039
4462.030872156092,73232.2531212619
4462.0540770314365,75238.31999645775
4462.077282027459,76506.16358312432
4462.100487144158,77796.93015601333
4462.123692381537,79040.75235090849
4462.146897739594,79544.94731353305
4462.170103218332,80083.30406551818
4462.19330881775,80953.56879881593
4462.21651453785,81161.98680397696
4462.239720378631,80994.48702896298
4462.262926340095,81547.0014015821
4462.286132422241,81457.95295747227
4462.309338625071,80975.44829983296
4462.3325449485865,79684.04569611426
4462.355751392785,78452.44137029948
4462.3789579576705,76804.10385523735
4462.402164643242,74852.22401573698
4462.4253714495,73295.52871380815
4462.448578376446,72063.25381346875
4462.471785424079,72042.20729654159
4462.494992592401,72536.46632298539
4462.518199881412,73273.67320647697
4462.541407291114,74077.9843841299
4462.564614821506,74852.84843365596
4462.587822472589,76032.43860818254
4462.611030244365,76927.88960920907
4462.634238136832,77608.53840019461
4462.657446149992,78249.75262938283
4462.680654283847,79364.74188028519
4462.703862538396,79858.5921867932
4462.727070913639,79500.69997106669
4462.750279409578,78997.63433640957
4462.773488026214,77918.06741249961
4462.796696763546,76515.37482165126
4462.819905621575,74733.47446948975
4462.843114600304,73330.97638145661
