wave,flux
5000.025812696027,51794.881243407704
5000.051815424163,53262.63206347214
5000.0778182875265,54078.75439795726
5000.103821286119,54212.25723245071
5000.12982441994,53432.28309352542
5000.155827688991,51702.88380873073
5000.181831093272,49734.20872825685
5000.207834632784,47769.84921925774
5000.2338383075285,46071.569849820786
5000.259842117506,45317.50253525614
5000.285846062716,45283.19791939273
5000.311850143161,45724.40245166353
5000.33785435884,46732.21052620474
5000.363858709754,47822.00047167768
5000.389863195905,49311.5295656505
5000.415867817292,50565.30625035195
5000.441872573917,51354.045542595704
5000.4678774657805,52011.86940637488
5000.493882492882,52793.5569227934
5000.519887655224,53959.09665470833
5000.545892952806,55164.074663971594
5000.571898385629,56084.51794077423
5000.597903953694,57344.53127595363
5000.623909657001,58177.05784517897
5000.649915495552,58825.57925258895
5000.675921469346,58947.042583232826
5000.701927578384,59475.48360334886
5000.727933822669,59290.0784920482
5000.7539402021985,58614.67129126649
5000.779946716975,58387.04513143052
5000.805953366999,58110.93511493088
5000.831960152272,57326.939936432485
5000.857967072792,55901.54757069402
5000.883974128563,53934.45268359028
5000.9099813195835,51575.5723045599
5000.935988645855,49287.35430330412
5000.961996107378,47379.37940769396
5000.988003704153,45751.8549656861
5001.014011436181,45447.310175543156
5001.040019303464,45695.651079913194
5001.066027306,46938.01238183082
5001.092035443791,47883.40429179164
5001.118043716839,49016.563828843544
5001.1440521251425,49577.568189064164
5001.170060668704,49491.201291543155
5001.196069347523,48604.03493079141
5001.222078161601,46636.463979663524
5001.248087110937,44207.810302024125
5001.274096195534,41193.40230414674
5001.300105415392,37398.92027646471
5001.326114770512,33731.61985476286
5001.352124260892,30984.567879397207
5001.3781338865365,29429.816437572386
5001.4041436474445,29267.5756634777
5001.430153543616,30355.43249767852
5001.456163575053,32827.249638133704
5001.482173741756,36419.24198953538
5001.508184043724,40332.84918806039
5001.534194480961,43841.463004527955
5001.560205053464,47488.900306099684
5001.586215761236,50698.33526791347
5001.612226604278,53574.95402956139
5001.638237582589,55848.61970434187
5001.664248696171,57519.657352050555
5001.690259945024,58675.45397717704
5001.716271329149,59767.38348279865
5001.742282848547,60878.64344391312
5001.768294503218,61357.960645573636
5001.794306293164,61484.40374356253
5001.820318218383,61940.89585260733
5001.84633027888,62006.76848962206
5001.872342474651,61592.4519380294
5001.8983548056995,61477.893851221204
5001.924367272026,60855.094489308605
5001.9503798736305,60751.59311638425
5001.976392610514,60428.827580150886
5002.002405482678,59771.92026845819
5002.028418490122,59112.39375334187
5002.054431632847,58625.964569989475
5002.080444910854,58064.885925603456
5002.106458324142,57119.618614823645
5002.1324718727155,55995.68202591042
5002.158485556572,54610.68628755042
5002.184499375713,52764.63130882201
5002.210513330139,50441.629533216816
5002.236527419852,47592.083837267724
5002.262541644852,44968.1517796819
5002.288556005138,43173.452859153964
5002.314570500714,42274.718088772606
5002.340585131577,42765.23785816987
5002.36659989773,44918.40623723897
5002.392614799174,47236.7612939276
5002.418629835909,49467.459925277646
5002.444645007936,52140.38709040316
5002.4706603152545,54815.52540725011
5002.496675757866,56639.87695964695
5002.522691335772,58220.89278744821
5002.548707048972,59523.020874751746
5002.574722897468,60507.45721401126
5002.600738881259,61274.474846756326
5002.626755000347,61748.32844402335
5002.652771254732,62027.67902056636
5002.678787644415,62104.95443154906
5002.704804169397,62257.73547342439
5002.730820829678,62237.20481671836
5002.75683762526,62259.112554653504
5002.782854556142,62219.650297183856
5002.8088716223265,62348.0250822501
5002.834888823812,62313.76462874887
5002.860906160601,61973.01280040591
5002.886923632695,61540.162054233326
5002.912941240092,61754.02153155815
5002.938958982793,61784.75892461905
5002.9649768608015,61471.61136993557
5002.990994874116,61556.3829698047
5003.017013022737,61519.7828741261
5003.043031306666,61271.00095365038
5003.069049725905,61141.03333339606
5003.095068280452,60925.92288589014
5003.121086970309,60728.62429367212
5003.147105795477,60101.46722455771
5003.173124755956,59260.53891220134
5003.199143851748,58657.73491673883
5003.225163082852,57685.960728294325
5003.251182449269,57148.51837721965
5003.277201951001,56513.57602006658
5003.3032215880485,56527.440054127816
5003.32924136041,56651.53406394725
5003.35526126809,56976.56727639326
5003.381281311085,56944.14855688923
5003.407301489398,56857.89354157501
5003.433321803031,56460.842343763514
5003.459342251982,55656.32095175556
5003.4853628362525,54358.03049010089
5003.511383555844,52671.789191780685
5003.537404410757,51318.46624133397
5003.563425400991,50649.99513286063
5003.589446526548,50700.87324656338
5003.615467787429,51354.617348739375
5003.641489183634,52112.389562765726
5003.667510715163,53050.46721509168
5003.693532382018,53996.71302428509
5003.719554184199,55043.612749251195
5003.745576121707,56086.29429362952
5003.771598194542,56695.370467261935
5003.797620402706,57377.976607520846
5003.823642746199,58192.27104379419
5003.849665225021,58379.101495595714
5003.875687839174,58567.8603714495
5003.901710588658,59167.41170548413
5003.927733473473,59492.726404940186
5003.953756493622,60006.87975324647
5003.979779649103,60605.906382564106
5004.005802939919,60956.364989470196
5004.031826366068,61597.42175750587
5004.057849927553,61972.42611367905
5004.083873624375,62270.70926677829
5004.109897456533,62268.44535577091
5004.135921424028,62336.1036224518
5004.161945526862,62198.409101871104
5004.187969765035,62246.342886938546
5004.213994138547,62284.595307730364
5004.240018647399,62198.449878664826
5004.266043291592,61878.12787015813
5004.292068071127,61586.88533783305
5004.318092986004,61061.49560046439
5004.344118036223,60510.272519110826
5004.370143221788,59850.00914458907
5004.396168542696,59377.88667485855
5004.422193998949,58821.113215414
5004.448219590549,58243.28791738574
5004.474245317495,57703.340496608085
5004.500271179789,56443.66879235364
5004.52629717743,54730.886557135535
5004.5523233104195,52676.06337499102
5004.578349578759,49711.170252311116
5004.604375982449,46563.514068722245
5004.630402521489,43532.14807876286
5004.656429195881,40713.19413940498
5004.682456005625,39409.826004332084
5004.708482950721,39378.415410888985
5004.734510031172,40855.312817906146
5004.760537246977,42998.441346122556
5004.7865645981365,45753.57734136471
5004.812592084652,48442.27903505521
5004.838619706525,51064.648559184
5004.8646474637535,53127.24166389847
5004.890675356341,54497.042102490246
5004.916703384286,55483.98705355453
5004.942731547591,56095.071238571116
5004.968759846256,55882.10681617955
5004.994788280281,54938.80641790934
5005.020816849668,53796.999902966614
5005.046845554417,51874.692372925696
5005.072874394528,49265.49352051782
5005.098903370003,46008.79618366248
5005.124932480842,42441.72938357029
5005.150961727047,38627.9667669431
5005.176991108617,35151.27552379984
5005.203020625552,32349.574811781076
5005.229050277856,30638.90940628926
5005.255080065526,30548.152773616584
5005.281109988566,31745.729856412847
5005.3071400469735,33754.0298553242
5005.333170240751,36124.02409605553
5005.3592005699,38434.16104046724
5005.38523103442,40104.97520013895
5005.411261634312,41038.92148495428
5005.4372923695755,41205.62686809704
5005.463323240213,40620.02145706146
5005.489354246225,38959.26090126722
5005.515385387611,36208.15381103877
5005.541416664373,33319.99501616517
5005.567448076511,30049.615933760473
5005.593479624025,27637.60070547521
5005.619511306918,26000.417426171618
5005.645543125189,25835.42026435656
5005.671575078838,26826.927955648433
5005.697607167867,29023.589271124587
5005.723639392277,31921.595452196998
5005.749671752068,35722.70652215545
5005.77570424724,39864.6246916462
5005.8017368777955,43816.387104749665
5005.8277696437335,47437.454331316876
5005.853802545055,50842.25251616593
5005.879835581762,53795.48461454559
5005.905868753854,56041.02829662983
5005.931902061331,57852.67310664653
5005.957935504196,59074.98133533032
5005.983969082448,59744.41609994843
5006.010002796088,60485.19904595844
5006.036036645117,60987.295892936076
5006.062070629536,61064.052187474605
5006.088104749344,61287.87939795464
5006.114139004544,61202.90817933848
5006.140173395135,60806.43430610367
5006.166207921118,60954.987586279225
5006.192242582495,60653.497511437796
5006.218277379266,60473.045192204656
5006.244312311431,60414.53384954702
5006.270347378991,60521.59459312684
5006.296382581946,60248.091317468505
5006.322417920299,60181.22461934604
5006.348453394048,59998.882938246796
5006.374489003196,59536.10663248208
5006.400524747743,59286.341045918794
5006.426560627688,59020.1001007151
5006.452596643034,58403.46794928008
5006.47863279378,57311.62688614432
5006.504669079928,56139.73410152198
5006.530705501478,55033.198166870585
5006.556742058431,53092.51452255641
5006.582778750788,50237.79570043778
5006.608815578549,47059.03140075893
5006.634852541715,43459.4959619006
5006.660889640287,39358.338819556026
5006.686926874265,35340.84514220224
5006.71296424365,31891.981381638394
5006.739001748444,29370.366611303853
5006.765039388645,28341.284210762293
5006.791077164256,28589.99484993661
5006.817115075277,30327.14589079767
5006.843153121708,33300.263925631036
5006.869191303552,36822.51464652342
5006.895229620806,40814.6090837892
5006.921268073474,44712.80612032441
5006.947306661555,48333.8681538802
5006.97334538505,51337.78449213654
5006.999384243961,53824.29282052646
5007.025423238286,56196.115037610034
5007.051462368028,57781.40279504503
5007.077501633187,58736.64644683425
5007.103541033764,59573.40879388674
5007.129580569759,59553.80072170735
5007.155620241173,59260.454590687856
5007.181660048007,58877.94578852533
5007.207699990262,58328.37040165499
5007.233740067937,57651.40001364705
5007.259780281035,57365.472638569496
5007.285820629555,58086.260756783
5007.311861113499,58854.26237032952
5007.337901732866,59529.29994391098
5007.363942487658,60043.23031612154
5007.389983377876,61259.764873596505
5007.41602440352,61746.41142823852
5007.442065564591,62301.044212769186
5007.468106861089,62859.34595557453
5007.494148293015,63484.10424548547
5007.520189860371,63369.45719967348
5007.546231563156,63232.09917398142
5007.572273401372,63294.733812402395
5007.598315375018,63312.20558174161
5007.624357484096,63516.98687860999
5007.650399728607,63634.12969152527
5007.676442108551,63683.80790106665
5007.702484623929,63712.86445063276
5007.728527274741,63665.267390820474
5007.754570060989,63511.195938524696
5007.780612982673,63594.19905081885
5007.806656039793,63672.21854917202
5007.832699232351,64220.21719156871
5007.858742560347,64540.30938211929
5007.884786023782,63963.826700291065
5007.910829622656,63901.162658955815
5007.936873356971,63712.21557508031
5007.962917226726,63754.14588576692
5007.988961231923,63518.61338411552
5008.015005372563,63180.13891522112
5008.041049648646,62916.51963745705
5008.067094060171,62548.129801883486
5008.0931386071425,61959.13503008709
5008.119183289558,61596.459635056526
5008.14522810742,61263.31210786344
5008.171273060728,61114.30410607354
5008.197318149483,61322.25536733177
5008.223363373687,61525.68531891074
5008.249408733339,61861.72287176401
5008.27545422844,62289.025939538915
5008.301499858992,62668.772649155006
5008.327545624995,63065.41691903108
5008.353591526448,63087.44466459196
5008.379637563355,63112.23814395536
5008.405683735714,63141.3347867014
5008.431730043527,63077.98231981633
5008.457776486794,63347.625198675945
5008.483823065515,63165.52547436249
5008.509869779693,63451.908501514685
5008.535916629327,63291.383800640135
5008.561963614418,63339.72110566923
5008.588010734968,63709.861481691485
5008.614057990975,63357.98173327261
5008.640105382442,63491.217114675506
5008.666152909369,63460.18801041244
5008.692200571756,63556.63297617461
5008.718248369605,63865.71897682739
5008.744296302916,63857.60742224314
5008.77034437169,63640.3679961071
5008.796392575927,63677.67315900543
5008.822440915628,63775.61140961951
5008.848489390794,63876.46280917277
5008.874538001426,63904.24871682469
5008.900586747524,63501.97274034357
5008.926635629089,63348.3729873392
5008.952684646122,63270.37335204185
5008.978733798623,63054.839261259614
5009.004783086593,62756.4247482568
5009.030832510033,62617.42730454933
5009.056882068944,62239.221642122786
5009.082931763326,62120.50034921576
5009.108981593179,61537.44806499244
5009.135031558506,61289.56057201844
5009.161081659306,60967.39948393787
5009.187131895579,60496.901676138004
5009.213182267327,60707.32209186391
5009.239232774552,61013.73523493466
5009.265283417251,61019.04565129494
5009.291334195428,61126.89081183162
5009.317385109083,60977.441638551056
5009.343436158216,61246.87735646747
5009.369487342828,60836.44286119752
5009.395538662919,60083.43576307009
5009.421590118491,59228.6483641334
5009.447641709544,57754.93184126729
5009.473693436078,56052.310258846504
5009.499745298095,54362.19325835903
5009.525797295596,52807.9515833169
5009.55184942858,51071.1522366301
5009.577901697049,49322.28924149983
5009.603954101003,47476.046664462985
5009.630006640443,45326.03437862304
5009.65605931537,43154.38353802405
5009.682112125784,41403.21552487253
5009.708165071686,39491.22108858679
5009.7342181530785,39210.33515532984
5009.760271369959,40212.51527547366
5009.78632472233,42331.58022719325
5009.812378210192,44701.18349646037
5009.838431833546,47673.32978058438
5009.864485592391,50520.85333284911
5009.890539486731,53248.35259903391
5009.916593516564,55635.37787162584
5009.942647681891,57906.77545744103
5009.968701982713,59771.2449506051
5009.994756419032,60846.473143657306
5010.020810990847,61652.693169437705
5010.046865698159,62495.32929057336
5010.072920540969,62997.07601728015
5010.098975519279,63306.506751466215
5010.125030633087,63392.45701578148
5010.151085882395,63499.134609560286
5010.177141267204,63618.829553693475
5010.2031967875155,63053.523780195945
5010.229252443328,62532.216177839204
5010.255308234644,62176.98958308031
5010.281364161464,61495.34028263311
5010.307420223788,60491.624449286464
5010.333476421617,59006.0490651278
5010.359532754951,57185.098284114625
5010.3855892237925,54813.86763891071
5010.4116458281405,53361.87336458147
5010.437702567997,51507.716129876026
5010.463759443362,51501.35570561645
5010.489816454236,51899.093210466744
5010.51587360062,53409.300284070465
5010.541930882514,55205.755339766794
5010.56798829992,57024.33115369405
5010.5940458528385,58431.39189113883
5010.62010354127,59860.18934105408
5010.646161365214,60828.53029636593
5010.672219324672,61555.18156139887
5010.698277419646,62222.92136422812
5010.724335650135,62829.2151110997
5010.7503940161405,63088.254748710526
5010.7764525176635,63114.46770133053
5010.802511154703,63550.21151675921
5010.828569927262,63787.67268859881
5010.85462883534,63952.706991554194
5010.880687878937,64109.995545650076
5010.906747058056,64017.232007844395
5010.932806372695,64228.53309773499
5010.958865822856,63710.0477380237
5010.98492540854,63575.309763607416
5011.0109851297475,63505.75023939315
5011.0370449864795,63363.54761660899
5011.063104978735,63185.887242116885
5011.089165106517,62615.291350858664
5011.115225369825,61894.833230090735
5011.14128576866,60722.53241464911
5011.167346303022,59450.041824642554
5011.193406972913,58328.07130968687
5011.219467778333,57571.153044272934
5011.2455287192815,56243.81557742501
5011.271589795761,55014.707598360685
5011.297651007772,54297.79838904345
5011.323712355315,53423.30520505356
5011.34977383839,52247.40620209896
5011.375835456999,50508.34716115953
5011.401897211142,48328.85616599245
5011.427959100819,45345.54077826983
5011.454021126031,41813.372558005154
5011.4800832867795,37826.11538336193
5011.506145583065,33872.43287524138
5011.532208014888,30299.321830648998
5011.558270582248,27190.107062986863
5011.584333285148,25194.029720915638
5011.610396123588,24554.48457280981
5011.636459097567,25220.911320952644
5011.662522207088,27225.349626367595
5011.68858545215,30187.48689853301
5011.714648832754,33684.82543857048
5011.740712348902,37219.16874507868
5011.766776000594,40717.97861494193
5011.79283978783,43833.890361790516
5011.818903710611,45908.508682959946
5011.844967768939,47214.29090141969
5011.871031962813,47135.13963576827
5011.897096292234,46448.817227149426
5011.923160757203,45849.35962814522
5011.949225357721,45695.77174836126
5011.975290093788,45816.84418395257
5012.001354965406,46871.20237167264
5012.027419972574,48580.069605731216
5012.053485115294,50269.417801374715
5012.079550393566,51587.2412965949
5012.105615807392,52626.06052980294
5012.13168135677,53040.58942745101
5012.157747041703,53406.83646298003
5012.183812862192,53154.700159712746
5012.209878818236,53457.173015800734
5012.235944909837,53908.03711388441
5012.262011136994,54987.6931619804
5012.28807749971,56345.6519766727
5012.3141439979845,57501.67995357511
5012.340210631818,58745.96345937331
5012.366277401212,59658.13278104025
5012.392344306166,60296.929515032054
5012.418411346682,61097.48306214235
5012.44447852276,61685.68893282769
5012.470545834401,61880.12495506177
5012.496613281605,62097.99416035128
5012.522680864374,62219.129694828385
5012.548748582707,62046.10841515812
5012.574816436606,61802.6419639209
5012.600884426071,61248.2374788271
5012.626952551104,60758.72052331319
5012.653020811705,59658.31047635058
5012.679089207873,58090.50136765476
5012.705157739611,56001.94191317343
5012.73122640692,53655.95862109855
5012.757295209798,51196.092253694536
5012.7833641482475,48671.49151201808
5012.80943322227,46461.89730465782
5012.835502431864,45382.00319348369
5012.861571777033,45127.078447880966
5012.887641257775,45681.99721716818
5012.9137108740915,47052.793137471584
5012.939780625984,48328.58462145176
5012.965850513452,49042.66281957988
5012.991920536498,49089.69120431414
5013.017990695121,48671.299270630705
5013.044060989323,47077.72230645974
5013.070131419104,44618.582393452096
5013.096201984464,41652.12904139051
5013.122272685405,38558.603694502446
5013.148343521927,35174.93799587649
5013.17441449403,32563.23701816779
5013.200485601717,31256.286189076993
5013.226556844987,31270.905271842657
5013.2526282238405,32483.023310928736
5013.278699738279,34769.94341898202
5013.304771388303,38025.89775929968
5013.330843173913,41319.85042189122
5013.35691509511,44306.248789309626
5013.382987151894,46983.680362945626
5013.409059344267,49328.27812228593
5013.435131672228,51283.01219194995
5013.46120413578,52930.94386187926
5013.487276734921,54208.90302126862
5013.513349469653,54540.98879085849
5013.539422339977,54325.34930994749
5013.565495345894,53546.0115498523
5013.5915684874035,52168.74288098719
5013.617641764507,49236.169162008875
5013.643715177206,45863.77883008798
5013.6697887254995,42243.14357657732
5013.695862409389,38724.169943814915
5013.721936228875,35534.90237638391
5013.748010183958,33754.53708162312
5013.77408427464,33118.9897400774
5013.800158500921,33943.50942894893
5013.826232862801,35938.42813303395
5013.852307360281,39157.974258553855
5013.8783819933615,42445.31114655727
5013.904456762045,45941.645454746074
5013.930531666329,49376.06100424476
5013.956606706218,52280.71773783429
5013.982681881709,54395.18826747832
5014.008757192805,55993.65969721874
5014.034832639507,57199.917689549424
5014.060908221814,58059.760324589435
5014.086983939728,58540.66990898317
5014.113059793249,58803.01818095662
5014.139135782378,58860.98692617797
5014.165211907116,58325.630982882605
5014.1912881674625,57490.16595733689
5014.21736456342,56610.75635874013
5014.243441094988,55110.50901706158
5014.269517762167,53066.42161172984
5014.295594564959,50809.29762113725
5014.321671503363,48141.61899720655
5014.347748577381,44924.54272050819
