wave,flux
5000.025812696027,66410.43302324835
5000.051815424163,68019.871396348
5000.0778182875265,69114.51036077671
5000.103821286119,68868.38570236822
5000.12982441994,67370.49306326536
5000.155827688991,65306.89350823465
5000.181831093272,62790.27620464216
5000.207834632784,60384.75813978497
5000.2338383075285,58582.605066144744
5000.259842117506,57528.410510001966
5000.285846062716,57741.90037823173
5000.311850143161,58966.34396237288
5000.33785435884,60208.387970123316
5000.363858709754,61598.67098090176
5000.389863195905,63078.17150782569
5000.415867817292,64580.053129266096
5000.441872573917,65658.54353777178
5000.4678774657805,66539.22943566869
5000.493882492882,67537.13018929228
5000.519887655224,68750.95059404786
5000.545892952806,70459.07019982384
5000.571898385629,72017.47315278002
5000.597903953694,73287.03776434161
5000.623909657001,74546.09793003254
5000.649915495552,74706.47468412982
5000.675921469346,75362.22673850297
5000.701927578384,75247.95519248008
5000.727933822669,75006.50952872944
5000.7539402021985,74805.78415732588
5000.779946716975,74288.3708571231
5000.805953366999,73709.06639811578
5000.831960152272,72398.7274557872
5000.857967072792,70452.85029017257
5000.883974128563,67889.71829882862
5000.9099813195835,64730.51318963398
5000.935988645855,62122.23871815684
5000.961996107378,59944.981841458524
5000.988003704153,57876.96871610524
5001.014011436181,57891.96793625692
5001.040019303464,58862.28224960487
5001.066027306,60081.908331907915
5001.092035443791,61148.486183172514
5001.118043716839,62524.71097818294
5001.1440521251425,62785.46036477465
5001.170060668704,62627.10264209895
5001.196069347523,61179.685263340616
5001.222078161601,58472.45314535711
5001.248087110937,55204.336560214026
5001.274096195534,51063.82850323103
5001.300105415392,46617.31724962478
5001.326114770512,42581.44678672501
5001.352124260892,39107.509841780506
5001.3781338865365,37418.75496247902
5001.4041436474445,37783.69295407126
5001.430153543616,39634.01493806995
5001.456163575053,42950.232877695205
5001.482173741756,47367.76106873779
5001.508184043724,51972.733455952366
5001.534194480961,57055.201841660426
5001.560205053464,61662.04855233159
5001.586215761236,65646.35776517245
5001.612226604278,68735.35639075207
5001.638237582589,71242.57646927352
5001.664248696171,73465.30752810165
5001.690259945024,75179.82501926273
5001.716271329149,76495.25567394875
5001.742282848547,77450.50637583151
5001.768294503218,77986.19297147566
5001.794306293164,78393.6044714895
5001.820318218383,78430.83200754003
5001.84633027888,78205.41245707292
5001.872342474651,78197.14841987826
5001.8983548056995,78083.52816649452
5001.924367272026,77525.15333185771
5001.9503798736305,77047.53476869645
5001.976392610514,76588.10238168886
5002.002405482678,76296.42338966469
5002.028418490122,75424.14803722326
5002.054431632847,74793.52775884804
5002.080444910854,73964.72320317893
5002.106458324142,72711.9015753156
5002.1324718727155,71463.52318801897
5002.158485556572,69487.99844196487
5002.184499375713,66571.8210357937
5002.210513330139,63477.81810730238
5002.236527419852,60195.92331760306
5002.262541644852,57225.763646819825
5002.288556005138,54945.84858536791
5002.314570500714,54169.99079119795
5002.340585131577,55275.124772451054
5002.36659989773,57843.40588038605
5002.392614799174,60787.95230263747
5002.418629835909,63933.66258649739
5002.444645007936,67148.18980557905
5002.4706603152545,70192.51321357035
5002.496675757866,72602.79127766333
5002.522691335772,74242.61483030609
5002.548707048972,75937.8699893507
5002.574722897468,77449.82259328869
5002.600738881259,78054.3719181695
5002.626755000347,78452.61604238175
5002.652771254732,78836.64575082136
5002.678787644415,78847.92735572765
5002.704804169397,79380.85491512979
5002.730820829678,79431.56241763585
5002.75683762526,79086.96795214497
5002.782854556142,79147.59010180514
5002.8088716223265,79179.96833751535
5002.834888823812,79186.16972034113
5002.860906160601,79257.31970160651
5002.886923632695,78772.16923026986
5002.912941240092,78667.28868582856
5002.938958982793,78526.2638948344
5002.9649768608015,78518.72040161135
5002.990994874116,78605.09195718305
5003.017013022737,78391.41887076768
5003.043031306666,78224.62176395346
5003.069049725905,78148.62904622065
5003.095068280452,77732.49844019482
5003.121086970309,77231.07508900865
5003.147105795477,76635.61892866726
5003.173124755956,75402.52651970273
5003.199143851748,74228.32935200699
5003.225163082852,73251.58908254415
5003.251182449269,72757.72278531993
5003.277201951001,72218.3022361243
5003.3032215880485,72493.81660512599
5003.32924136041,72551.14782546938
5003.35526126809,72663.65385606486
5003.381281311085,72753.07376788562
5003.407301489398,72427.25762891438
5003.433321803031,71821.89155009369
5003.459342251982,70469.64525262939
5003.4853628362525,68717.18059940467
5003.511383555844,67049.70922373862
5003.537404410757,65541.14595283614
5003.563425400991,64872.88114083115
5003.589446526548,64890.708494867315
5003.615467787429,65589.78276376594
5003.641489183634,66737.37883229619
5003.667510715163,67923.51289138514
5003.693532382018,69388.59924825637
5003.719554184199,70481.48483849542
5003.745576121707,71360.58462711384
5003.771598194542,72599.09461924189
5003.797620402706,73342.45653806729
5003.823642746199,74109.64814569752
5003.849665225021,74338.98222863705
5003.875687839174,74581.24341659644
5003.901710588658,75237.69030381793
5003.927733473473,76089.75197343584
5003.953756493622,76712.06098544577
5003.979779649103,77158.89492440964
5004.005802939919,77825.03405503769
5004.031826366068,78277.94008777916
5004.057849927553,78365.9847496135
5004.083873624375,78764.0030811213
5004.109897456533,79188.04336883205
5004.135921424028,79092.10975984002
5004.161945526862,79330.00369948104
5004.187969765035,79161.0591228359
5004.213994138547,79326.1356188447
5004.240018647399,78812.53317271655
5004.266043291592,78658.68840875708
5004.292068071127,78327.38216172573
5004.318092986004,77703.53287628842
5004.344118036223,77448.95662739626
5004.370143221788,76638.69138328434
5004.396168542696,75860.3883745458
5004.422193998949,75062.04930055268
5004.448219590549,74213.0520822107
5004.474245317495,73282.62927200888
5004.500271179789,71476.87385883203
5004.52629717743,69511.94020946632
5004.5523233104195,66395.97772353927
5004.578349578759,62657.03463293878
5004.604375982449,58404.880847803244
5004.630402521489,54749.54182643456
5004.656429195881,51698.96486844391
5004.682456005625,50473.16346518635
5004.708482950721,50775.24117683539
5004.734510031172,52577.04263334283
5004.760537246977,55493.91831091982
5004.7865645981365,58793.680137733245
5004.812592084652,62215.8962573062
5004.838619706525,65446.6017932107
5004.8646474637535,67728.70214270672
5004.890675356341,69433.65765778633
5004.916703384286,70762.66288314752
5004.942731547591,71029.01815629411
5004.968759846256,70568.66717560205
5004.994788280281,69787.29552986738
5005.020816849668,68005.10354197044
5005.046845554417,65386.66301569239
5005.072874394528,62198.72611239729
5005.098903370003,57891.986701780486
5005.124932480842,53287.195291949356
5005.150961727047,48251.532424940946
5005.176991108617,44276.29758438877
5005.203020625552,40771.63734854193
5005.229050277856,39141.208602183084
5005.255080065526,39468.832286447054
5005.281109988566,41146.976725802546
5005.3071400469735,43583.123519400186
5005.333170240751,46524.75644256695
5005.3592005699,49362.13920700983
5005.38523103442,51640.46176434215
5005.411261634312,52711.40311705579
5005.4372923695755,52513.77411333908
5005.463323240213,51274.31312942959
5005.489354246225,48733.42090360272
5005.515385387611,45254.61438573749
5005.541416664373,41406.329184569906
5005.567448076511,37867.00375048941
5005.593479624025,34891.53051807404
5005.619511306918,33160.509221389184
5005.645543125189,33298.6011569939
5005.671575078838,34847.90630340316
5005.697607167867,37948.967750926895
5005.723639392277,41968.54105761308
5005.749671752068,46847.35405867369
5005.77570424724,51708.329617991134
5005.8017368777955,56681.89778578717
5005.8277696437335,61359.62692859125
5005.853802545055,65481.79857399016
5005.879835581762,68778.68161810019
5005.905868753854,71468.23478454676
5005.931902061331,73765.70882022695
5005.957935504196,75439.92058955395
5005.983969082448,76475.55574691882
5006.010002796088,77046.42466868399
5006.036036645117,77412.89887264822
5006.062070629536,77754.14476469246
5006.088104749344,77815.76886587965
5006.114139004544,77588.27346255338
5006.140173395135,77149.09375739898
5006.166207921118,77578.08964566515
5006.192242582495,77262.01682977843
5006.218277379266,77398.77710309187
5006.244312311431,77215.30986030653
5006.270347378991,76847.71421532649
5006.296382581946,76686.88193519879
5006.322417920299,76633.70998370407
5006.348453394048,76360.01286141043
5006.374489003196,75912.1518667604
5006.400524747743,75569.17533576133
5006.426560627688,74951.6508063642
5006.452596643034,73876.92735272375
5006.47863279378,72723.53908332564
5006.504669079928,71316.78958785019
5006.530705501478,69277.71969264488
5006.556742058431,66658.63476809295
5006.582778750788,63274.48087466318
5006.608815578549,59107.88314574332
5006.634852541715,54454.50960064437
5006.660889640287,48988.37044761135
5006.686926874265,44077.11021954353
5006.71296424365,40237.12947704601
5006.739001748444,37224.938528483224
5006.765039388645,36426.11107920326
5006.791077164256,37408.5625960493
5006.817115075277,39766.531767547545
5006.843153121708,43591.6604717554
5006.869191303552,48142.52456331279
5006.895229620806,53165.5918188014
5006.921268073474,57706.83812867513
5006.947306661555,61994.45591307519
5006.97334538505,65945.09790976185
5006.999384243961,69269.69210221301
5007.025423238286,71837.10358726757
5007.051462368028,73474.7787291777
5007.077501633187,74782.30502027502
5007.103541033764,75733.02408677214
5007.129580569759,75780.90265010083
5007.155620241173,75432.45426826358
5007.181660048007,74505.22410025753
5007.207699990262,73753.48811213166
5007.233740067937,73439.7085772216
5007.259780281035,73205.62462139867
5007.285820629555,73845.2874483646
5007.311861113499,74841.55857227197
5007.337901732866,76093.52264720455
5007.363942487658,77155.92707309114
5007.389983377876,78287.48075345648
5007.41602440352,79264.92183383428
5007.442065564591,79653.60753959889
5007.468106861089,80041.60215785516
5007.494148293015,80345.21765313431
5007.520189860371,80523.5220075776
5007.546231563156,80710.44123334278
5007.572273401372,80663.93590701559
5007.598315375018,80818.22057669386
5007.624357484096,81080.34570558662
5007.650399728607,80869.60618105921
5007.676442108551,80953.36795645932
5007.702484623929,81276.75807059418
5007.728527274741,81135.01071702401
5007.754570060989,81118.16968720756
5007.780612982673,81151.72783395644
5007.806656039793,81557.85762039761
5007.832699232351,81132.23438232938
5007.858742560347,81444.93098993224
5007.884786023782,81146.70387798821
5007.910829622656,80815.96072047936
5007.936873356971,81254.84858852394
5007.962917226726,81251.82740598381
5007.988961231923,80961.74662545996
5008.015005372563,80349.66727648205
5008.041049648646,79814.1844177672
5008.067094060171,79406.26791292088
5008.0931386071425,78812.41164709053
5008.119183289558,78388.93815118064
5008.14522810742,78079.17070505118
5008.171273060728,77917.01161794478
5008.197318149483,78280.1060849955
5008.223363373687,78561.50811062496
5008.249408733339,78873.08107434605
5008.27545422844,79525.71010097815
5008.301499858992,79756.85522202995
5008.327545624995,80396.40185326825
5008.353591526448,80468.735024053
5008.379637563355,80504.94923755726
5008.405683735714,80501.99622334442
5008.431730043527,80514.65222330004
5008.457776486794,80679.4237377122
5008.483823065515,80181.82828200443
5008.509869779693,80445.06005018021
5008.535916629327,80479.2272237456
5008.561963614418,80374.60301412393
5008.588010734968,80701.42401563497
5008.614057990975,80800.66914346768
5008.640105382442,81122.16777717829
5008.666152909369,80930.27267280643
5008.692200571756,81188.3711676201
5008.718248369605,81472.47470393038
5008.744296302916,81363.02660484002
5008.77034437169,81119.91428180593
5008.796392575927,81103.48237028612
5008.822440915628,81257.12436285967
5008.848489390794,81229.13178848535
5008.874538001426,80999.54581977503
5008.900586747524,80528.90747141132
5008.926635629089,80691.59885246251
5008.952684646122,80463.2095472007
5008.978733798623,79868.48101849966
5009.004783086593,79879.93140608558
5009.030832510033,79802.2162237577
5009.056882068944,79605.5920117016
5009.082931763326,79076.72192402184
5009.108981593179,78353.58122467082
5009.135031558506,77623.2291148173
5009.161081659306,77015.14264116486
5009.187131895579,77522.23188067722
5009.213182267327,77630.39394331803
5009.239232774552,77770.64614141003
5009.265283417251,77875.38247113263
5009.291334195428,78061.61538032384
5009.317385109083,78017.3271673966
5009.343436158216,77906.13487774279
5009.369487342828,77321.63143454271
5009.395538662919,76026.93377829347
5009.421590118491,74585.09739339307
5009.447641709544,73215.86297506146
5009.473693436078,71404.26335141672
5009.499745298095,68856.0858535755
5009.525797295596,66441.49919014977
5009.55184942858,64572.757068481784
5009.577901697049,62456.127666559165
5009.603954101003,60001.582114843695
5009.630006640443,57262.99100960982
5009.65605931537,54358.04809882914
5009.682112125784,52119.89471548509
5009.708165071686,50176.521457640694
5009.7342181530785,50335.41085223698
5009.760271369959,51406.77108900437
5009.78632472233,54411.26144119691
5009.812378210192,57770.20438844872
5009.838431833546,61617.371716222755
5009.864485592391,64969.46111333205
5009.890539486731,68279.72155622578
5009.916593516564,71665.50149334526
5009.942647681891,74286.45249459907
5009.968701982713,76075.01078576998
5009.994756419032,77426.28987090284
5010.020810990847,78842.56037411466
5010.046865698159,79694.41361356387
5010.072920540969,80255.02643956989
5010.098975519279,80502.03166115265
5010.125030633087,80527.94893582877
5010.151085882395,80771.8801419768
5010.177141267204,80484.82795621047
5010.2031967875155,79972.36502184595
5010.229252443328,79575.23926425907
5010.255308234644,79105.02931003607
5010.281364161464,78010.56711792227
5010.307420223788,76278.12635143078
5010.333476421617,74380.46164441454
5010.359532754951,72214.52115320928
5010.3855892237925,69757.16561418636
5010.4116458281405,67755.55878404177
5010.437702567997,66094.25144844018
5010.463759443362,65824.09665043773
5010.489816454236,66655.85208818314
5010.51587360062,68431.68789642224
5010.541930882514,70638.92637184252
5010.56798829992,72868.63738888894
5010.5940458528385,74790.48848046892
5010.62010354127,76121.38382827886
5010.646161365214,77400.9204409731
5010.672219324672,78581.73263326281
5010.698277419646,79491.90416018874
5010.724335650135,80180.75499242319
5010.7503940161405,80689.75730272164
5010.7764525176635,80739.98336743722
5010.802511154703,80812.79519175924
5010.828569927262,81101.54158546861
5010.85462883534,81298.25467802366
5010.880687878937,81409.790864821
5010.906747058056,81332.34022979143
5010.932806372695,81362.14626619825
5010.958865822856,81274.6056310474
5010.98492540854,81019.84414795983
5011.0109851297475,80530.18789958137
5011.0370449864795,80474.24100617235
5011.063104978735,79922.94867372376
5011.089165106517,79333.73278684726
5011.115225369825,78197.72463355448
5011.14128576866,76907.27263368879
5011.167346303022,75755.59656393071
5011.193406972913,74304.79669137904
5011.219467778333,72667.26995531838
5011.2455287192815,71157.58826635536
5011.271589795761,70051.28740176049
5011.297651007772,69093.87316963209
5011.323712355315,67708.35741125679
5011.34977383839,66014.02218914845
5011.375835456999,63859.27433170161
5011.401897211142,60797.707544915975
5011.427959100819,56873.92015073462
5011.454021126031,52424.20302135175
5011.4800832867795,47366.48184487865
5011.506145583065,42461.354617573335
5011.532208014888,38054.94122210967
5011.558270582248,34304.661777465495
5011.584333285148,32031.82209875623
5011.610396123588,31552.512514928723
5011.636459097567,32737.55594768265
5011.662522207088,35414.417143141516
5011.68858545215,39352.97230552402
5011.714648832754,43909.50778073117
5011.740712348902,48541.463352745144
5011.766776000594,52823.30393449387
5011.79283978783,56256.28750967149
5011.818903710611,58892.19534305317
5011.844967768939,59777.847165318446
5011.871031962813,59821.22280186229
5011.897096292234,59264.9129593844
5011.923160757203,58737.143205006105
5011.949225357721,58329.615967343176
5011.975290093788,58903.04478580207
5012.001354965406,60234.29910499571
5012.027419972574,62451.37214942994
5012.053485115294,64381.76092972481
5012.079550393566,66101.17603257482
5012.105615807392,67217.57612396627
5012.13168135677,67550.09516601116
5012.157747041703,67759.1683693608
5012.183812862192,67920.79442683147
5012.209878818236,68173.87223657298
5012.235944909837,69372.43994718682
5012.262011136994,70821.66135256701
5012.28807749971,72118.82188613398
5012.3141439979845,73523.59086271221
5012.340210631818,74788.21045975434
5012.366277401212,76074.7773448898
5012.392344306166,77058.24652731942
5012.418411346682,77647.96390322594
5012.44447852276,78075.18624789098
5012.470545834401,78243.40199868662
5012.496613281605,78731.82057937248
5012.522680864374,78716.47100273211
5012.548748582707,78456.48664055299
5012.574816436606,78770.84454246356
5012.600884426071,78211.26648969209
5012.626952551104,76880.53854560024
5012.653020811705,75533.8575190133
5012.679089207873,73599.05380154584
5012.705157739611,70909.49348857239
5012.73122640692,67924.76143514442
5012.757295209798,64507.5109565707
5012.7833641482475,61627.19600559527
5012.80943322227,59209.66222971054
5012.835502431864,58051.58660328102
5012.861571777033,57940.20439763085
5012.887641257775,59056.81281197038
5012.9137108740915,60373.084308858175
5012.939780625984,61912.6715014123
5012.965850513452,62689.122432534015
5012.991920536498,62484.0705327599
5013.017990695121,61583.4501069992
5013.044060989323,59492.95458722067
5013.070131419104,56077.14941912812
5013.096201984464,51991.31426844047
5013.122272685405,48045.27939877795
5013.148343521927,44141.53716753139
5013.17441449403,41044.74389636376
5013.200485601717,39686.22177871311
5013.226556844987,40139.8762548299
5013.2526282238405,42284.078755401904
5013.278699738279,45332.56364379463
5013.304771388303,48912.74248570936
5013.330843173913,53044.75712553575
5013.35691509511,56934.32073604386
5013.382987151894,60233.170451821636
5013.409059344267,63131.27253572166
5013.435131672228,65772.15924480525
5013.46120413578,67817.93399384603
5013.487276734921,68940.54417293638
5013.513349469653,69571.5156417251
5013.539422339977,69401.61791782056
5013.565495345894,67915.70252789791
5013.5915684874035,65755.69890940488
5013.617641764507,62055.23251151192
5013.643715177206,57907.625089090114
5013.6697887254995,53091.09975733145
5013.695862409389,48966.3025704175
5013.721936228875,45219.573003542966
5013.748010183958,43205.66492072979
5013.77408427464,42538.85807964628
5013.800158500921,44192.88415145177
5013.826232862801,46787.005183528534
5013.852307360281,50769.9138979575
5013.8783819933615,55311.06518197702
5013.904456762045,59626.11876916213
5013.930531666329,63625.225408689534
5013.956606706218,66897.5723244517
5013.982681881709,69828.6020107498
5014.008757192805,71783.57835845482
5014.034832639507,73074.9611380841
5014.060908221814,74041.01503482109
5014.086983939728,74713.16331601627
5014.113059793249,75004.19234655595
5014.139135782378,74515.53275041677
5014.165211907116,73717.49012777519
5014.1912881674625,72941.29756135332
5014.21736456342,71654.5792705658
5014.243441094988,69826.35258799384
5014.269517762167,67417.56496296189
5014.295594564959,64366.574473278044
5014.321671503363,60531.20486696916
5014.347748577381,55834.057702944025
5014.373825787014,51308.611776546575
5014.399903132261,47128.092781212756
5014.425980613125,44075.02959671574
5014.4520582296045,42641.968841804206
