wave,flux
4450.003811362098,16358.132068366123
4450.026953690486,15175.221373574981
4450.050096139227,14279.331778108584
4450.073238708321,14367.982438654428
4450.096381397769,15386.854724367484
4450.119524207569,17517.842850611072
4450.142667137726,19977.26796112986
4450.165810188237,23044.4299137907
4450.188953359103,25932.367964779936
4450.212096650326,28166.534558736446
4450.2352400619075,29801.276195420316
4450.258383593846,31483.23192999409
4450.281527246142,32557.84319756723
4450.304671018797,33897.49012294885
4450.327814911813,35354.236972378145
4450.350958925188,37018.86481342435
4450.374103058924,38440.51333668534
4450.3972473130225,39631.10542332349
4450.420391687483,40557.722376312624
4450.443536182305,41554.89297588511
4450.466680797492,42908.48730517167
4450.489825533042,44646.477538144376
4450.512970388957,47012.5514422758
4450.536115365237,49596.21437139417
4450.559260461882,51956.1878981382
4450.582405678895,54031.62293370124
4450.605551016274,55645.32457451039
4450.628696474022,56560.648270349004
4450.651842052138,57544.668722214665
4450.674987750623,58637.92158602077
4450.698133569476,59199.66541673267
4450.721279508702,59509.91698869156
4450.744425568297,59643.42622499175
4450.767571748264,59557.674881650484
4450.790718048604,58973.672890343565
4450.813864469315,58787.5534198343
4450.837011010401,58243.25195088394
4450.86015767186,58000.47834904167
4450.883304453694,57146.763790986406
4450.906451355903,55716.81124960381
4450.929598378489,54888.12959238234
4450.95274552145,52798.65897256506
4450.975892784789,50869.42439081016
4450.999040168505,47688.17745797023
4451.022187672601,44740.75110020162
4451.045335297074,41012.01835281536
4451.068483041929,36728.29575621866
4451.091630907163,33251.61230243298
4451.114778892777,30671.705872243143
4451.137926998774,29294.18617822288
4451.161075225153,29325.59384500901
4451.184223571914,30833.25663124717
4451.207372039059,33590.93345500237
4451.230520626587,36994.08142121089
4451.253669334501,40491.73636975367
4451.2768181628,44094.79634608241
4451.299967111485,47455.91112835864
4451.323116180556,50086.64260883294
4451.346265370014,52175.85040990983
4451.369414679861,53644.66380164461
4451.392564110095,54496.460373813796
4451.415713660719,54708.090704913775
4451.438863331732,54424.0171323249
4451.462013123136,53870.376097625434
4451.48516303493,52061.76027901322
4451.508313067117,50274.97275988706
4451.531463219695,49079.02003396726
4451.554613492666,48028.74051832927
4451.577763886031,47414.62141057792
4451.60091439979,47498.40749800264
4451.624065033943,48417.80668885105
4451.647215788492,49520.87085169884
4451.670366663436,50852.223487575175
4451.693517658777,52167.15975205476
4451.716668774516,53831.2384661051
4451.739820010652,55247.82071721619
4451.762971367186,56293.23328275911
4451.78612284412,57366.545437447174
4451.8092744414525,58192.98377879551
4451.832426159187,59211.70922529886
4451.855577997321,59295.18801997861
4451.878729955857,59500.482792405266
4451.901882034796,59596.121573433025
4451.925034234137,59719.90929483817
4451.948186553881,59812.00729365826
4451.97133899403,59199.933832910734
4451.994491554583,58502.61657354046
4452.017644235542,57980.334451212075
4452.040797036907,56717.146340115614
4452.063949958678,55862.63581981699
4452.087103000857,54473.40545756644
4452.1102561634425,52865.21669735415
4452.133409446437,51621.04662838281
4452.156562849841,50069.55210606801
4452.179716373655,48790.442983378365
4452.202870017878,47397.3217570291
4452.226023782513,46172.36107728934
4452.24917766756,45574.83845102963
4452.272331673018,44858.680067161535
4452.29548579889,44714.53521118828
4452.318640045174,45364.80113926518
4452.341794411874,46509.493402441316
4452.364948898987,48065.12990087407
4452.388103506516,49193.78307145399
4452.4112582344615,50048.15826901714
4452.434413082823,50866.168053295056
4452.457568051602,51249.674332375645
4452.480723140799,50673.65968536435
4452.503878350413,49716.220171195455
4452.527033680448,48491.826263771625
4452.550189130902,47560.10697337434
4452.5733447017765,47195.252100084756
4452.596500393071,47264.329302495695
4452.619656204789,47814.177364410345
4452.642812136928,49157.257474366204
4452.66596818949,49850.84739070783
4452.689124362475,50204.97907649182
4452.7122806558855,50597.27345763156
4452.735437069719,50236.515462352814
4452.7585936039795,49407.00636182955
4452.781750258665,48039.688979333245
4452.804907033777,46155.12756227425
4452.828063929317,43948.44674342216
4452.851220945285,42142.126977955304
4452.87437808168,41122.56570612372
4452.897535338506,41230.25389208669
4452.92069271576,42158.97296247591
4452.943850213445,43859.45352347932
4452.967007831562,46416.81091896463
4452.99016557011,48980.91218543238
4453.01332342909,50759.64571448782
4453.036481408502,52772.3060809612
4453.059639508349,54284.58598551926
4453.08279772863,55210.56248339142
4453.105956069345,55587.70280079546
4453.129114530496,55596.36471485892
4453.152273112083,55381.60640474617
4453.175431814107,54653.22380015153
4453.198590636567,53598.470788395374
4453.221749579466,52221.7087026849
4453.244908642802,51128.081396848305
4453.268067826579,50685.557969776324
4453.291227130795,50806.4154268111
4453.314386555451,51565.96413487771
4453.337546100549,52448.46912306686
4453.360705766087,53312.09129575273
4453.3838655520685,54517.2414675394
4453.407025458493,55681.04488478084
4453.430185485361,56429.602935883886
4453.453345632673,56885.345149344845
4453.476505900429,57309.58170954242
4453.4996662886315,57882.061801186246
4453.52282679728,58405.87320829575
4453.545987426375,58623.59479522235
4453.569148175917,58205.82582356115
4453.592309045907,58186.428741373114
4453.615470036346,58537.70665906801
4453.638631147233,58082.57197811958
4453.661792378571,57544.832604275216
4453.684953730359,56946.19187935171
4453.708115202598,56360.61749936304
4453.731276795288,54796.06057676135
4453.754438508431,53729.66843942995
4453.777600342027,51577.16397452721
4453.800762296077,49359.01366954843
4453.82392437058,46074.6165585677
4453.847086565538,42488.845407892004
4453.870248880952,38415.0300061039
4453.8934113168225,34389.9558221948
4453.916573873149,30743.32367203627
4453.939736549933,28642.601236792896
4453.962899347174,27784.852240723896
4453.986062264875,28129.939925138326
4454.009225303034,29573.208614422998
4454.032388461654,31898.774498050847
4454.055551740734,33970.82180551123
4454.078715140275,35687.86558257524
4454.101878660277,36250.02184501889
4454.125042300742,35767.18782482759
4454.14820606167,34808.778240455766
4454.171369943061,32422.33700127557
4454.194533944917,29961.931334417848
4454.2176980672375,27098.77491385166
4454.240862310024,24187.356399821252
4454.264026673275,21062.4072950344
4454.287191156994,18954.874761581446
4454.31035576118,17100.418966355053
4454.333520485834,15925.215100662508
4454.356685330957,15903.889494695739
4454.379850296548,16784.085181609942
4454.40301538261,18479.602688664574
4454.426180589142,20617.107734012592
4454.449345916145,23020.721595600924
4454.4725113636205,25007.136918876324
4454.495676931568,26233.977455259388
4454.5188426199875,27168.41465386313
4454.542008428882,27763.544185964925
4454.565174358249,28313.600634153263
4454.588340408092,29558.48128784871
4454.611506578411,31591.57277343391
4454.634672869205,33984.278503162495
4454.657839280476,36816.12979671013
4454.681005812225,39192.61967623593
4454.704172464451,40594.23564054343
4454.727339237156,41605.0979987436
4454.750506130341,41760.94510338951
4454.773673144005,40612.81671846489
4454.79684027815,38634.55462529479
4454.820007532776,36453.511352608846
4454.843174907884,34644.73091050014
4454.866342403473,34158.193704466634
4454.889510019546,34851.0618861437
4454.912677756102,36446.27223877407
4454.935845613144,39321.79179560448
4454.959013590669,42533.68615407652
4454.982181688681,45527.257746139185
4455.005349907178,48162.70761689467
4455.028518246162,50286.556995666375
4455.051686705633,51790.19489264144
4455.074855285593,53278.051197017565
4455.098023986041,53525.024334862224
4455.121192806979,53436.84282497281
4455.144361748406,53092.44176186781
4455.167530810323,51956.605038519476
4455.190699992732,50374.34633365194
4455.213869295633,48614.47108990911
4455.237038719026,47017.44166900879
4455.260208262912,45020.474133466625
4455.283377927292,42623.41479527594
4455.306547712166,39979.554057664085
4455.329717617535,36598.786586268965
4455.352887643399,32513.18508762329
4455.37605778976,28862.25450740943
4455.399228056617,26000.681074390275
4455.422398443972,23928.310718233122
4455.445568951825,23189.360904170455
4455.468739580177,23740.019111373702
4455.491910329028,25570.594305953575
4455.515081198378,28677.453735702147
4455.538252188229,31832.62522762617
4455.561423298582,35943.51726091814
4455.584594529436,39637.224766486244
4455.607765880793,43042.339151540386
4455.630937352652,45994.380575158386
4455.654108945016,48372.795018381556
4455.677280657883,50344.896874568745
4455.700452491255,51490.99843797171
4455.723624445134,52535.56289529353
4455.746796519518,52404.031300918774
4455.7699687144095,51685.1122014443
4455.793141029808,50540.92553779462
4455.816313465714,48486.68543670319
4455.83948602213,45806.03025327217
4455.862658699055,43303.0574656253
4455.885831496489,40533.94388034035
4455.909004414434,38809.677611893014
4455.932177452891,38006.683064748366
4455.955350611858,38278.39836382252
4455.978523891339,38911.69511096169
4456.001697291333,40000.858405743944
4456.024870811841,41209.128663110925
4456.048044452862,41934.50156031864
4456.071218214399,42139.587625044434
4456.094392096451,41292.87615806815
4456.117566099019,39707.41035178802
4456.140740222105,37738.25708580433
4456.163914465707,35661.134065961
4456.187088829828,34203.209189808586
4456.210263314468,34017.74545929375
4456.233437919626,35230.41813517153
4456.256612645306,37262.54807833768
4456.279787491505,39726.83823425793
4456.302962458226,42951.931283820275
4456.326137545469,46059.49043443076
4456.349312753233,48275.33294478826
4456.372488081522,50565.8370154129
4456.395663530333,52078.108674672825
4456.41883909967,52755.08326830764
4456.442014789531,53071.70984590576
4456.465190599917,53269.07803523281
4456.488366530831,52923.42392508384
4456.5115425822705,52428.42388938151
4456.5347187542375,51494.86091839308
4456.557895046733,50522.90450336258
4456.581071459757,49744.78900092054
4456.604247993311,49318.727452452775
4456.627424647395,49762.69123671442
4456.650601422009,50465.89348878915
4456.673778317154,51331.71671627701
4456.696955332832,52282.577600200595
4456.720132469041,53219.68691744141
4456.7433097257845,53536.18444755022
4456.766487103061,53561.92691029114
4456.789664600872,53617.02505966692
4456.8128422192185,52881.83054958909
4456.8360199581,51422.22600711853
4456.859197817518,49512.35861503931
4456.882375797473,46990.581626058265
4456.905553897966,43523.99255503105
4456.928732118997,39509.57374050622
4456.951910460566,35739.213744069035
4456.975088922674,32653.046280513783
4456.998267505323,30533.224821280302
4457.021446208513,29546.75402471272
4457.044625032244,29397.64506857119
4457.067803976516,29887.092051653366
4457.090983041332,31338.128104278487
4457.1141622266905,33568.719502569606
4457.1373415325925,36548.15148759807
4457.160520959039,40131.517326035995
4457.183700506031,43624.973059536766
4457.206880173568,46680.27767056004
4457.230059961651,49140.69819393171
4457.2532398702815,51134.50201631851
4457.27641989946,52518.13954505986
4457.299600049186,53228.25903498575
4457.322780319461,53713.70602500396
4457.345960710286,53995.16885187487
4457.36914122166,54100.59236062354
4457.392321853586,54122.67527679376
4457.415502606062,53873.97580191594
4457.43868347909,53568.18747260431
4457.461864472672,53360.62830665618
4457.485045586805,52050.84405486386
4457.508226821494,50482.40657872715
4457.5314081767365,48901.36186933241
4457.554589652534,46210.50895128019
4457.577771248887,43146.01093218768
4457.600952965797,40594.39081639052
4457.624134803263,38287.13176812859
4457.647316761288,36600.44436600451
4457.67049883987,35623.02639894025
4457.693681039011,35526.90278333727
4457.716863358712,35553.73484637289
4457.7400457989725,35687.9811541226
4457.763228359793,35275.912796895725
4457.7864110411765,35128.94528168483
4457.809593843121,35527.58997943158
4457.832776765628,36517.48547031384
4457.855959808699,38639.969957195855
4457.879142972333,41204.99253686393
4457.902326256532,43489.743802811136
4457.925509661296,45590.45661943185
4457.948693186626,47166.80530290125
4457.971876832522,47710.59789147289
4457.995060598985,47198.682000592555
4458.018244486016,45998.22946798436
4458.041428493615,44515.999352684834
4458.0646126217825,43659.14984844032
4458.08779687052,43032.79631599631
4458.110981239827,43286.54737872554
4458.134165729705,44569.46570227314
4458.157350340155,46641.65940196652
4458.180535071177,48596.017130673165
4458.203719922771,50199.7221855905
4458.226904894938,52009.025222145596
4458.2500899876795,53410.43893929274
4458.273275200995,54731.28305446334
4458.296460534886,55024.99005299558
4458.3196459893525,55293.47283731705
4458.342831564396,55172.48913636509
4458.366017260016,54371.60611385177
4458.389203076214,53161.96467261718
4458.4123890129895,51611.077570197944
4458.435575070344,49255.32910929174
4458.458761248279,46956.2331510737
4458.481947546794,43719.75193715137
4458.505133965889,40115.74721700305
4458.528320505566,35505.85654980904
4458.551507165825,31378.792827724916
4458.574693946666,26989.371246461185
4458.597880848091,23150.189808519444
4458.6210678701,20305.070518089335
4458.644255012693,18387.61128262938
4458.6674422758715,17183.06718496312
4458.690629659636,17193.49283011072
4458.713817163986,18214.08837597199
4458.737004788924,20007.63346975497
4458.76019253445,22408.255451589423
4458.783380400563,24955.368316788117
4458.8065683872655,27481.223930692908
4458.829756494558,29489.436114371252
4458.85294472244,30749.630895122224
4458.876133070914,31412.56194796758
4458.899321539979,32426.53215852751
4458.922510129635,34060.53605797038
4458.945698839884,36218.13535531634
4458.968887670727,39124.8722807539
4458.992076622164,42586.689211425575
4459.015265694195,45877.69602453525
4459.0384548868215,48917.442212710164
4459.061644200044,51008.87036831605
4459.084833633862,53099.392163356955
4459.108023188278,54559.00196659323
4459.131212863292,55251.29296667018
4459.154402658904,55464.79764507807
4459.177592575114,55479.79334198831
4459.200782611925,54905.11669555101
4459.223972769336,54006.25885705255
4459.247163047347,52818.38699519288
4459.27035344596,51306.06895338219
4459.293543965176,50282.260772726295
4459.316734604993,49827.766310976476
4459.339925365414,49970.02236682558
4459.363116246439,50513.30894309993
4459.386307248069,51688.027178602846
4459.409498370304,52761.283069065394
4459.432689613145,53805.788695342155
4459.455880976592,55015.44824430018
4459.479072460647,55425.56428541108
4459.502264065309,55748.98183436336
4459.52545579058,55926.830914593185
4459.5486476364595,55706.481158863484
4459.571839602949,55173.70966142411
4459.595031690048,53850.01924127238
4459.618223897759,52097.51690714943
4459.641416226081,49848.73787057575
4459.664608675014,47145.1660778355
4459.687801244561,43750.63278643952
4459.710993934721,39595.02351130072
4459.734186745496,35849.325844915715
4459.757379676885,32786.04644299061
4459.780572728889,30829.431600902055
4459.803765901509,29865.85520833394
4459.8269591947455,30225.546136191333
4459.850152608599,31688.340239627978
4459.87334614307,34023.47022619253
4459.89653979816,36493.02326119401
4459.91973357387,39507.44885526845
4459.942927470198,43102.46503967575
4459.966121487147,46008.60816778232
4459.989315624717,48742.41110795146
4460.0125098829085,51462.474980221996
4460.035704261722,53569.54988005816
4460.058898761158,54864.5850952711
4460.082093381218,56163.17508041346
4460.105288121902,57028.860236309316
4460.12848298321,57640.16864305476
4460.151677965145,58214.29038774517
4460.1748730677045,58375.38557011061
4460.198068290891,58535.25118348388
4460.221263634704,58507.89414665533
4460.244459099145,58335.637085255876
4460.267654684215,57890.9056478194
4460.290850389914,57533.18153480972
4460.314046216243,57391.686844391465
4460.337242163202,56796.90284560611
4460.360438230791,56214.022805919274
4460.383634419013,56118.03247429736
4460.406830727867,56190.47029250143
4460.430027157354,56233.21640615774
4460.453223707474,55636.623963688486
4460.476420378228,54521.99569587977
4460.499617169617,53394.41465918467
4460.522814081641,51816.91918037022
4460.5460111143,49480.83810032946
4460.569208267598,46428.6641924172
4460.592405541532,43166.67638492399
4460.615602936104,39633.95991983877
4460.638800451314,35673.26835768672
4460.661998087163,32185.152739778474
4460.685195843652,29832.1119504821
4460.708393720782,27645.41210905126
4460.731591718552,25988.156325475655
4460.754789836965,25124.306169154934
4460.777988076019,25142.72071253739
4460.801186435716,25793.21509868315
4460.824384916057,27044.404183411658
4460.847583517042,28184.255330317876
4460.870782238671,28764.68031798858
4460.893981080947,28755.589364851727
4460.917180043868,27793.80172621412
4460.940379127435,26716.179443715624
4460.963578331651,25234.208072494457
4460.986777656513,24092.365237455786
4461.009977102025,24059.387976632937
4461.033176668186,24250.04938162826
4461.056376354995,24335.19698147406
4461.079576162457,24281.1948118774
4461.102776090568,23953.73327017297
4461.125976139332,22995.388952570796
4461.149176308748,21288.265940198064
4461.172376598816,19762.482137638748
4461.195577009538,18664.434809752525
4461.218777540915,18340.554638743248
4461.241978192946,18909.154716539248
4461.265178965633,20325.985875901206
4461.2883798589755,23176.19634935767
4461.311580872974,26223.024832738873
4461.3347820076315,29482.475759619836
4461.357983262946,32709.207051356174
4461.381184638919,35210.672039781464
4461.404386135551,36995.45664104931
4461.4275877528435,37327.71374143744
4461.4507894907965,36895.53908799521
4461.4739913494095,35150.2523660141
4461.497193328685,32628.441402519653
4461.520395428623,30413.75037682203
4461.543597649224,28610.29968709129
4461.566799990488,28034.957789258515
4461.590002452416,28593.900508211253
4461.61320503501,30484.239232319003
4461.636407738269,33026.79140094198
4461.659610562193,36114.56511215607
4461.682813506784,38943.15250943286
4461.706016572044,41398.6748008076
4461.729219757971,43388.127630520714
4461.752423064566,45040.46594598327
4461.775626491831,46486.94809586914
4461.798830039766,47143.20698887027
4461.82203370837,47957.996700182855
4461.845237497647,47777.510719590406
4461.868441407595,47493.49588403089
4461.891645438215,46156.123064543564
4461.914849589509,44193.313402047315
4461.938053861475,41529.69039663411
4461.961258254117,39045.03017960977
4461.984462767433,37321.80419166729
4462.007667401424,36101.256304807735
4462.030872156092,36534.852813301695
4462.0540770314365,38534.89212952151
4462.077282027459,40837.37908641445
4462.100487144158,43541.39378025435
4462.123692381537,46792.05014524454
4462.146897739594,49071.67412907164
4462.170103218332,51132.23563159711
4462.19330881775,52376.62300853005
4462.21651453785,53122.40314067149
4462.239720378631,53631.10826754381
4462.262926340095,53842.185772283796
4462.286132422241,53904.5166890664
4462.309338625071,54124.46100193135
4462.3325449485865,53961.44516711874
4462.355751392785,53701.25573999845
4462.3789579576705,53314.61828726402
4462.402164643242,52163.206865372355
4462.4253714495,50632.929880426505
4462.448578376446,48592.543712521474
4462.471785424079,45946.55561566222
4462.494992592401,43032.358215584136
4462.518199881412,40475.51580025714
4462.541407291114,38675.96499840809
4462.564614821506,38083.249784752785
4462.587822472589,38487.524340830816
4462.611030244365,39687.11065885063
4462.634238136832,41670.73690220736
4462.657446149992,43223.62479337679
4462.680654283847,45568.65239858829
4462.703862538396,47468.46989877276
4462.727070913639,48858.58665336983
4462.750279409578,50243.79519811054
