wave,flux
4450.003811362098,21129.797849134717
4450.026953690486,19183.426664036244
4450.050096139227,18670.90087393455
4450.073238708321,19121.604670931538
4450.096381397769,20722.842850407127
4450.119524207569,23503.39112467325
4450.142667137726,27071.834427264024
4450.165810188237,30782.383663320947
4450.188953359103,34156.32791585777
4450.212096650326,37486.76100986192
4450.2352400619075,40067.57231980705
4450.258383593846,41710.30921987599
4450.281527246142,43314.35028845102
4450.304671018797,45289.141845641534
4450.327814911813,47190.074207854756
4450.350958925188,49347.296090263495
4450.374103058924,51058.03110920598
4450.3972473130225,52530.53104684205
4450.420391687483,53781.02408693052
4450.443536182305,54975.2295380218
4450.466680797492,56812.9720297259
4450.489825533042,59283.36387155654
4450.512970388957,62189.87603996938
4450.536115365237,65441.459645439485
4450.559260461882,68568.79779039313
4450.582405678895,70730.1231690423
4450.605551016274,72905.35475610015
4450.628696474022,74900.93502446888
4450.651842052138,75714.56406396328
4450.674987750623,76579.32591703092
4450.698133569476,77490.29173256311
4450.721279508702,78072.26155740547
4450.744425568297,78452.94281262971
4450.767571748264,77785.49323903138
4450.790718048604,77608.4899203476
4450.813864469315,77014.66301283392
4450.837011010401,76534.5059910915
4450.86015767186,75792.2520886347
4450.883304453694,74325.31342963752
4450.906451355903,73133.12688406644
4450.929598378489,71225.04371196803
4450.95274552145,69013.60797908124
4450.975892784789,65600.89844604427
4450.999040168505,61882.11276554074
4451.022187672601,57850.54079498621
4451.045335297074,52518.88027218452
4451.068483041929,47667.189686314545
4451.091630907163,43070.31153900798
4451.114778892777,39616.92774188951
4451.137926998774,38395.283176310964
4451.161075225153,39129.51898393904
4451.184223571914,41375.573241115424
4451.207372039059,45067.85065018085
4451.230520626587,49573.8613651607
4451.253669334501,54457.95167653436
4451.2768181628,58992.58694843405
4451.299967111485,62835.892192181585
4451.323116180556,66375.04026007817
4451.346265370014,68912.8432186521
4451.369414679861,70269.0596758461
4451.392564110095,71648.5601601701
4451.415713660719,72361.10821496221
4451.438863331732,71144.7953562094
4451.462013123136,69693.38785214699
4451.48516303493,68130.74989445611
4451.508313067117,66038.25021102783
4451.531463219695,64319.160110953104
4451.554613492666,62996.13962707046
4451.577763886031,62827.127388937224
4451.60091439979,63241.07575385768
4451.624065033943,64217.05522726509
4451.647215788492,66180.69166340568
4451.670366663436,67321.14500360338
4451.693517658777,69231.82483227325
4451.716668774516,70672.12497620667
4451.739820010652,72637.60276021984
4451.762971367186,74380.2616423779
4451.78612284412,75566.32220628086
4451.8092744414525,76484.40054376946
4451.832426159187,77114.62628584045
4451.855577997321,77742.72743288122
4451.878729955857,78007.2132350056
4451.901882034796,78239.46838494006
4451.925034234137,78227.08691719535
4451.948186553881,77751.53412198256
4451.97133899403,77062.7212235633
4451.994491554583,76668.03425182523
4452.017644235542,75604.92680464982
4452.040797036907,74538.17812779108
4452.063949958678,73196.85964043325
4452.087103000857,71419.0010704857
4452.1102561634425,69555.32809239258
4452.133409446437,67700.98369774428
4452.156562849841,65947.55755520774
4452.179716373655,64355.97331647786
4452.202870017878,62816.91607987363
4452.226023782513,61137.68278539344
4452.24917766756,59741.72917393801
4452.272331673018,59068.57800634906
4452.29548579889,58840.94452008123
4452.318640045174,59480.98185236878
4452.341794411874,61344.702670094244
4452.364948898987,63439.511002604566
4452.388103506516,65154.58466255013
4452.4112582344615,66530.7860403355
4452.434413082823,67270.96799077206
4452.457568051602,66759.23012115876
4452.480723140799,66327.47769094135
4452.503878350413,65099.38015611885
4452.527033680448,63268.25374763485
4452.550189130902,62388.8413782492
4452.5733447017765,62022.354250745215
4452.596500393071,62746.79868588496
4452.619656204789,63821.9842831609
4452.642812136928,64525.505705751704
4452.66596818949,65773.86380450717
4452.689124362475,66531.85003811521
4452.7122806558855,65977.20725890114
4452.735437069719,65962.70840616946
4452.7585936039795,64939.69346174527
4452.781750258665,62508.6109275978
4452.804907033777,60036.76050909996
4452.828063929317,57618.89498951245
4452.851220945285,55074.32386867193
4452.87437808168,54043.79564201912
4452.897535338506,54589.79783746988
4452.92069271576,56024.85053817089
4452.943850213445,58722.64531477666
4452.967007831562,62107.31349108709
4452.99016557011,64623.22797592611
4453.01332342909,67488.92194071831
4453.036481408502,69620.6456451014
4453.059639508349,71204.48251744617
4453.08279772863,72361.24173827727
4453.105956069345,73217.56214038632
4453.129114530496,73196.74793050606
4453.152273112083,72572.63405671263
4453.175431814107,71491.17572165266
4453.198590636567,69917.03888771933
4453.221749579466,68577.58228537705
4453.244908642802,67343.17456992781
4453.268067826579,66671.16315798892
4453.291227130795,67061.54955225732
4453.314386555451,67783.4772425194
4453.337546100549,69131.00561943921
4453.360705766087,70695.95249209531
4453.3838655520685,71947.47265623718
4453.407025458493,73122.2094736527
4453.430185485361,74018.90946405217
4453.453345632673,74819.0505838605
4453.476505900429,75277.30665066783
4453.4996662886315,76123.78645457284
4453.52282679728,76626.10199257471
4453.545987426375,76673.06119252695
4453.569148175917,76838.94766476685
4453.592309045907,76547.53892451442
4453.615470036346,76305.05246558318
4453.638631147233,75916.4433597991
4453.661792378571,75433.862746041
4453.684953730359,74967.32688570111
4453.708115202598,73349.01051842369
4453.731276795288,72164.20932453172
4453.754438508431,70352.68181013387
4453.777600342027,67502.1172180052
4453.800762296077,63934.507444825234
4453.82392437058,59919.301407465806
4453.847086565538,54585.39388549101
4453.870248880952,49300.041583625
4453.8934113168225,44627.64914359154
4453.916573873149,40055.244785335046
4453.939736549933,37356.85070705694
4453.962899347174,36636.8919268658
4453.986062264875,37510.8080236007
4454.009225303034,39565.68234554319
4454.032388461654,42579.633559709895
4454.055551740734,45112.06412612377
4454.078715140275,46616.88230831473
4454.101878660277,47550.15238003651
4454.125042300742,46863.6626319283
4454.14820606167,44645.08719980421
4454.171369943061,42246.7004320667
4454.194533944917,38478.56226615765
4454.2176980672375,34745.15819066105
4454.240862310024,30905.676834449863
4454.264026673275,27669.235449504595
4454.287191156994,24574.514562838252
4454.31035576118,22108.959160833936
4454.333520485834,21051.601734574593
4454.356685330957,21228.655541141954
4454.379850296548,22510.241383888766
4454.40301538261,24914.593005717532
4454.426180589142,27804.06186845666
4454.449345916145,30674.600310705464
4454.4725113636205,33187.73604358748
4454.495676931568,35059.33220702126
4454.5188426199875,36080.93544871658
4454.542008428882,36657.76600065685
4454.565174358249,37762.07469758905
4454.588340408092,39674.13812981831
4454.611506578411,42237.12983273883
4454.634672869205,45277.3502099078
4454.657839280476,48703.93614460145
4454.681005812225,51787.45246607526
4454.704172464451,54097.40627577644
4454.727339237156,55136.70882507416
4454.750506130341,54375.35288469647
4454.773673144005,52536.84830134266
4454.79684027815,49978.237878547305
4454.820007532776,47484.95956691365
4454.843174907884,45852.63523884698
4454.866342403473,45261.881865879725
4454.889510019546,46396.67170961902
4454.912677756102,49081.078057587045
4454.935845613144,52381.9035564579
4454.959013590669,56219.45044016784
4454.982181688681,60196.94280672827
4455.005349907178,63728.93015153018
4455.028518246162,66545.35790105289
4455.051686705633,68433.37727962705
4455.074855285593,69904.58785176834
4455.098023986041,70304.7633896517
4455.121192806979,69818.4940661639
4455.144361748406,69157.56688317357
4455.167530810323,67995.76647651989
4455.190699992732,65921.6935516357
4455.213869295633,64059.57701182816
4455.237038719026,61150.50646633741
4455.260208262912,58564.48118906561
4455.283377927292,55522.03429777675
4455.306547712166,51389.44861293209
4455.329717617535,46815.91493626914
4455.352887643399,42352.16956223611
4455.37605778976,37692.130259312806
4455.399228056617,33965.68244084691
4455.422398443972,31269.446870153093
4455.445568951825,30622.264211966016
4455.468739580177,31577.273539309994
4455.491910329028,34447.840410477125
4455.515081198378,38460.238335308706
4455.538252188229,43297.063592822
4455.561423298582,47834.50756637561
4455.584594529436,53068.02790731569
4455.607765880793,56904.58299512051
4455.630937352652,61186.210503409966
4455.654108945016,63719.042149352324
4455.677280657883,65921.26755933231
4455.700452491255,67737.66823705786
4455.723624445134,68774.72359023667
4455.746796519518,68847.68642867694
4455.7699687144095,67693.55904665281
4455.793141029808,65926.72699239534
4455.816313465714,63110.3803975335
4455.83948602213,59832.70303764682
4455.862658699055,56410.61220139246
4455.885831496489,53613.54423183336
4455.909004414434,51301.580710479706
4455.932177452891,50318.19387358009
4455.955350611858,50382.65550615884
4455.978523891339,51408.33798370796
4456.001697291333,53381.4726529895
4456.024870811841,55121.50930734688
4456.048044452862,55542.87400478949
4456.071218214399,55510.54576109031
4456.094392096451,54024.429594861394
4456.117566099019,51459.03528725977
4456.140740222105,48936.65607423738
4456.163914465707,46586.25346762735
4456.187088829828,45191.78386437366
4456.210263314468,45145.97676920721
4456.233437919626,46934.73976472471
4456.256612645306,49790.73829429601
4456.279787491505,53495.09813871582
4456.302962458226,57339.864127176945
4456.326137545469,60611.61165576105
4456.349312753233,63835.680012036224
4456.372488081522,66165.30715705508
4456.395663530333,67649.16283164942
4456.41883909967,69119.33782453882
4456.442014789531,69488.72486092708
4456.465190599917,69717.83847256057
4456.488366530831,69468.60558749539
4456.5115425822705,68699.38570118939
4456.5347187542375,67846.14534320739
4456.557895046733,66362.31054072028
4456.581071459757,65209.98978993704
4456.604247993311,64611.549172656625
4456.627424647395,65012.44166956543
4456.650601422009,66247.3866724577
4456.673778317154,67501.6699015347
4456.696955332832,69068.71529699952
4456.720132469041,70007.470476281
4456.7433097257845,70212.6252866011
4456.766487103061,70173.32250530219
4456.789664600872,69704.93680314405
4456.8128422192185,68931.98657749464
4456.8360199581,67162.15583813531
4456.859197817518,63966.530101806646
4456.882375797473,60056.85412812075
4456.905553897966,55749.88876045233
4456.928732118997,51045.445867769355
4456.951910460566,46580.67093085319
4456.975088922674,42891.08920631442
4456.998267505323,40463.73464198701
4457.021446208513,39134.12477414475
4457.044625032244,38885.276833792406
4457.067803976516,40099.58917463629
4457.090983041332,42086.89565970655
4457.1141622266905,44931.741738040226
4457.1373415325925,49086.205260980285
4457.160520959039,53739.72259354472
4457.183700506031,58034.369150323364
4457.206880173568,61804.12661497442
4457.230059961651,65110.52520087709
4457.2532398702815,67748.86503691011
4457.27641989946,69015.78089375446
4457.299600049186,69837.31143441833
4457.322780319461,70437.91003783407
4457.345960710286,70435.59551154063
4457.36914122166,70753.21514409989
4457.392321853586,71018.30234714458
4457.415502606062,70660.78661494881
4457.43868347909,70273.30800974849
4457.461864472672,69606.90558771232
4457.485045586805,68296.31856510068
4457.508226821494,66015.00901690965
4457.5314081767365,63213.0620795321
4457.554589652534,60049.58295957671
4457.577771248887,56577.017291666576
4457.600952965797,52987.37157592301
4457.624134803263,50256.33586582162
4457.647316761288,48245.086430524316
4457.67049883987,47246.816577014215
4457.693681039011,47170.02650016876
4457.716863358712,47115.193647636035
4457.7400457989725,47088.58170451012
4457.763228359793,46790.36978223081
4457.7864110411765,46450.340824829065
4457.809593843121,46768.474505028404
4457.832776765628,48675.4320200146
4457.855959808699,51639.77595790531
4457.879142972333,54891.5069624205
4457.902326256532,58247.44731556102
4457.925509661296,60492.93238852836
4457.948693186626,62282.57553223013
4457.971876832522,62578.74522482843
4457.995060598985,61669.96206077167
4458.018244486016,60126.81416444714
4458.041428493615,58506.42139309374
4458.0646126217825,57524.51965402168
4458.08779687052,57083.50643120609
4458.110981239827,57778.42279641512
4458.134165729705,59412.23736371378
4458.157350340155,61623.266781358776
4458.180535071177,64097.84500957917
4458.203719922771,66567.66900710831
4458.226904894938,68900.6224050897
4458.2500899876795,70444.12153633698
4458.273275200995,71389.52043007093
4458.296460534886,72153.23500730457
4458.3196459893525,72198.52955081787
4458.342831564396,71907.2747732263
4458.366017260016,70914.33065803151
4458.389203076214,69303.3241282649
4458.4123890129895,67060.37000362741
4458.435575070344,64343.96842026888
4458.458761248279,60384.87274721724
4458.481947546794,56255.367481621644
4458.505133965889,51490.7756750797
4458.528320505566,45648.55504615031
4458.551507165825,40073.74896267294
4458.574693946666,34531.53825984375
4458.597880848091,29987.766464994864
4458.6210678701,26358.70198401588
4458.644255012693,23740.221880965604
4458.6674422758715,22717.269425481998
4458.690629659636,23065.02738280833
4458.713817163986,24510.29538693941
4458.737004788924,27132.76216460388
4458.76019253445,30506.566406285157
4458.783380400563,33864.004072652875
4458.8065683872655,36878.33342309829
4458.829756494558,39037.77291848325
4458.85294472244,40502.23400320026
4458.876133070914,41905.1383686113
4458.899321539979,43124.724498579766
4458.922510129635,45191.41065237752
4458.945698839884,48644.876090135025
4458.968887670727,52616.88626115348
4458.992076622164,56576.28813824505
4459.015265694195,60651.43538046081
4459.0384548868215,64235.88385743765
4459.061644200044,67496.57033715308
4459.084833633862,69866.96041295781
4459.108023188278,71292.48628440946
4459.131212863292,72503.67218344164
4459.154402658904,72589.87679190215
4459.177592575114,72430.79339351914
4459.200782611925,71855.06812356264
4459.223972769336,70814.00238573212
4459.247163047347,69013.69588535243
4459.27035344596,67064.74213462988
4459.293543965176,66140.60946741673
4459.316734604993,65889.35617735039
4459.339925365414,65877.52203890377
4459.363116246439,67190.37525035012
4459.386307248069,68538.37178756492
4459.409498370304,69690.12036671421
4459.432689613145,70977.91171315541
4459.455880976592,72422.06357567706
4459.479072460647,72863.69041406349
4459.502264065309,73068.0090563662
4459.52545579058,73384.8969429905
4459.5486476364595,72754.6792332246
4459.571839602949,71860.22229748603
4459.595031690048,70644.27586018038
4459.618223897759,68059.94084728541
4459.641416226081,64749.16189964555
4459.664608675014,61270.05496097749
4459.687801244561,56460.29035819804
4459.710993934721,51201.89561502973
4459.734186745496,46638.066235307575
4459.757379676885,42764.85300168768
4459.780572728889,40306.960205841635
4459.803765901509,39657.07480454784
4459.8269591947455,40773.093167396466
4459.850152608599,42752.62040532866
4459.87334614307,45719.05736522489
4459.89653979816,49256.42955748452
4459.91973357387,53236.00121010239
4459.942927470198,57451.49042911402
4459.966121487147,61535.203634215395
4459.989315624717,65115.26968130421
4460.0125098829085,68140.54954334864
4460.035704261722,70663.51938853503
4460.058898761158,72809.61135986696
4460.082093381218,74333.35978410249
4460.105288121902,75129.65633733413
4460.12848298321,75761.92812872793
4460.151677965145,76344.77842930797
4460.1748730677045,76719.63394189556
4460.198068290891,76760.68149617068
4460.221263634704,76785.30548740973
4460.244459099145,76931.30492521485
4460.267654684215,76089.08042198345
4460.290850389914,75209.62377609976
4460.314046216243,74856.57155568416
4460.337242163202,74111.95056903045
4460.360438230791,73596.69211626805
4460.383634419013,73659.72676902718
4460.406830727867,73693.85844033683
4460.430027157354,73389.96638513818
4460.453223707474,72734.8067055791
4460.476420378228,71731.10054005032
4460.499617169617,70077.6180376356
4460.522814081641,67793.95352853872
4460.5460111143,64453.374774781165
4460.569208267598,60208.900642127
4460.592405541532,55543.38402092228
4460.615602936104,50644.32618700369
4460.638800451314,45962.73676908726
4460.661998087163,41939.880577392876
4460.685195843652,38654.97784056874
4460.708393720782,36018.69255307838
4460.731591718552,34104.64488497156
4460.754789836965,33276.240732337035
4460.777988076019,33515.3648282789
4460.801186435716,34521.83626081448
4460.824384916057,36071.152465035244
4460.847583517042,37195.226832568434
4460.870782238671,37944.58004068481
4460.893981080947,37597.497619234564
4460.917180043868,36346.383807737635
4460.940379127435,34659.40927274206
4460.963578331651,33104.19080830243
4460.986777656513,32013.617385810736
4461.009977102025,31606.957113907676
4461.033176668186,31820.416924879613
4461.056376354995,32285.155565354795
4461.079576162457,32089.669438063367
4461.102776090568,31281.382091631425
4461.125976139332,29902.223385590845
4461.149176308748,27845.386637544692
4461.172376598816,25848.585386483483
4461.195577009538,24575.55633360613
4461.218777540915,24264.789804428743
4461.241978192946,25279.205155246047
4461.265178965633,27655.105900030387
4461.2883798589755,31202.249881657135
4461.311580872974,35385.89765252729
4461.3347820076315,39762.66294512188
4461.357983262946,43730.40853450548
4461.381184638919,46877.49328215741
4461.404386135551,48594.297757642475
4461.4275877528435,48949.774857938384
4461.4507894907965,47643.72976038503
4461.4739913494095,45460.37882552247
4461.497193328685,42404.23793770447
4461.520395428623,39362.226853270135
4461.543597649224,37708.00353495649
4461.566799990488,37037.94709113567
4461.590002452416,37995.55132046762
4461.61320503501,40657.93769649578
4461.636407738269,44737.63199200384
4461.659610562193,48293.56965050452
4461.682813506784,51969.80895035568
4461.706016572044,54824.14299645325
4461.729219757971,57274.49312500669
4461.752423064566,58917.80984901755
4461.775626491831,60874.36744245343
4461.798830039766,62594.35360679004
4461.82203370837,63286.816364759165
4461.845237497647,63153.45995357708
4461.868441407595,62487.61214795945
4461.891645438215,59901.632804414316
4461.914849589509,57327.445318470294
4461.938053861475,53900.86888739111
4461.961258254117,50944.59778264447
4461.984462767433,48709.62946796477
4462.007667401424,48305.21660164318
4462.030872156092,49015.603105574475
4462.0540770314365,51503.76104524586
4462.077282027459,54659.16809707609
4462.100487144158,58624.1589092721
4462.123692381537,61948.423159911144
4462.146897739594,64752.73574033495
4462.170103218332,67286.45646808593
4462.19330881775,68951.11536807727
4462.21651453785,69751.6687403942
4462.239720378631,70122.67631301627
4462.262926340095,70576.85582184629
4462.286132422241,70356.78172966959
4462.309338625071,70492.03350154754
4462.3325449485865,70814.3531341132
4462.355751392785,70492.42946785754
4462.3789579576705,69532.88599652522
4462.402164643242,68062.41329719721
4462.4253714495,66024.11262611226
4462.448578376446,63072.915617040075
4462.471785424079,59450.45052005449
4462.494992592401,56230.452616074224
4462.518199881412,53163.11729014589
4462.541407291114,51213.48163174828
4462.564614821506,50666.47570191804
4462.587822472589,51401.0194878434
4462.611030244365,53150.22661142644
4462.634238136832,55476.89390843753
4462.657446149992,58079.2374345252
4462.680654283847,60437.18333756739
4462.703862538396,62679.98399327856
4462.727070913639,64793.206309769936
4462.750279409578,66493.5443464502
4462.773488026214,67635.57986533544
4462.796696763546,67675.40671541331
4462.819905621575,67779.3668193443
