wave,flux
4450.003811362098,19402.986227842553
4450.026953690486,19633.787854798735
4450.050096139227,19583.15478145409
4450.073238708321,19676.183471861284
4450.096381397769,19388.511570091345
4450.119524207569,18697.283564595386
4450.142667137726,17986.9173465848
4450.165810188237,17115.961456764566
4450.188953359103,16131.191004838694
4450.212096650326,15022.34047441048
4450.2352400619075,13859.84741526264
4450.258383593846,12565.63853785599
4450.281527246142,11253.497877776994
4450.304671018797,10083.718874101605
4450.327814911813,8938.90087522404
4450.350958925188,7858.456392543352
4450.374103058924,6882.261501764733
4450.3972473130225,6039.161710217208
4450.420391687483,5542.269300626929
4450.443536182305,5247.872805267418
4450.466680797492,4994.569371200287
4450.489825533042,4924.419013769569
4450.512970388957,5065.486870827788
4450.536115365237,5339.671056166771
4450.559260461882,5673.4959297568785
4450.582405678895,6263.975762664084
4450.605551016274,7075.598620718654
4450.628696474022,7940.340523484451
4450.651842052138,8903.727742188898
4450.674987750623,9777.725016165197
4450.698133569476,10492.01704519193
4450.721279508702,10960.314444146918
4450.744425568297,11123.938953708837
4450.767571748264,11207.947148258232
4450.790718048604,11453.807807304082
4450.813864469315,11846.826498793858
4450.837011010401,12097.26285400775
4450.86015767186,12845.70952591693
4450.883304453694,13425.63658355068
4450.906451355903,14184.168522753338
4450.929598378489,15072.012609981979
4450.95274552145,16025.17967197303
4450.975892784789,16838.323607117836
4450.999040168505,17988.2062481469
4451.022187672601,21564.626022507862
4451.045335297074,21485.041558262645
4451.068483041929,21471.49961364814
4451.091630907163,22238.6963968202
4451.114778892777,22866.77674722424
4451.137926998774,23163.3908413041
4451.161075225153,23292.990520219075
4451.184223571914,23361.890590347644
4451.207372039059,23096.725419256567
4451.230520626587,22888.613468874624
4451.253669334501,22666.66094043525
4451.2768181628,22126.19049552138
4451.299967111485,21462.72056294731
4451.323116180556,20770.65082884661
4451.346265370014,19933.483696575135
4451.369414679861,18949.614536666555
4451.392564110095,17987.182257729335
4451.415713660719,16810.840491251853
4451.438863331732,15645.72841642933
4451.462013123136,14635.400724455234
4451.48516303493,13531.809576736578
4451.508313067117,12648.230672947637
4451.531463219695,11589.66601264277
4451.554613492666,10825.639808600617
4451.577763886031,10153.351003900705
4451.60091439979,9968.534406686376
4451.624065033943,9884.464436315731
4451.647215788492,10636.720617197569
4451.670366663436,11668.821509022431
4451.693517658777,13056.18670357919
4451.716668774516,14417.606917884988
4451.739820010652,15946.618799287091
4451.762971367186,17010.844969368278
4451.78612284412,18036.873454066936
4451.8092744414525,18601.855238274107
4451.832426159187,18909.196376165946
4451.855577997321,18996.93366540622
4451.878729955857,18502.895965009968
4451.901882034796,18030.19639527119
4451.925034234137,17352.003142970512
4451.948186553881,16818.67814601453
4451.97133899403,16431.375859220527
4451.994491554583,15956.131332883386
4452.017644235542,15826.903091485472
4452.040797036907,16653.579802401768
4452.063949958678,17841.650615052415
4452.087103000857,17638.651029357356
4452.1102561634425,17495.240761303994
4452.133409446437,18578.257517647766
4452.156562849841,19741.558211581298
4452.179716373655,20778.560024355706
4452.202870017878,21476.56360323028
4452.226023782513,21956.838112811532
4452.24917766756,22678.993482483533
4452.272331673018,23003.46180943246
4452.29548579889,23183.339577875086
4452.318640045174,23378.543203959667
4452.341794411874,22998.999885597554
4452.364948898987,22950.02522050055
4452.388103506516,22830.78890358503
4452.4112582344615,22095.87055895212
4452.434413082823,21608.437889368768
4452.457568051602,21251.933027110746
4452.480723140799,20492.108922079417
4452.503878350413,19941.252063585624
4452.527033680448,19257.344308572192
4452.550189130902,18330.101821660923
4452.5733447017765,17430.941617351073
4452.596500393071,16437.610573614355
4452.619656204789,15870.607454652885
4452.642812136928,15309.223586601436
4452.66596818949,14708.789311212036
4452.689124362475,14474.258432739063
4452.7122806558855,14207.05408769831
4452.735437069719,14322.652251769065
4452.7585936039795,14152.635685832165
4452.781750258665,14312.594707455233
4452.804907033777,14799.783231787107
4452.828063929317,15189.390007533115
4452.851220945285,15617.594527822157
4452.87437808168,15996.264905857117
4452.897535338506,16309.08054367122
4452.92069271576,16447.494456415407
4452.943850213445,16475.294788703923
4452.967007831562,16125.779416365001
4452.99016557011,15900.969963695703
4453.01332342909,15529.043847038587
4453.036481408502,15269.844345537522
4453.059639508349,15083.762229603673
4453.08279772863,15038.33247668208
4453.105956069345,15362.753243986725
4453.129114530496,15531.779830930935
4453.152273112083,15704.438146847273
4453.175431814107,15806.043173356073
4453.198590636567,15573.089167349834
4453.221749579466,15340.612661583795
4453.244908642802,14905.914868633745
4453.268067826579,14365.481079464524
4453.291227130795,14111.763095527635
4453.314386555451,13803.739358919152
4453.337546100549,13662.312567857132
4453.360705766087,13905.044711828034
4453.3838655520685,14401.135108868315
4453.407025458493,15213.557653113561
4453.430185485361,16193.524181161485
4453.453345632673,17469.44573347876
4453.476505900429,18410.263088083902
4453.4996662886315,19133.01481207295
4453.52282679728,19706.867554791428
4453.545987426375,19793.23313978766
4453.569148175917,19601.090910276747
4453.592309045907,19384.1987745266
4453.615470036346,19077.808941122585
4453.638631147233,18616.31029304337
4453.661792378571,18490.592724995615
4453.684953730359,18213.060039343574
4453.708115202598,17462.502841667763
4453.731276795288,17458.956726006792
4453.754438508431,17479.42885169859
4453.777600342027,17728.888200402853
4453.800762296077,18759.775017859898
4453.82392437058,19372.66689270526
4453.847086565538,20298.85529242208
4453.870248880952,20941.831757813463
4453.8934113168225,21474.55088893429
4453.916573873149,22082.840251952486
4453.939736549933,22561.924693463316
4453.962899347174,22684.724052002748
4453.986062264875,22844.151751915673
4454.009225303034,22755.82730066551
4454.032388461654,22649.506090979743
4454.055551740734,22401.73645794138
4454.078715140275,21882.261280318573
4454.101878660277,21370.897446579856
4454.125042300742,20556.757673642205
4454.14820606167,19703.152035656185
4454.171369943061,18707.31315901408
4454.194533944917,17628.504747686486
4454.2176980672375,16344.155414624453
4454.240862310024,15397.854615006056
4454.264026673275,14265.6575151343
4454.287191156994,12904.223714926718
4454.31035576118,11702.544257015858
4454.333520485834,10609.192926514592
4454.356685330957,9647.792207287364
4454.379850296548,8879.079111808684
4454.40301538261,8182.7090667504
4454.426180589142,7886.048508801548
4454.449345916145,7819.563921514165
4454.4725113636205,8115.4462560666625
4454.495676931568,8713.850775172838
4454.5188426199875,9184.513244593798
4454.542008428882,9610.217585077438
4454.565174358249,9801.798152358484
4454.588340408092,9757.79789097148
4454.611506578411,9400.329048769137
4454.634672869205,8687.813489833987
4454.657839280476,7948.395829204616
4454.681005812225,7131.475903779016
4454.704172464451,6252.689633129527
4454.727339237156,5579.573070463536
4454.750506130341,5183.60338474805
4454.773673144005,4882.984358098835
4454.79684027815,4757.525278570659
4454.820007532776,4837.8579864815965
4454.843174907884,5035.255828941062
4454.866342403473,5415.148518919104
4454.889510019546,6029.764326682285
4454.912677756102,6800.562645690005
4454.935845613144,7471.29642191826
4454.959013590669,8219.08841075101
4454.982181688681,8924.694704601548
4455.005349907178,9427.98959080284
4455.028518246162,9738.02068427655
4455.051686705633,9986.669581722315
4455.074855285593,10133.220413203606
4455.098023986041,10684.853290340494
4455.121192806979,11367.59196938296
4455.144361748406,11800.775421500144
4455.167530810323,12420.479999855215
4455.190699992732,12683.91840443055
4455.213869295633,12831.324773786842
4455.237038719026,12558.971144332952
4455.260208262912,12608.159819145554
4455.283377927292,12308.760495422684
4455.306547712166,12070.435041703995
4455.329717617535,11929.30996246736
4455.352887643399,12107.718445388902
4455.37605778976,12660.47399647001
4455.399228056617,13477.883938184896
4455.422398443972,14718.703505371628
4455.445568951825,15942.96411105113
4455.468739580177,16998.196811428606
4455.491910329028,17992.070205618114
4455.515081198378,18507.822015949256
4455.538252188229,18817.0951358341
4455.561423298582,18794.964969003875
4455.584594529436,18273.131143443592
4455.607765880793,17668.608219107253
4455.630937352652,16879.07664511338
4455.654108945016,15910.935342061886
4455.677280657883,14989.988786342963
4455.700452491255,13723.7579661518
4455.723624445134,12539.26313793797
4455.746796519518,11579.53029998042
4455.7699687144095,10813.111198431016
4455.793141029808,10070.799542591469
4455.816313465714,9119.762495634634
4455.83948602213,8321.389300206036
4455.862658699055,7801.978449512452
4455.885831496489,7473.872056433096
4455.909004414434,7624.142999442772
4455.932177452891,8133.6149757319945
4455.955350611858,8888.152575309588
4455.978523891339,10148.777627992216
4456.001697291333,11592.213779846814
4456.024870811841,13094.439710543957
4456.048044452862,14229.725134156932
4456.071218214399,15581.291071434824
4456.094392096451,16798.301331103656
4456.117566099019,17424.86374361703
4456.140740222105,17647.800838292078
4456.163914465707,17521.24077226109
4456.187088829828,17233.72065417656
4456.210263314468,16816.511665935483
4456.233437919626,16161.113455958879
4456.256612645306,15504.576342662436
4456.279787491505,14800.378618131848
4456.302962458226,13783.083204262397
4456.326137545469,12967.896618584833
4456.349312753233,12068.159515382758
4456.372488081522,11396.14816984922
4456.395663530333,10915.787109314188
4456.41883909967,10919.86603038384
4456.442014789531,10989.04345277598
4456.465190599917,11131.414104142657
4456.488366530831,11532.318390930037
4456.5115425822705,11898.871871927997
4456.5347187542375,12221.655425957675
4456.557895046733,12480.042446723319
4456.581071459757,12566.986075875673
4456.604247993311,12450.046384264782
4456.627424647395,12300.590629189195
4456.650601422009,12285.339363920697
4456.673778317154,12599.260640252036
4456.696955332832,13279.931498724407
4456.720132469041,14190.53127500593
4456.7433097257845,15318.789265274336
4456.766487103061,16392.094942001968
4456.789664600872,17380.57641212671
4456.8128422192185,18480.234568409967
4456.8360199581,19127.7433109753
4456.859197817518,19352.122519221568
4456.882375797473,19511.043432415216
4456.905553897966,19447.301035564637
4456.928732118997,19253.61865883036
4456.951910460566,18884.59797920101
4456.975088922674,18413.634968273935
4456.998267505323,18146.624780000253
4457.021446208513,17927.371283388533
4457.044625032244,17574.202772921493
4457.067803976516,17337.306148472784
4457.090983041332,17297.987787495098
4457.1141622266905,17461.26929007285
4457.1373415325925,17690.865334731396
4457.160520959039,17943.747797227406
4457.183700506031,18059.57818451619
4457.206880173568,17999.69143480807
4457.230059961651,17872.784695485047
4457.2532398702815,17508.08844989073
4457.27641989946,16670.541005660147
4457.299600049186,15790.760365882532
4457.322780319461,14933.377653778283
4457.345960710286,13984.624357016228
4457.36914122166,12842.4260629757
4457.392321853586,11914.085237537
4457.415502606062,10929.970461692372
4457.43868347909,10075.888501284533
4457.461864472672,9393.187388062097
4457.485045586805,9012.569629825448
4457.508226821494,9326.283108197507
4457.5314081767365,9896.729309674733
4457.554589652534,10614.921916856645
4457.577771248887,11585.501235430056
4457.600952965797,12858.988065312164
4457.624134803263,14134.649722428307
4457.647316761288,15418.902432679286
4457.67049883987,16809.709718082067
4457.693681039011,18104.26775480518
4457.716863358712,18835.23870143242
4457.7400457989725,19205.94963596674
4457.763228359793,19406.92937825511
4457.7864110411765,19449.846140930717
4457.809593843121,19296.37475323751
4457.832776765628,18949.909310241303
4457.855959808699,18631.816385975577
4457.879142972333,18286.01134632761
4457.902326256532,17777.884310682904
4457.925509661296,17293.641972288737
4457.948693186626,16556.24203094128
4457.971876832522,15651.276711538118
4457.995060598985,14669.994141527599
4458.018244486016,13804.4014676789
4458.041428493615,12752.856109027682
4458.0646126217825,11943.284981181308
4458.08779687052,11174.564252560958
4458.110981239827,10409.81863023338
4458.134165729705,10180.130542655454
4458.157350340155,10092.019199478136
4458.180535071177,10063.051159149012
4458.203719922771,10334.992565260703
4458.226904894938,10665.546260129027
4458.2500899876795,11070.994027604964
4458.273275200995,11458.485515807788
4458.296460534886,11883.185284517966
4458.3196459893525,12260.433161917766
4458.342831564396,12931.267335968641
4458.366017260016,13641.916359629962
4458.389203076214,14238.220266618253
4458.4123890129895,14745.801421464921
4458.435575070344,15214.380199086752
4458.458761248279,15449.234667746628
4458.481947546794,15423.081731379354
4458.505133965889,15084.898684615659
4458.528320505566,14793.921262970272
4458.551507165825,14822.576954563161
4458.574693946666,14969.962872258664
4458.597880848091,15584.447012293993
4458.6210678701,16447.980339534555
4458.644255012693,17443.89657220661
4458.6674422758715,18539.703754225477
4458.690629659636,19246.90714666267
4458.713817163986,19875.87504089999
4458.737004788924,20164.11454235039
4458.76019253445,20128.731613620716
4458.783380400563,19476.259621896716
4458.8065683872655,18794.51552585135
4458.829756494558,17991.12746296162
4458.85294472244,16840.453078955547
4458.876133070914,15916.618067714668
4458.899321539979,14767.298307085546
4458.922510129635,13415.686742811447
4458.945698839884,11992.61426583981
4458.968887670727,10912.563068987765
4458.992076622164,9674.273751624365
4459.015265694195,8343.676235519544
4459.0384548868215,7158.041099860303
4459.061644200044,6277.407754134456
4459.084833633862,5545.1102188876785
4459.108023188278,4990.648323081453
4459.131212863292,4903.323704381343
4459.154402658904,4971.196731501484
4459.177592575114,5226.678986354385
4459.200782611925,5735.59239360475
4459.223972769336,6478.323838034344
4459.247163047347,7234.596744974691
4459.27035344596,8294.466966159749
4459.293543965176,9310.563371677683
4459.316734604993,10142.724668818984
4459.339925365414,10916.892865227002
4459.363116246439,11701.399295414974
4459.386307248069,12430.662943331152
4459.409498370304,13333.357445683048
4459.432689613145,14273.24852637946
4459.455880976592,15410.413049057795
4459.479072460647,16628.04589696688
4459.502264065309,17872.56881919841
4459.52545579058,18626.284662864295
4459.5486476364595,19276.86932040366
4459.571839602949,19399.29770864207
4459.595031690048,19357.61707540229
4459.618223897759,19213.009100248604
4459.641416226081,18902.75608557895
4459.664608675014,18354.474928052136
4459.687801244561,17837.27627473844
4459.710993934721,17220.288229723617
4459.734186745496,16968.98124778405
4459.757379676885,16565.883787095518
4459.780572728889,16289.519483626265
4459.803765901509,16427.944474741595
4459.8269591947455,16886.88747784547
4459.850152608599,17595.51152978652
4459.87334614307,18239.30072072546
4459.89653979816,18796.039494765613
4459.91973357387,19404.688992469783
4459.942927470198,19774.22652857889
4459.966121487147,19762.514340280075
4459.989315624717,19545.042229492054
4460.0125098829085,18885.58414291036
4460.035704261722,18285.534148979525
4460.058898761158,17300.47904064563
4460.082093381218,16348.580643551464
4460.105288121902,15086.500763467138
4460.12848298321,13837.09105487226
4460.151677965145,12858.90336847408
4460.1748730677045,11708.802540071007
4460.198068290891,10742.546486234362
4460.221263634704,9811.537904205557
4460.244459099145,9162.124515474414
4460.267654684215,9053.478687776338
4460.290850389914,9252.735720128127
4460.314046216243,9856.943522857231
4460.337242163202,10929.80210096167
4460.360438230791,12115.449356449984
4460.383634419013,13450.92111397207
4460.406830727867,14973.89634919647
4460.430027157354,16467.40404675327
4460.453223707474,17963.80232098305
4460.476420378228,19217.170397499365
4460.499617169617,20313.735834991592
4460.522814081641,21193.15843643397
4460.5460111143,21832.887447220342
4460.569208267598,22342.00304122194
4460.592405541532,22446.650524908644
4460.615602936104,22579.8989633933
4460.638800451314,22620.79677235089
4460.661998087163,22619.18125197379
4460.685195843652,22383.1238542102
4460.708393720782,22259.986098631012
4460.731591718552,22100.930414714185
4460.754789836965,21555.15484816316
4460.777988076019,21238.19108771102
4460.801186435716,20928.286431098782
4460.824384916057,20555.01091570957
4460.847583517042,20179.916133086386
4460.870782238671,19712.91326094801
4460.893981080947,19023.25224518986
4460.917180043868,18509.060536286812
4460.940379127435,17863.999307944636
4460.963578331651,17018.45189096297
4460.986777656513,15960.030347945201
4461.009977102025,15010.557745072092
4461.033176668186,13801.24530279463
4461.056376354995,12583.423844578167
4461.079576162457,11382.491474452525
4461.102776090568,10155.668170859488
4461.125976139332,8990.340951082084
4461.149176308748,8242.477640297226
4461.172376598816,7745.6049822680125
4461.195577009538,7484.139953048695
4461.218777540915,7474.008772914122
4461.241978192946,7438.57823082393
4461.265178965633,7575.219603267535
4461.2883798589755,7640.390702932749
4461.311580872974,8053.737376110101
4461.3347820076315,8425.656645105928
4461.357983262946,8549.272970114245
4461.381184638919,8687.338311442303
4461.404386135551,8404.247654825693
4461.4275877528435,7902.391761344783
4461.4507894907965,7489.970790864096
4461.4739913494095,6940.02720531328
4461.497193328685,6733.572069976796
4461.520395428623,6511.093143258208
4461.543597649224,6311.383397136519
4461.566799990488,6090.872497957769
4461.590002452416,5879.938376947768
4461.61320503501,5651.702345800799
4461.636407738269,5407.654392056491
4461.659610562193,5090.270891992931
4461.682813506784,5263.636896232081
4461.706016572044,5250.714526519761
4461.729219757971,5825.921079362717
4461.752423064566,6436.715607332089
4461.775626491831,7304.510752445151
4461.798830039766,8273.099572248431
4461.82203370837,9087.464120566157
4461.845237497647,9828.808023328675
4461.868441407595,10249.207558859129
4461.891645438215,10473.985794971568
4461.914849589509,10473.368484704426
4461.938053861475,10144.353019172424
4461.961258254117,9714.77417493448
4461.984462767433,9338.571053922486
4462.007667401424,8992.041160740446
4462.030872156092,8798.166107766287
4462.0540770314365,9008.055914035418
4462.077282027459,9417.965590964826
4462.100487144158,10196.000432337703
4462.123692381537,11349.912888975608
4462.146897739594,12197.60304754032
4462.170103218332,13087.06188668375
4462.19330881775,13892.425705167445
4462.21651453785,14217.902817565888
4462.239720378631,14258.11152970903
4462.262926340095,14361.184136762162
4462.286132422241,14162.930608462852
4462.309338625071,14050.955094614006
4462.3325449485865,13775.299620863392
4462.355751392785,13421.272550244199
4462.3789579576705,12974.264845677708
4462.402164643242,12448.458688656785
4462.4253714495,11935.598826050807
4462.448578376446,11685.230708668256
4462.471785424079,11766.15288583831
4462.494992592401,12143.093988817169
4462.518199881412,12850.092068307156
4462.541407291114,13891.768318967268
4462.564614821506,15313.4425680598
4462.587822472589,16547.315361603996
4462.611030244365,17654.275430628197
4462.634238136832,18540.742254853594
4462.657446149992,19151.7414815092
