wave,flux
5000.025812696027,45413.0748860896
5000.051815424163,44560.088828291766
5000.0778182875265,43345.51014699999
5000.103821286119,42185.99150641566
5000.12982441994,40662.81176373377
5000.155827688991,38773.35229857686
5000.181831093272,37253.12460000065
5000.207834632784,35260.58047841466
5000.2338383075285,33356.27544268692
5000.259842117506,31827.052555469512
5000.285846062716,30169.006118635378
5000.311850143161,29028.864149143843
5000.33785435884,27953.881908301297
5000.363858709754,27309.08285759857
5000.389863195905,27119.816854114048
5000.415867817292,27410.549936274903
5000.441872573917,28170.22557420886
5000.4678774657805,29436.19374649855
5000.493882492882,31032.560886991665
5000.519887655224,32771.046197271404
5000.545892952806,34452.894016477476
5000.571898385629,35667.08435695411
5000.597903953694,36817.4631580774
5000.623909657001,37094.39395095916
5000.649915495552,37027.24109858305
5000.675921469346,36872.673755361866
5000.701927578384,36335.36233257558
5000.727933822669,35489.37200196366
5000.7539402021985,34633.80336662301
5000.779946716975,33918.12949367347
5000.805953366999,33403.27503045388
5000.831960152272,33193.47974768584
5000.857967072792,33428.4851119726
5000.883974128563,34143.91287780535
5000.9099813195835,34919.88936515208
5000.935988645855,35489.143946531214
5000.961996107378,36193.08685420515
5000.988003704153,36880.41649195051
5001.014011436181,37288.03859816627
5001.040019303464,37925.00778932335
5001.066027306,38474.47511660134
5001.092035443791,39242.903083086414
5001.118043716839,40333.94453963385
5001.1440521251425,41103.05052352573
5001.170060668704,42258.91116676962
5001.196069347523,42932.023845594995
5001.222078161601,43135.29235510205
5001.248087110937,43081.699202405674
5001.274096195534,43083.6077561217
5001.300105415392,42721.02737505553
5001.326114770512,41960.84912538641
5001.352124260892,41602.274899333665
5001.3781338865365,41231.37859534233
5001.4041436474445,40740.423391388715
5001.430153543616,40389.262899677924
5001.456163575053,39758.02012450144
5001.482173741756,38812.82700007974
5001.508184043724,38193.12070593404
5001.534194480961,37192.014151587
5001.560205053464,36228.43231635692
5001.586215761236,35221.670666451144
5001.612226604278,34686.65541489691
5001.638237582589,33965.5070249631
5001.664248696171,33041.415398964105
5001.690259945024,31699.761884816453
5001.716271329149,30119.775396522273
5001.742282848547,28666.237781280408
5001.768294503218,26972.191668696127
5001.794306293164,25092.133476545085
5001.820318218383,23309.034134358877
5001.84633027888,22013.394778850256
5001.872342474651,21076.480441258638
5001.8983548056995,20496.244967988987
5001.924367272026,20561.279972273023
5001.9503798736305,21552.150652007833
5001.976392610514,23462.79711482572
5002.002405482678,26165.80900507982
5002.028418490122,29334.628498393904
5002.054431632847,32525.876398196757
5002.080444910854,35582.57446464072
5002.106458324142,38286.89929904766
5002.1324718727155,40723.42971772654
5002.158485556572,42552.70064232023
5002.184499375713,43646.85078619442
5002.210513330139,44674.38563153653
5002.236527419852,45373.832645488495
5002.262541644852,45613.33151578685
5002.288556005138,46030.14545143182
5002.314570500714,45804.989601832756
5002.340585131577,45717.75081628722
5002.36659989773,45180.08042526782
5002.392614799174,44934.89420931029
5002.418629835909,44547.01986279137
5002.444645007936,43867.101632340295
5002.4706603152545,43317.086038961206
5002.496675757866,42326.553746137324
5002.522691335772,41393.644766393605
5002.548707048972,40252.79291454217
5002.574722897468,38812.10521774657
5002.600738881259,37615.90774887893
5002.626755000347,36237.91815467552
5002.652771254732,34682.056000607336
5002.678787644415,33450.652073118035
5002.704804169397,32031.442116915237
5002.730820829678,30940.26883488722
5002.75683762526,29994.976940380297
5002.782854556142,29055.6914757918
5002.8088716223265,28737.4300480178
5002.834888823812,28406.812927018324
5002.860906160601,28825.325307920848
5002.886923632695,29708.156966729373
5002.912941240092,31679.87426259464
5002.938958982793,34256.13248746485
5002.9649768608015,36912.47512289992
5002.990994874116,39656.42640224189
5003.017013022737,42056.42101967191
5003.043031306666,43763.55676044959
5003.069049725905,45000.12351549443
5003.095068280452,45782.32087734547
5003.121086970309,46170.85323668378
5003.147105795477,46542.827925686375
5003.173124755956,46645.508480587785
5003.199143851748,46711.72289474811
5003.225163082852,46865.575542077706
5003.251182449269,46994.23358683373
5003.277201951001,46654.45124784111
5003.3032215880485,46936.20748824904
5003.32924136041,46732.70465556863
5003.35526126809,46591.12810839658
5003.381281311085,46380.064429524726
5003.407301489398,46306.13169176604
5003.433321803031,45961.87819777372
5003.459342251982,45640.13128431134
5003.4853628362525,45405.39945564163
5003.511383555844,44793.843834271014
5003.537404410757,44122.4833150059
5003.563425400991,43549.79310450474
5003.589446526548,42976.78986706369
5003.615467787429,42364.70221969961
5003.641489183634,41537.28518039809
5003.667510715163,40587.94592058843
5003.693532382018,39843.455402576816
5003.719554184199,39091.62059637718
5003.745576121707,38235.71623585447
5003.771598194542,37411.544877113905
5003.797620402706,36730.504348343675
5003.823642746199,36274.82973586258
5003.849665225021,36194.540584689006
5003.875687839174,36413.436626698
5003.901710588658,36831.344011698886
5003.927733473473,37008.296117599784
5003.953756493622,37106.48939928309
5003.979779649103,37207.790046685994
5004.005802939919,37067.055374024574
5004.031826366068,36672.530441741525
5004.057849927553,35913.961648539014
5004.083873624375,35678.174343577775
5004.109897456533,35244.41413427388
5004.135921424028,35845.07159814027
5004.161945526862,36438.70673245282
5004.187969765035,37345.644086343375
5004.213994138547,38437.44416829311
5004.240018647399,39770.87734195327
5004.266043291592,40650.91658870082
5004.292068071127,41365.77742002807
5004.318092986004,41688.8248620291
5004.344118036223,42288.71390556794
5004.370143221788,42590.482381177535
5004.396168542696,42713.88707537662
5004.422193998949,43117.05867389573
5004.448219590549,43748.92034414496
5004.474245317495,44199.87779243957
5004.500271179789,44511.51161875866
5004.52629717743,45502.665909252704
5004.5523233104195,46045.99978530938
5004.578349578759,46242.472223122895
5004.604375982449,46785.75775492613
5004.630402521489,46591.48713733479
5004.656429195881,46778.542014188744
5004.682456005625,46509.617611060545
5004.708482950721,46245.55820134471
5004.734510031172,46028.73817137298
5004.760537246977,45954.54390053273
5004.7865645981365,45462.06443409915
5004.812592084652,44913.23150692072
5004.838619706525,44124.84451096769
5004.8646474637535,43199.77861087419
5004.890675356341,42347.01699933536
5004.916703384286,41409.87868079312
5004.942731547591,40198.44051907943
5004.968759846256,38857.828837778936
5004.994788280281,37590.31269150599
5005.020816849668,36336.28674469629
5005.046845554417,35379.030539339285
5005.072874394528,34481.307863259666
5005.098903370003,33475.08182504125
5005.124932480842,32194.09186602424
5005.150961727047,31201.2086565979
5005.176991108617,30489.533117603612
5005.203020625552,29797.545509742777
5005.229050277856,29562.01459265466
5005.255080065526,30240.843309018135
5005.281109988566,31429.64843614114
5005.3071400469735,32912.87860832212
5005.333170240751,34721.292403202846
5005.3592005699,36546.466710544824
5005.38523103442,37650.44275207152
5005.411261634312,38125.78272885588
5005.4372923695755,38086.498120678574
5005.463323240213,37468.1544970535
5005.489354246225,36394.10682265049
5005.515385387611,34735.463475715354
5005.541416664373,33004.91087108765
5005.567448076511,31107.802010977277
5005.593479624025,29188.47438599578
5005.619511306918,27172.56217310746
5005.645543125189,25472.835162166768
5005.671575078838,23819.089399564888
5005.697607167867,21996.970975106615
5005.723639392277,20727.45536545812
5005.749671752068,19723.57571746295
5005.77570424724,19062.056281124842
5005.8017368777955,19186.974249111652
5005.8277696437335,19855.055375201027
5005.853802545055,20758.421633552814
5005.879835581762,21893.599655787835
5005.905868753854,22828.213829974015
5005.931902061331,23292.861499700557
5005.957935504196,23358.655949597
5005.983969082448,23014.51922251492
5006.010002796088,22324.07024624914
5006.036036645117,21116.920557440735
5006.062070629536,19650.77149466448
5006.088104749344,18735.15606851576
5006.114139004544,17573.634966996495
5006.140173395135,17027.17049826195
5006.166207921118,16954.776344118436
5006.192242582495,17857.884961996784
5006.218277379266,19474.895811690283
5006.244312311431,21971.367395274956
5006.270347378991,24767.942137497626
5006.296382581946,28306.955943067333
5006.322417920299,31423.006343441837
5006.348453394048,34797.809553038474
5006.374489003196,37684.72346786581
5006.400524747743,39891.00127874052
5006.426560627688,41842.004302724556
5006.452596643034,43215.47069881689
5006.47863279378,44251.99392264548
5006.504669079928,44847.740515345366
5006.530705501478,45011.17365634416
5006.556742058431,45351.043726790434
5006.582778750788,45345.49422848096
5006.608815578549,45468.73216547235
5006.634852541715,45340.55816531838
5006.660889640287,45441.51035632435
5006.686926874265,45360.98060409012
5006.71296424365,45373.26562007831
5006.739001748444,44954.39590211595
5006.765039388645,44963.619523734356
5006.791077164256,44732.419410839306
5006.817115075277,44345.21015877896
5006.843153121708,43804.16035481901
5006.869191303552,43223.3585459241
5006.895229620806,42564.98799545661
5006.921268073474,41599.004601403765
5006.947306661555,40405.57770656429
5006.97334538505,38957.475527660135
5006.999384243961,37214.986299387034
5007.025423238286,35414.834882001844
5007.051462368028,33470.453556644075
5007.077501633187,31213.833898253262
5007.103541033764,28927.38618099846
5007.129580569759,26807.05354108185
5007.155620241173,24778.81696004172
5007.181660048007,22666.477119036077
5007.207699990262,20881.604575049743
5007.233740067937,19578.19230971327
5007.259780281035,18553.10329515651
5007.285820629555,18487.892976583058
5007.311861113499,19188.61723163487
5007.337901732866,20553.201750465778
5007.363942487658,22663.561263147385
5007.389983377876,25472.96381138446
5007.41602440352,28552.430469326915
5007.442065564591,31598.533067340475
5007.468106861089,34838.76065141341
5007.494148293015,37574.464277967876
5007.520189860371,39641.85144853708
5007.546231563156,41218.030325873005
5007.572273401372,42190.58291293063
5007.598315375018,42945.24118714225
5007.624357484096,43235.73223636313
5007.650399728607,43151.51983398387
5007.676442108551,43344.73229959355
5007.702484623929,43018.743618459644
5007.728527274741,42857.05226576781
5007.754570060989,42930.451690690395
5007.780612982673,42422.501437200895
5007.806656039793,42848.21140074479
5007.832699232351,43017.45791087519
5007.858742560347,43869.87662046846
5007.884786023782,45314.56721203253
5007.910829622656,45986.62560395726
5007.936873356971,46792.32519327544
5007.962917226726,47552.063092391894
5007.988961231923,48078.60401522091
5008.015005372563,48386.03919529635
5008.041049648646,48541.44260964775
5008.067094060171,48562.05695413159
5008.0931386071425,48343.01385875336
5008.119183289558,48393.90951784611
5008.14522810742,48775.0052761337
5008.171273060728,48733.62678599362
5008.197318149483,48800.76377945301
5008.223363373687,49174.26688380336
5008.249408733339,49172.26492358751
5008.27545422844,49285.012717968624
5008.301499858992,49350.433133791885
5008.327545624995,49221.6335648838
5008.353591526448,48969.96055819429
5008.379637563355,49058.72221058502
5008.405683735714,48816.04607438298
5008.431730043527,48649.23413195485
5008.457776486794,48349.14151607282
5008.483823065515,48254.637707362446
5008.509869779693,47872.29892158898
5008.535916629327,47377.380553944146
5008.561963614418,47021.45919637046
5008.588010734968,46706.07518224172
5008.614057990975,46367.65149167856
5008.640105382442,46110.10114659021
5008.666152909369,46137.60450991864
5008.692200571756,46025.25506756176
5008.718248369605,46086.55927780736
5008.744296302916,46247.988649075814
5008.77034437169,46579.86738493859
5008.796392575927,47221.91734759698
5008.822440915628,47802.310315435214
5008.848489390794,48186.99410530855
5008.874538001426,48431.21924255093
5008.900586747524,48588.57703920106
5008.926635629089,48649.59757640902
5008.952684646122,49011.28078311705
5008.978733798623,49026.472531188374
5009.004783086593,48992.19129460811
5009.030832510033,48975.795702574
5009.056882068944,48861.750797218636
5009.082931763326,48697.94780789634
5009.108981593179,48792.97629137257
5009.135031558506,48872.046287583
5009.161081659306,48695.82469013044
5009.187131895579,48672.31825082417
5009.213182267327,48983.082654241894
5009.239232774552,48670.12200111072
5009.265283417251,48573.50678580988
5009.291334195428,48515.10173656277
5009.317385109083,48156.06183495943
5009.343436158216,47844.121025046894
5009.369487342828,47540.13353489058
5009.395538662919,47175.64747835607
5009.421590118491,46747.4708751874
5009.447641709544,46177.936690396455
5009.473693436078,45681.27515648964
5009.499745298095,45125.66121028411
5009.525797295596,44343.3179060405
5009.55184942858,43878.58082606002
5009.577901697049,43565.73494627436
5009.603954101003,43007.66031891348
5009.630006640443,42618.24227757331
5009.65605931537,42224.59771281457
5009.682112125784,41828.50978219155
5009.708165071686,41763.5215183943
5009.7342181530785,41547.30241120758
5009.760271369959,41885.63162299293
5009.78632472233,42197.96504536078
5009.812378210192,42382.921974394114
5009.838431833546,42605.21512084678
5009.864485592391,42506.79125953801
5009.890539486731,41907.415862736474
5009.916593516564,40986.497384117225
5009.942647681891,39976.74959131459
5009.968701982713,38784.96381238166
5009.994756419032,37537.82506646857
5010.020810990847,36007.51998196138
5010.046865698159,34395.09942095728
5010.072920540969,32933.13986150694
5010.098975519279,31757.059189965043
5010.125030633087,31022.445844127455
5010.151085882395,30678.800213711253
5010.177141267204,30665.75237524664
5010.2031967875155,30874.455757453143
5010.229252443328,31106.608135275797
5010.255308234644,31275.43809923751
5010.281364161464,32041.25226653638
5010.307420223788,33004.45138702869
5010.333476421617,34994.63719455143
5010.359532754951,37052.79121335216
5010.3855892237925,39328.84387524793
5010.4116458281405,41362.97309932269
5010.437702567997,43342.22488438894
5010.463759443362,45046.702322589874
5010.489816454236,46032.14064695603
5010.51587360062,47010.54824680833
5010.541930882514,47740.775745279345
5010.56798829992,47975.22474206532
5010.5940458528385,47876.198469564595
5010.62010354127,47710.12690275732
5010.646161365214,47435.547630961344
5010.672219324672,46947.062559687336
5010.698277419646,46213.83403139798
5010.724335650135,45428.59844386553
5010.7503940161405,44570.93901191536
5010.7764525176635,43333.624853441936
5010.802511154703,42178.02552671765
5010.828569927262,41203.70967963834
5010.85462883534,39877.056011738074
5010.880687878937,38708.52228212715
5010.906747058056,37957.93258613399
5010.932806372695,37139.16295515423
5010.958865822856,36515.274642128665
5010.98492540854,36279.9984837246
5011.0109851297475,36525.55835896275
5011.0370449864795,37480.80510134356
5011.063104978735,39039.089084977924
5011.089165106517,40692.085219140725
5011.115225369825,42876.60421253278
5011.14128576866,44524.986313283815
5011.167346303022,45724.498662295104
5011.193406972913,47052.408007746955
5011.219467778333,47692.570223922536
5011.2455287192815,47918.950041027936
5011.271589795761,48129.985598633415
5011.297651007772,48646.866312372884
5011.323712355315,48792.98570627254
5011.34977383839,48724.71815315439
5011.375835456999,48608.21606621713
5011.401897211142,48440.20842123906
5011.427959100819,48239.27420476294
5011.454021126031,48213.900633804304
5011.4800832867795,47906.70164470718
5011.506145583065,47441.11320856115
5011.532208014888,47058.97489703851
5011.558270582248,46496.63317556703
5011.584333285148,45805.18728755589
5011.610396123588,44827.01455990436
5011.636459097567,43873.04615268035
5011.662522207088,42938.97553908276
5011.68858545215,41594.175656641746
5011.714648832754,40428.84160051159
5011.740712348902,38638.00029360282
5011.766776000594,37229.78863227375
5011.79283978783,35627.00187195143
5011.818903710611,33863.390187292855
5011.844967768939,32069.853938117
5011.871031962813,30236.599549479928
5011.897096292234,28507.77026847421
5011.923160757203,26742.360001829
5011.949225357721,24951.943675699564
5011.975290093788,23023.530957110015
5012.001354965406,20945.55226758834
5012.027419972574,19058.500465666348
5012.053485115294,17122.47363232823
5012.079550393566,15749.074636098649
5012.105615807392,14994.706680122685
5012.13168135677,14939.579238871193
5012.157747041703,15447.115404883216
5012.183812862192,16711.831430051498
5012.209878818236,18598.40377792402
5012.235944909837,20631.80848515517
5012.262011136994,22885.90053524945
5012.28807749971,25265.011211394893
5012.3141439979845,27389.913263403647
5012.340210631818,28962.604136169444
5012.366277401212,30050.50416954573
5012.392344306166,30742.44020723942
5012.418411346682,31134.697809660927
5012.44447852276,31097.234031148815
5012.470545834401,30706.80638015993
5012.496613281605,30566.05870049313
5012.522680864374,30602.969237140984
5012.548748582707,31292.205020393078
5012.574816436606,32336.22941920115
5012.600884426071,33820.578602262874
5012.626952551104,35209.820407636624
5012.653020811705,36269.70497333572
5012.679089207873,37438.099292525694
5012.705157739611,38319.32890548928
5012.73122640692,38588.93536524493
5012.757295209798,39152.779813244175
5012.7833641482475,39953.144384406
5012.80943322227,40685.218068878945
5012.835502431864,42160.83386665174
5012.861571777033,43333.77569753663
5012.887641257775,44567.94505257958
5012.9137108740915,45612.8009351178
5012.939780625984,45951.24434626105
5012.965850513452,46091.56382843801
5012.991920536498,46277.50761643197
5013.017990695121,46000.15791491749
5013.044060989323,45349.288697579184
5013.070131419104,44510.83606429652
5013.096201984464,43591.955912552796
5013.122272685405,42702.081971944455
5013.148343521927,41388.06820893757
5013.17441449403,39932.553788555226
5013.200485601717,38562.453878504726
5013.226556844987,37028.501259321136
5013.2526282238405,35653.46655447968
5013.278699738279,34254.69242642325
5013.304771388303,32843.04104235153
5013.330843173913,31723.75106634336
5013.35691509511,30713.576023571914
5013.382987151894,30168.58318593491
5013.409059344267,29950.6741653732
5013.435131672228,30160.373476273944
5013.46120413578,30517.873158529284
5013.487276734921,30779.363423876694
5013.513349469653,30911.650554993492
5013.539422339977,30446.177731349144
5013.565495345894,29641.950921680593
5013.5915684874035,28852.37751417287
5013.617641764507,27288.988176290262
5013.643715177206,26210.086937759355
5013.6697887254995,25000.174978300514
5013.695862409389,23766.115952397708
5013.721936228875,23132.388034147923
5013.748010183958,23010.554764274937
5013.77408427464,23409.09494594794
5013.800158500921,24797.467781503594
5013.826232862801,26604.702352167114
5013.852307360281,28911.378984464864
5013.8783819933615,31117.75363244629
5013.904456762045,32837.11833059846
5013.930531666329,33907.45952407878
5013.956606706218,34804.59391779349
5013.982681881709,34631.62809099435
5014.008757192805,34026.051899683596
5014.034832639507,33201.41790078548
5014.060908221814,31929.313708060665
5014.086983939728,30536.5385449754
5014.113059793249,29034.813957692575
5014.139135782378,27203.616828324615
5014.165211907116,25245.304701810182
5014.1912881674625,23266.486519561724
5014.21736456342,21390.32431897995
5014.243441094988,20020.284665630035
5014.269517762167,19389.978665734765
5014.295594564959,19606.646984392075
5014.321671503363,20441.47369421861
