wave,flux
5000.025812696027,45080.845950058065
5000.051815424163,45040.35475654843
5000.0778182875265,45447.71666917608
5000.103821286119,46371.80087076015
5000.12982441994,47580.41509006029
5000.155827688991,49096.349380358195
5000.181831093272,50101.26853444676
5000.207834632784,51207.56282952776
5000.2338383075285,52150.579741807545
5000.259842117506,52443.84526914803
5000.285846062716,52388.23502549986
5000.311850143161,51810.65307838807
5000.33785435884,51433.30760051602
5000.363858709754,50465.48625340836
5000.389863195905,49495.75877741998
5000.415867817292,49067.625249895726
5000.441872573917,49000.22656087229
5000.4678774657805,49237.88522300952
5000.493882492882,49830.77162734368
5000.519887655224,50664.034187619895
5000.545892952806,51381.25606525347
5000.571898385629,51922.00733957045
5000.597903953694,52823.85636530706
5000.623909657001,53623.340082258284
5000.649915495552,54395.79844337512
5000.675921469346,54720.15393219932
5000.701927578384,55533.2239608487
5000.727933822669,56083.215590994536
5000.7539402021985,56546.40670060778
5000.779946716975,57081.04273987925
5000.805953366999,57552.106388546694
5000.831960152272,57709.623362839186
5000.857967072792,57747.244753514286
5000.883974128563,57569.570210708094
5000.9099813195835,57070.75240373791
5000.935988645855,56683.16294329048
5000.961996107378,56287.280085049184
5000.988003704153,55389.423789494256
5001.014011436181,54329.80502923837
5001.040019303464,53003.58239319479
5001.066027306,51728.8128006881
5001.092035443791,50021.22523295852
5001.118043716839,48506.682318822335
5001.1440521251425,47355.92073964311
5001.170060668704,46604.46821451776
5001.196069347523,46394.01750574447
5001.222078161601,46343.724298614135
5001.248087110937,46387.252420834535
5001.274096195534,46391.83039502578
5001.300105415392,46238.92945824539
5001.326114770512,45617.75307806211
5001.352124260892,44533.55147420486
5001.3781338865365,43257.87156737135
5001.4041436474445,41384.71727288708
5001.430153543616,39032.80541341226
5001.456163575053,36464.96794779222
5001.482173741756,34128.19950111691
5001.508184043724,32013.123887287667
5001.534194480961,30962.832250237585
5001.560205053464,30310.387419126724
5001.586215761236,30727.713360483434
5001.612226604278,31925.82289439469
5001.638237582589,34000.97634595178
5001.664248696171,36599.64844121972
5001.690259945024,39421.562789220035
5001.716271329149,42497.615845981956
5001.742282848547,45480.84011659583
5001.768294503218,48101.81382871611
5001.794306293164,50609.84394089626
5001.820318218383,52916.22361144666
5001.84633027888,54640.39011829046
5001.872342474651,56017.41741841674
5001.8983548056995,57506.847981546
5001.924367272026,58426.48018070949
5001.9503798736305,59387.334159306796
5001.976392610514,59787.32367075663
5002.002405482678,60402.870585978504
5002.028418490122,60568.59167736099
5002.054431632847,60324.22852226765
5002.080444910854,60456.657410165906
5002.106458324142,60510.90080198797
5002.1324718727155,60107.681655123495
5002.158485556572,59608.56478555459
5002.184499375713,59137.33176309182
5002.210513330139,58573.30635869388
5002.236527419852,57951.836980280306
5002.262541644852,57161.74627315453
5002.288556005138,55831.99354629475
5002.314570500714,54226.28393973891
5002.340585131577,52934.1430420661
5002.36659989773,51073.265411131455
5002.392614799174,49283.6512345442
5002.418629835909,47761.93362331554
5002.444645007936,46158.211213334296
5002.4706603152545,45542.74487138815
5002.496675757866,45435.73592818068
5002.522691335772,46189.21708619827
5002.548707048972,47204.160750973555
5002.574722897468,48632.52546968744
5002.600738881259,50579.339862323555
5002.626755000347,52401.08283824006
5002.652771254732,54093.352152355415
5002.678787644415,55621.36805683478
5002.704804169397,57056.655087858155
5002.730820829678,58394.41903437509
5002.75683762526,58797.253827278386
5002.782854556142,59518.66405225978
5002.8088716223265,60161.475924170736
5002.834888823812,60849.78591737194
5002.860906160601,61139.55820570125
5002.886923632695,61250.80948001689
5002.912941240092,61522.68847456365
5002.938958982793,61615.823528370274
5002.9649768608015,61626.490766402196
5002.990994874116,61797.50462591345
5003.017013022737,61800.74120340634
5003.043031306666,61695.31123828765
5003.069049725905,61690.929477540565
5003.095068280452,61493.34816848657
5003.121086970309,61269.23450439138
5003.147105795477,61248.758027309086
5003.173124755956,61010.15903405999
5003.199143851748,61038.02521050772
5003.225163082852,60979.202583508624
5003.251182449269,60697.66499439087
5003.277201951001,60314.97163389837
5003.3032215880485,60116.244675712645
5003.32924136041,59592.20278142655
5003.35526126809,59277.738351130356
5003.381281311085,58919.81088792054
5003.407301489398,58202.267096255004
5003.433321803031,57820.15304101921
5003.459342251982,57702.87632760693
5003.4853628362525,57513.58147305081
5003.511383555844,57160.74999076435
5003.537404410757,56895.053329084534
5003.563425400991,56698.2009540118
5003.589446526548,56219.34264100047
5003.615467787429,55778.541570080466
5003.641489183634,54822.12748389491
5003.667510715163,54098.621392899586
5003.693532382018,53600.76055635848
5003.719554184199,52677.688893732404
5003.745576121707,52653.55910805787
5003.771598194542,52900.646224125034
5003.797620402706,53208.884189946555
5003.823642746199,53756.28302010495
5003.849665225021,54222.250869687
5003.875687839174,54807.046427616064
5003.901710588658,55611.1564796055
5003.927733473473,56368.108342569416
5003.953756493622,57005.2384163538
5003.979779649103,57629.22589873322
5004.005802939919,58169.14198148275
5004.031826366068,58562.15643931401
5004.057849927553,58963.93320908755
5004.083873624375,59391.614202566016
5004.109897456533,59756.66537169627
5004.135921424028,60186.073111259175
5004.161945526862,60159.79464442199
5004.187969765035,60493.355397676845
5004.213994138547,60710.43498277301
5004.240018647399,61042.14615228628
5004.266043291592,61529.28429113352
5004.292068071127,61273.30670158548
5004.318092986004,61466.858929392
5004.344118036223,61617.139015459536
5004.370143221788,61674.93619622409
5004.396168542696,61486.15461640969
5004.422193998949,61248.834081796376
5004.448219590549,61218.584553514884
5004.474245317495,60792.47486270428
5004.500271179789,60296.20477057769
5004.52629717743,60177.20343009995
5004.5523233104195,59472.50275319531
5004.578349578759,58477.57950437433
5004.604375982449,57534.03330099244
5004.630402521489,56881.07511474895
5004.656429195881,55945.89402828971
5004.682456005625,54587.355447136215
5004.708482950721,52773.92732496521
5004.734510031172,51019.189725104035
5004.760537246977,49192.62624307369
5004.7865645981365,47154.03136806388
5004.812592084652,45567.56372309542
5004.838619706525,44381.55720980311
5004.8646474637535,44104.536274861
5004.890675356341,44620.259070957145
5004.916703384286,45403.31098817974
5004.942731547591,46556.91301572542
5004.968759846256,48295.072094345014
5004.994788280281,49944.701921005035
5005.020816849668,51069.62047851359
5005.046845554417,52019.218362964115
5005.072874394528,52320.796621812115
5005.098903370003,52778.44151035234
5005.124932480842,52593.418558791906
5005.150961727047,51614.427298772214
5005.176991108617,50650.89979059
5005.203020625552,48833.83027369535
5005.229050277856,46874.0549592649
5005.255080065526,44568.95368313056
5005.281109988566,41600.62694266837
5005.3071400469735,38744.61451404266
5005.333170240751,35888.03101951358
5005.3592005699,33791.81896542867
5005.38523103442,32333.797180540416
5005.411261634312,31439.87451391354
5005.4372923695755,31355.246685424492
5005.463323240213,31906.284230233665
5005.489354246225,32876.244285646324
5005.515385387611,33858.399600668934
5005.541416664373,34641.33099049926
5005.567448076511,35356.32838244037
5005.593479624025,35687.67826415493
5005.619511306918,35358.78342686645
5005.645543125189,34626.13467874293
5005.671575078838,32960.54441834692
5005.697607167867,31467.54114816958
5005.723639392277,29620.161324857174
5005.749671752068,28107.717477728293
5005.77570424724,26974.566223119185
5005.8017368777955,26630.926751092877
5005.8277696437335,26992.773848954766
5005.853802545055,28138.304524942138
5005.879835581762,30188.27560645832
5005.905868753854,32751.810616867897
5005.931902061331,35614.24715990388
5005.957935504196,38693.72301105361
5005.983969082448,41791.23502466056
5006.010002796088,44784.5065284458
5006.036036645117,47544.932744273305
5006.062070629536,50115.717369086735
5006.088104749344,52516.69137012167
5006.114139004544,54348.5837281894
5006.140173395135,55686.8865427285
5006.166207921118,56991.0902549238
5006.192242582495,57958.34449209331
5006.218277379266,58654.35863205342
5006.244312311431,59008.040638605125
5006.270347378991,59636.90231693065
5006.296382581946,60147.076820803064
5006.322417920299,59952.325724467846
5006.348453394048,59869.05761114619
5006.374489003196,60171.05911736649
5006.400524747743,60228.8875824615
5006.426560627688,60219.14746528174
5006.452596643034,59979.890442187956
5006.47863279378,59647.248638752535
5006.504669079928,59480.52818943177
5006.530705501478,59120.523427044194
5006.556742058431,58611.750340761624
5006.582778750788,57950.08680364041
5006.608815578549,57018.67499788812
5006.634852541715,56186.56081828276
5006.660889640287,55001.67574690243
5006.686926874265,53264.22850080581
5006.71296424365,51205.872044534815
5006.739001748444,49116.1865545898
5006.765039388645,46800.19149907137
5006.791077164256,43942.97941226191
5006.817115075277,40680.10415587384
5006.843153121708,37812.552599849965
5006.869191303552,35057.06333184071
5006.895229620806,33216.69351438989
5006.921268073474,31961.314893636776
5006.947306661555,31526.224995829532
5006.97334538505,31999.9763203935
5006.999384243961,33262.405032646806
5007.025423238286,35445.212194151
5007.051462368028,38183.09103704961
5007.077501633187,41046.90678743144
5007.103541033764,43879.20867807634
5007.129580569759,46497.59459489046
5007.155620241173,49041.66808473552
5007.181660048007,51390.772129746794
5007.207699990262,53271.80412945712
5007.233740067937,54873.82024115343
5007.259780281035,56294.86765436939
5007.285820629555,57207.978544076155
5007.311861113499,57683.222553180945
5007.337901732866,57496.36863088706
5007.363942487658,57655.7754378405
5007.389983377876,57966.65380362482
5007.41602440352,58303.35563609228
5007.442065564591,58457.57267908433
5007.468106861089,58975.870044348914
5007.494148293015,59546.696087245364
5007.520189860371,60022.35600583722
5007.546231563156,60379.86820533538
5007.572273401372,60619.88244084974
5007.598315375018,60985.8884838037
5007.624357484096,61580.89540253537
5007.650399728607,62045.04765784565
5007.676442108551,62061.37633705292
5007.702484623929,62178.9990513037
5007.728527274741,62550.06804989318
5007.754570060989,62400.454627340274
5007.780612982673,62574.010077365456
5007.806656039793,62907.46749625337
5007.832699232351,62712.21741987688
5007.858742560347,62614.445208565536
5007.884786023782,62879.684665010725
5007.910829622656,63195.37761083122
5007.936873356971,63113.96426842364
5007.962917226726,63270.91619979795
5007.988961231923,63150.92959703623
5008.015005372563,63053.804448969066
5008.041049648646,62967.28356774557
5008.067094060171,62856.7243314144
5008.0931386071425,62830.712515001556
5008.119183289558,62951.87882334508
5008.14522810742,62748.87023293988
5008.171273060728,62469.31799831045
5008.197318149483,62294.87354440345
5008.223363373687,61925.39773878702
5008.249408733339,61787.453362552296
5008.27545422844,61700.052066819655
5008.301499858992,61174.82407017949
5008.327545624995,61138.67263806702
5008.353591526448,61368.28748294205
5008.379637563355,61196.411599985375
5008.405683735714,61673.7379033075
5008.431730043527,61624.09171842167
5008.457776486794,61892.688092003176
5008.483823065515,61919.49394736302
5008.509869779693,62267.2011629795
5008.535916629327,62257.860595837454
5008.561963614418,62444.8051753121
5008.588010734968,62312.07848645584
5008.614057990975,62355.165821787254
5008.640105382442,62531.91622991174
5008.666152909369,62788.29602200513
5008.692200571756,62846.66541350124
5008.718248369605,62763.244153846616
5008.744296302916,62789.7095995745
5008.77034437169,62823.418027333995
5008.796392575927,62968.546845624434
5008.822440915628,62893.07063115419
5008.848489390794,62902.43000593197
5008.874538001426,63168.791975087974
5008.900586747524,62905.44442211852
5008.926635629089,62811.587585000045
5008.952684646122,62898.637400888256
5008.978733798623,62814.23476161017
5009.004783086593,63010.27460631905
5009.030832510033,62897.72504377523
5009.056882068944,62900.45616559062
5009.082931763326,62390.83262420948
5009.108981593179,62423.936982283645
5009.135031558506,62278.9745259249
5009.161081659306,62525.63362925352
5009.187131895579,62337.66510389235
5009.213182267327,61880.1763634703
5009.239232774552,61806.321561953984
5009.265283417251,61541.67131203205
5009.291334195428,61292.86816444199
5009.317385109083,61149.945516109416
5009.343436158216,60969.812019939345
5009.369487342828,60973.76688617185
5009.395538662919,60867.68037730872
5009.421590118491,60575.34535007181
5009.447641709544,60471.63429447503
5009.473693436078,60308.93372439146
5009.499745298095,60010.084543236466
5009.525797295596,59707.71887467172
5009.55184942858,59098.83381580007
5009.577901697049,58440.7254114935
5009.603954101003,57623.6056496224
5009.630006640443,56122.031977485916
5009.65605931537,54845.07527545102
5009.682112125784,53736.07576199093
5009.708165071686,52009.24212096509
5009.7342181530785,50886.30046626723
5009.760271369959,49150.04958562071
5009.78632472233,47574.815869394995
5009.812378210192,46103.17150213958
5009.838431833546,44560.177492581766
5009.864485592391,43909.92004190965
5009.890539486731,43471.425707358445
5009.916593516564,43680.85102036269
5009.942647681891,44732.070534389
5009.968701982713,45799.617927905034
5009.994756419032,47499.45857657547
5010.020810990847,49763.05699290543
5010.046865698159,51876.221970012906
5010.072920540969,53683.96687232589
5010.098975519279,55354.76719634263
5010.125030633087,57090.04897457867
5010.151085882395,58414.7017349337
5010.177141267204,59271.6257758279
5010.2031967875155,60145.46325604448
5010.229252443328,60840.88143297193
5010.255308234644,61335.40298300292
5010.281364161464,61532.99127093553
5010.307420223788,61702.876705203926
5010.333476421617,61751.81750247749
5010.359532754951,61838.20836867047
5010.3855892237925,61411.73225299708
5010.4116458281405,60858.47229402055
5010.437702567997,60489.04189966078
5010.463759443362,59471.66135961293
5010.489816454236,59018.4902975342
5010.51587360062,57631.45514375355
5010.541930882514,56690.6565850665
5010.56798829992,55788.488404654214
5010.5940458528385,54879.84934971202
5010.62010354127,54238.903442418756
5010.646161365214,54202.29526858515
5010.672219324672,54405.56603805055
5010.698277419646,55231.96616163666
5010.724335650135,56257.48780957851
5010.7503940161405,57209.019715914575
5010.7764525176635,58340.9745250737
5010.802511154703,59405.700509676455
5010.828569927262,59972.40816572548
5010.85462883534,60471.39792705215
5010.880687878937,61196.538431797235
5010.906747058056,61622.13984111766
5010.932806372695,61882.72080155754
5010.958865822856,62252.51664367137
5010.98492540854,62470.4691192886
5011.0109851297475,62622.32259797123
5011.0370449864795,62554.29912416054
5011.063104978735,62614.210244642476
5011.089165106517,62969.67328407162
5011.115225369825,62903.82717414361
5011.14128576866,62575.75198815693
5011.167346303022,62923.49764540435
5011.193406972913,62517.284279565654
5011.219467778333,62395.23312455601
5011.2455287192815,61994.56568364139
5011.271589795761,61550.54861430796
5011.297651007772,60915.13492305873
5011.323712355315,60699.300287602324
5011.34977383839,59833.29739467147
5011.375835456999,58832.79745920489
5011.401897211142,57685.340700144705
5011.427959100819,56565.62186364237
5011.454021126031,55075.880505598856
5011.4800832867795,53591.684914172234
5011.506145583065,51946.05392750818
5011.532208014888,49933.626815325646
5011.558270582248,47561.56590093037
5011.584333285148,44611.59593036229
5011.610396123588,41602.372203433195
5011.636459097567,38781.92814003503
5011.662522207088,35691.49134458375
5011.68858545215,32654.136957066705
5011.714648832754,30239.721444186915
5011.740712348902,28616.526378831302
5011.766776000594,27906.95633451473
5011.79283978783,27892.736561675905
5011.818903710611,28693.756338601346
5011.844967768939,30283.51589283166
5011.871031962813,32158.372919064677
5011.897096292234,35042.38092365588
5011.923160757203,37297.56797559029
5011.949225357721,39758.763180395035
5011.975290093788,41660.769835511994
5012.001354965406,43265.787674582265
5012.027419972574,44309.05118601557
5012.053485115294,45085.027223398305
5012.079550393566,45460.961164989676
5012.105615807392,46159.52500451262
5012.13168135677,46695.06676639835
5012.157747041703,47248.72476264784
5012.183812862192,48324.02966042854
5012.209878818236,49583.503658852525
5012.235944909837,50657.90485465375
5012.262011136994,51524.60583835734
5012.28807749971,52303.831592058
5012.3141439979845,53045.866793038855
5012.340210631818,53489.929485004686
5012.366277401212,53932.84805297978
5012.392344306166,54556.5262053261
5012.418411346682,55183.6561427701
5012.44447852276,55869.7394828859
5012.470545834401,56668.37416665065
5012.496613281605,57426.16210676639
5012.522680864374,58196.45930736112
5012.548748582707,59170.61702910268
5012.574816436606,59851.47847397842
5012.600884426071,60387.18909878859
5012.626952551104,60461.45086087895
5012.653020811705,60729.985777286034
5012.679089207873,60579.07469162482
5012.705157739611,60603.45172354915
5012.73122640692,60538.28109268477
5012.757295209798,59924.55334448467
5012.7833641482475,59372.010530772975
5012.80943322227,58783.66228296332
5012.835502431864,57566.20205192417
5012.861571777033,56211.331821257765
5012.887641257775,55182.56033097935
5012.9137108740915,53392.809608620606
5012.939780625984,51680.706136144625
5012.965850513452,50374.780828362724
5012.991920536498,49360.23774594826
5013.017990695121,48485.322098010634
5013.044060989323,47938.05888182708
5013.070131419104,47822.27835623347
5013.096201984464,47930.28513165504
5013.122272685405,47932.566056372525
5013.148343521927,47430.204934605914
5013.17441449403,46676.09966650322
5013.200485601717,45506.455462420345
5013.226556844987,43760.12157929911
5013.2526282238405,41647.22985801487
5013.278699738279,39405.142167261365
5013.304771388303,37467.43607454136
5013.330843173913,35673.46916921865
5013.35691509511,34289.04389582221
5013.382987151894,33950.22970880139
5013.409059344267,34342.61678877535
5013.435131672228,35608.86469291929
5013.46120413578,37546.13128657312
5013.487276734921,39750.311968862785
5013.513349469653,42036.89204356098
5013.539422339977,44343.3201891423
5013.565495345894,46286.925038790134
5013.5915684874035,48135.706618470576
5013.617641764507,49812.24408133643
5013.643715177206,50657.8176667254
5013.6697887254995,51456.54488615024
5013.695862409389,51446.12977914889
5013.721936228875,51087.98594657799
5013.748010183958,50425.84112680923
5013.77408427464,49023.944650223355
5013.800158500921,47369.89764297663
5013.826232862801,45262.882394198685
5013.852307360281,43011.69077683116
5013.8783819933615,40672.797579139034
5013.904456762045,39128.216283767564
5013.930531666329,38275.32918533474
5013.956606706218,38276.432315425365
5013.982681881709,38961.6345189033
5014.008757192805,40357.8108587057
5014.034832639507,42459.53982475237
5014.060908221814,44765.20351808039
5014.086983939728,46992.27208100157
5014.113059793249,49302.684505156074
5014.139135782378,51400.77259758592
5014.165211907116,53243.29777669227
5014.1912881674625,54530.7636951926
5014.21736456342,55494.12876196383
5014.243441094988,56276.96892247128
5014.269517762167,56630.959014995846
5014.295594564959,56544.50247978537
5014.321671503363,56175.10012514842
5014.347748577381,55525.163929799455
5014.373825787014,54472.80921527977
