wave,flux
4450.003811362098,34979.218924148736
4450.026953690486,31686.006011506113
4450.050096139227,28329.474136739944
4450.073238708321,25684.01482788654
4450.096381397769,22791.286152474284
4450.119524207569,20942.091908787632
4450.142667137726,18903.99138569639
4450.165810188237,17771.043886684834
4450.188953359103,16766.381975929202
4450.212096650326,16745.15829007682
4450.2352400619075,17130.035596364556
4450.258383593846,18262.84519402133
4450.281527246142,19909.051346487173
4450.304671018797,22082.64174893353
4450.327814911813,24390.438320355872
4450.350958925188,26929.323500560244
4450.374103058924,29293.26490938324
4450.3972473130225,31550.618711203046
4450.420391687483,33820.76213388803
4450.443536182305,35531.57617112535
4450.466680797492,37510.67903885843
4450.489825533042,39535.02334487077
4450.512970388957,41071.36070246394
4450.536115365237,42648.859267807835
4450.559260461882,43900.40664583887
4450.582405678895,44900.13283719773
4450.605551016274,46122.73473899108
4450.628696474022,47688.492083542944
4450.651842052138,49275.48560858106
4450.674987750623,50747.983560366236
4450.698133569476,52506.96183271764
4450.721279508702,54391.65072702228
4450.744425568297,55703.29465208444
4450.767571748264,56859.79078300889
4450.790718048604,57965.44302001657
4450.813864469315,59188.154657260304
4450.837011010401,59676.33715617313
4450.86015767186,59935.39178618446
4450.883304453694,60140.00435913701
4450.906451355903,60508.639902899275
4450.929598378489,60389.62637503484
4450.95274552145,59470.62378060595
4450.975892784789,59213.98608002873
4450.999040168505,58551.52989488744
4451.022187672601,57243.89671083037
4451.045335297074,56508.050252815636
4451.068483041929,55041.18544485097
4451.091630907163,53010.9105457778
4451.114778892777,51297.114597664695
4451.137926998774,49121.15179716008
4451.161075225153,46577.973228101066
4451.184223571914,43536.38706324153
4451.207372039059,40785.92859799887
4451.230520626587,38032.51246342698
4451.253669334501,35510.66876278524
4451.2768181628,34289.066370396955
4451.299967111485,33996.95530175966
4451.323116180556,34380.62516145053
4451.346265370014,35664.51358120077
4451.369414679861,37724.25107459928
4451.392564110095,40356.79457020487
4451.415713660719,43167.89781962329
4451.438863331732,45798.50415773569
4451.462013123136,48206.935468109245
4451.48516303493,50507.78254799649
4451.508313067117,52286.5757991745
4451.531463219695,53411.00119889889
4451.554613492666,54604.25477955611
4451.577763886031,55433.16814941283
4451.60091439979,55276.08186474194
4451.624065033943,54995.05142161821
4451.647215788492,55233.04662364652
4451.670366663436,54772.74451332792
4451.693517658777,54111.28442711349
4451.716668774516,53958.005280361496
4451.739820010652,54117.26436718293
4451.762971367186,54290.09254461774
4451.78612284412,54813.957278127746
4451.8092744414525,55431.343713930844
4451.832426159187,56171.556231415954
4451.855577997321,56974.262336825996
4451.878729955857,57742.829256913144
4451.901882034796,58484.70077839724
4451.925034234137,59249.30491912263
4451.948186553881,60019.3987062441
4451.97133899403,60312.681036683556
4451.994491554583,60560.66508659375
4452.017644235542,60941.752171399945
4452.040797036907,60702.54449238215
4452.063949958678,61068.32968773158
4452.087103000857,60984.08528752141
4452.1102561634425,60616.36575870407
4452.133409446437,60177.06743049906
4452.156562849841,59769.680236019754
4452.179716373655,59568.16057705805
4452.202870017878,59000.62269032139
4452.226023782513,58044.41590530448
4452.24917766756,57014.64245708863
4452.272331673018,55978.33793451073
4452.29548579889,55093.37485626874
4452.318640045174,54477.46513709556
4452.341794411874,53628.1360399862
4452.364948898987,52866.63716819
4452.388103506516,52684.31993377779
4452.4112582344615,52194.95493689716
4452.434413082823,51528.892971977715
4452.457568051602,51460.09565236718
4452.480723140799,52076.85900526987
4452.503878350413,52353.66227965123
4452.527033680448,53395.66326584546
4452.550189130902,53610.4935711836
4452.5733447017765,53567.308189542186
4452.596500393071,53526.04196038076
4452.619656204789,53343.89852926556
4452.642812136928,53264.25306978163
4452.66596818949,52563.08314844948
4452.689124362475,52105.47856294689
4452.7122806558855,51287.75880446511
4452.735437069719,51313.83701893925
4452.7585936039795,51334.33560741279
4452.781750258665,51767.922028393135
4452.804907033777,51889.71882167331
4452.828063929317,52161.886739387446
4452.851220945285,52588.84378879165
4452.87437808168,51934.76714266523
4452.897535338506,51632.37589795038
4452.92069271576,50724.60992618559
4452.943850213445,49641.881216742295
4452.967007831562,48732.80026287363
4452.99016557011,47334.17039596987
4453.01332342909,46971.824406547676
4453.036481408502,46710.4881030776
4453.059639508349,46537.336394049074
4453.08279772863,47399.514005489604
4453.105956069345,48914.34886460078
4453.129114530496,50496.280664250815
4453.152273112083,52031.2913580733
4453.175431814107,53410.369754455205
4453.198590636567,54629.5888360451
4453.221749579466,55354.25299735121
4453.244908642802,56024.525750435285
4453.268067826579,56679.651732594975
4453.291227130795,56816.52249096488
4453.314386555451,56685.06972686259
4453.337546100549,56353.923113597884
4453.360705766087,55876.522529568945
4453.3838655520685,55485.161638720325
4453.407025458493,55094.7783531039
4453.430185485361,54943.077032795496
4453.453345632673,55228.94989775174
4453.476505900429,55590.41760576474
4453.4996662886315,56116.3031950967
4453.52282679728,56695.52558433484
4453.545987426375,57096.18723387331
4453.569148175917,57741.20710427254
4453.592309045907,58353.48417631685
4453.615470036346,59183.37536649007
4453.638631147233,59638.65329319076
4453.661792378571,59885.3420572681
4453.684953730359,60088.28601792406
4453.708115202598,60192.75063215337
4453.731276795288,60136.05824803631
4453.754438508431,59911.194655196436
4453.777600342027,59439.5656166718
4453.800762296077,58655.42289015022
4453.82392437058,57972.92824436823
4453.847086565538,57111.97645643248
4453.870248880952,55362.77030710468
4453.8934113168225,53615.524875470626
4453.916573873149,51664.466378988014
4453.939736549933,49475.19217793776
4453.962899347174,46794.29286593339
4453.986062264875,43668.55721841713
4454.009225303034,40498.039535870565
4454.032388461654,37256.74404541459
4454.055551740734,34515.428827444586
4454.078715140275,31933.831221344797
4454.101878660277,30737.994472476
4454.125042300742,30272.438516851995
4454.14820606167,30261.33464970636
4454.171369943061,30828.784379024946
4454.194533944917,31538.072364273095
4454.2176980672375,32952.72148069239
4454.240862310024,33134.276975148176
4454.264026673275,32930.05328318885
4454.287191156994,32373.13207109288
4454.31035576118,31596.64034813892
4454.333520485834,29890.868714899527
4454.356685330957,27615.013413652086
4454.379850296548,25312.832602938797
4454.40301538261,23145.89548374124
4454.426180589142,20892.213383989965
4454.449345916145,19211.818725213245
4454.4725113636205,18023.814433228432
4454.495676931568,17349.218848456967
4454.5188426199875,17515.043306645686
4454.542008428882,18161.22432935683
4454.565174358249,19340.98561189641
4454.588340408092,20938.161605531353
4454.611506578411,22668.87981979817
4454.634672869205,24384.063870885067
4454.657839280476,25972.76846188335
4454.681005812225,27414.121309954407
4454.704172464451,28845.28001952882
4454.727339237156,30275.358288430343
4454.750506130341,31957.562407971796
4454.773673144005,33797.322284932496
4454.79684027815,35755.97940457852
4454.820007532776,37740.452309812004
4454.843174907884,39400.56905418562
4454.866342403473,40541.10449150641
4454.889510019546,40814.95974301762
4454.912677756102,40720.90277112016
4454.935845613144,40288.23513350285
4454.959013590669,39571.42692931442
4454.982181688681,39089.24252717635
4455.005349907178,38849.4829615903
4455.028518246162,39258.877553897604
4455.051686705633,40404.21605190381
4455.074855285593,41880.26295465902
4455.098023986041,43527.11619534739
4455.121192806979,45594.84809180362
4455.144361748406,47902.5342327265
4455.167530810323,50031.591191822066
4455.190699992732,51392.52950593072
4455.213869295633,52266.15750845061
4455.237038719026,53210.843553746214
4455.260208262912,53424.87407581205
4455.283377927292,53409.50585938992
4455.306547712166,53016.81733854679
4455.329717617535,51758.45993424521
4455.352887643399,50590.04290263162
4455.37605778976,49191.35292116014
4455.399228056617,47429.109944909214
4455.422398443972,45415.84043996128
4455.445568951825,42142.68220825356
4455.468739580177,39595.96124582857
4455.491910329028,35978.05142921872
4455.515081198378,33168.16056471168
4455.538252188229,30094.913121095226
4455.561423298582,28285.68592055007
4455.584594529436,26864.21170308242
4455.607765880793,26415.954992318522
4455.630937352652,27219.741707225796
4455.654108945016,28754.305349025428
4455.677280657883,30633.227215038423
4455.700452491255,33710.005081816475
4455.723624445134,36695.4924872614
4455.746796519518,39390.47541802841
4455.7699687144095,42439.399665942954
4455.793141029808,44844.23962076263
4455.816313465714,47300.069044851705
4455.83948602213,49268.656656320076
4455.862658699055,50690.40238511162
4455.885831496489,51274.111578892625
4455.909004414434,51417.47671801092
4455.932177452891,51197.02769274321
4455.955350611858,50523.00301176953
4455.978523891339,49281.45404049366
4456.001697291333,48306.63457120945
4456.024870811841,46880.49087647797
4456.048044452862,45738.525516444985
4456.071218214399,45038.425901033566
4456.094392096451,44753.098062803576
4456.117566099019,44673.35818225957
4456.140740222105,44449.744223127105
4456.163914465707,44590.54066560542
4456.187088829828,44936.48905834799
4456.210263314468,44878.34823093103
4456.233437919626,44198.091345412126
4456.256612645306,43213.70086643154
4456.279787491505,41659.70593590477
4456.302962458226,40275.23449154148
4456.326137545469,39700.53063892119
4456.349312753233,39286.53263151082
4456.372488081522,39432.69362795403
4456.395663530333,40868.42617777985
4456.41883909967,42401.038435356655
4456.442014789531,44096.84521361506
4456.465190599917,46494.68572006842
4456.488366530831,48691.86620337916
4456.5115425822705,50371.97814844683
4456.5347187542375,51772.31694094647
4456.557895046733,52994.93716137548
4456.581071459757,53461.48097140936
4456.604247993311,54050.37807994758
4456.627424647395,54530.651033043796
4456.650601422009,54674.080935279875
4456.673778317154,54322.94355845658
4456.696955332832,53914.65940235509
4456.720132469041,53992.414148604315
4456.7433097257845,53920.500129364445
4456.766487103061,53497.77699365557
4456.789664600872,53572.66432882018
4456.8128422192185,53904.30405382351
4456.8360199581,54449.05292682025
4456.859197817518,54861.04156303468
4456.882375797473,54873.790080761035
4456.905553897966,54640.592847381304
4456.928732118997,54183.97750187037
4456.951910460566,53431.16480209325
4456.975088922674,52402.93263145653
4456.998267505323,51018.68452341856
4457.021446208513,48793.00085330158
4457.044625032244,46337.897933847955
4457.067803976516,44164.95582546772
4457.090983041332,41729.63584015339
4457.1141622266905,39152.374257951655
4457.1373415325925,37219.971776227474
4457.160520959039,36205.53218621105
4457.183700506031,35737.1806636669
4457.206880173568,35859.960778368244
4457.230059961651,36551.04604843632
4457.2532398702815,37677.02522623194
4457.27641989946,39533.15384612658
4457.299600049186,41938.143903949705
4457.322780319461,44297.797452928164
4457.345960710286,46523.6295921252
4457.36914122166,48697.91977628359
4457.392321853586,50431.97837386496
4457.415502606062,52000.91059791847
4457.43868347909,53172.926416463
4457.461864472672,54227.04390499904
4457.485045586805,55421.33156693904
4457.508226821494,55617.32135168878
4457.5314081767365,55576.647331001506
4457.554589652534,55630.77092526019
4457.577771248887,55286.06987004078
4457.600952965797,54806.67060620509
4457.624134803263,54066.497046506214
4457.647316761288,52748.64488682593
4457.67049883987,51349.79587090682
4457.693681039011,49531.67238308624
4457.716863358712,47351.53358682088
4457.7400457989725,45331.46808419366
4457.763228359793,43311.89571499023
4457.7864110411765,41608.11823989083
4457.809593843121,40552.36907748573
4457.832776765628,39873.41483374575
4457.855959808699,39387.92763194205
4457.879142972333,39220.0096109177
4457.902326256532,39122.28059832932
4457.925509661296,39096.73382263296
4457.948693186626,39101.052458546495
4457.971876832522,39969.93634769068
4457.995060598985,41574.15576398437
4458.018244486016,42887.256271420076
4458.041428493615,44521.206741083595
4458.0646126217825,45904.18650072603
4458.08779687052,47328.56177802044
4458.110981239827,48224.55897089484
4458.134165729705,48861.442037210654
4458.157350340155,48880.03023988847
4458.180535071177,48835.44433048283
4458.203719922771,48736.09893157904
4458.226904894938,48939.72413693104
4458.2500899876795,49183.69452616963
4458.273275200995,49512.68882633162
4458.296460534886,50304.71948252809
4458.3196459893525,51311.886077161864
4458.342831564396,52798.21003709464
4458.366017260016,53691.22849391229
4458.389203076214,54517.355961567526
4458.4123890129895,55143.87612178534
4458.435575070344,55394.92025147294
4458.458761248279,55640.72874892508
4458.481947546794,55227.346260708975
4458.505133965889,54185.047089358355
4458.528320505566,52973.54756249783
4458.551507165825,51210.0552999072
4458.574693946666,49339.706798648396
4458.597880848091,46707.61825455949
4458.6210678701,43606.6806618833
4458.644255012693,40767.15872333973
4458.6674422758715,37299.738847711415
4458.690629659636,33621.92993146128
4458.713817163986,30079.971986577057
4458.737004788924,26870.99447368948
4458.76019253445,24109.64568881744
4458.783380400563,22187.21476937984
4458.8065683872655,20836.423662464145
4458.829756494558,20249.912780913335
4458.85294472244,20388.510767151893
4458.876133070914,21185.296948281186
4458.899321539979,22599.004466444097
4458.922510129635,24496.337320039307
4458.945698839884,26390.80166519738
4458.968887670727,28367.276832582465
4458.992076622164,30107.75560899937
4459.015265694195,31695.514216506428
4459.0384548868215,33259.52486695912
4459.061644200044,35477.44232854586
4459.084833633862,37467.979746848214
4459.108023188278,39597.91771807925
4459.131212863292,42347.873951299836
4459.154402658904,44970.74617076879
4459.177592575114,47250.91797684318
4459.200782611925,49804.355085403135
4459.223972769336,51844.40980638678
4459.247163047347,53200.82267041718
4459.27035344596,54584.24632276251
4459.293543965176,55412.710779085006
4459.316734604993,55530.19954903923
4459.339925365414,55880.581420044655
4459.363116246439,56026.18425961136
4459.386307248069,55516.697266958116
4459.409498370304,55186.71313434629
4459.432689613145,54629.304303778365
4459.455880976592,54529.20469443837
4459.479072460647,54252.69969314417
4459.502264065309,54175.105296017035
4459.52545579058,54974.081929170956
4459.5486476364595,55368.31660296968
4459.571839602949,56270.43287671359
4459.595031690048,56858.2449175544
4459.618223897759,57058.97708614621
4459.641416226081,57244.66704413278
4459.664608675014,57113.55421206874
4459.687801244561,56750.20162091582
4459.710993934721,55984.363501938795
4459.734186745496,55051.27779062732
4459.757379676885,53998.18309965702
4459.780572728889,52268.37523082969
4459.803765901509,50320.4563956668
4459.8269591947455,47858.10750785829
4459.850152608599,45061.12438265175
4459.87334614307,42741.44097699837
4459.89653979816,40976.59999551411
4459.91973357387,39097.112088947695
4459.942927470198,37876.00363854392
4459.966121487147,37757.94786831818
4459.989315624717,38350.74881956965
4460.0125098829085,39727.801433540284
4460.035704261722,41184.77518988647
4460.058898761158,43100.8099421627
4460.082093381218,45520.76440260614
4460.105288121902,47579.68380784838
4460.12848298321,49765.188374637604
4460.151677965145,51654.99949050822
4460.1748730677045,53217.585855896454
4460.198068290891,54996.140887627735
4460.221263634704,56279.59814727356
4460.244459099145,57310.34028926297
4460.267654684215,58438.775145529944
4460.290850389914,59020.774053533794
4460.314046216243,59181.11639055164
4460.337242163202,59373.806930907216
4460.360438230791,59632.12488855523
4460.383634419013,59659.92614983
4460.406830727867,59547.81579575146
4460.430027157354,59486.893787605695
4460.453223707474,59288.93691188471
4460.476420378228,59412.28081500967
4460.499617169617,59178.089731511805
4460.522814081641,58514.64203195052
4460.5460111143,58055.35626070414
4460.569208267598,57515.81194065795
4460.592405541532,56858.58122591302
4460.615602936104,55771.474666191694
4460.638800451314,54741.90684014948
4460.661998087163,53101.23701788805
4460.685195843652,51500.57590162807
4460.708393720782,49463.38741876827
4460.731591718552,47172.373719284034
4460.754789836965,44301.67775912947
4460.777988076019,41657.618509116975
4460.801186435716,39196.37661393802
4460.824384916057,37072.56367414265
4460.847583517042,35063.52570531758
4460.870782238671,33540.85176056501
4460.893981080947,32431.862193612153
4460.917180043868,31775.538880645647
4460.940379127435,31429.573927529458
4460.963578331651,31453.056473897374
4460.986777656513,31838.940747470155
4461.009977102025,31655.32538845731
4461.033176668186,31659.2820925862
4461.056376354995,31180.77680649728
4461.079576162457,30234.213949183897
4461.102776090568,29479.058394681575
4461.125976139332,28354.45071547908
4461.149176308748,27497.66557527081
4461.172376598816,27043.11009264158
4461.195577009538,26474.15907615287
4461.218777540915,26129.025218914558
4461.241978192946,25383.799793236274
4461.265178965633,24786.994195122665
4461.2883798589755,23921.672628833017
4461.311580872974,22875.34569448137
4461.3347820076315,21683.44595747083
4461.357983262946,21634.85793038849
4461.381184638919,21449.6756967433
4461.404386135551,22203.35071222914
4461.4275877528435,23615.02185612442
4461.4507894907965,25465.213868425853
4461.4739913494095,27391.814843247867
4461.497193328685,29659.27470584818
4461.520395428623,31303.575459091953
4461.543597649224,33081.00522882233
4461.566799990488,33979.25342134217
4461.590002452416,34330.529169315465
4461.61320503501,34002.57375328644
4461.636407738269,33249.98599777803
4461.659610562193,32265.019281367888
4461.682813506784,31364.80737568369
4461.706016572044,31303.447333744272
4461.729219757971,31569.31221312873
4461.752423064566,32435.29671181248
4461.775626491831,34459.49010132521
4461.798830039766,36654.97912884365
4461.82203370837,38792.9679617002
4461.845237497647,40968.88596335947
4461.868441407595,43342.99382401799
4461.891645438215,44713.364999408484
4461.914849589509,46385.601047392236
4461.938053861475,47234.227174876214
4461.961258254117,47999.00417223207
4461.984462767433,48448.63226344568
4462.007667401424,48354.63866868889
4462.030872156092,47754.65327262824
4462.0540770314365,47076.85648048865
4462.077282027459,45961.2748594253
4462.100487144158,44732.22658874925
4462.123692381537,43414.68969723388
4462.146897739594,42548.311429636145
4462.170103218332,42407.36737765146
4462.19330881775,42817.893829871064
4462.21651453785,43876.25948744285
4462.239720378631,45519.261696436
4462.262926340095,47457.68156105606
4462.286132422241,49207.9128715669
4462.309338625071,50774.96720662549
4462.3325449485865,52211.3942060307
4462.355751392785,53515.10899326925
4462.3789579576705,54368.638497689346
4462.402164643242,54934.300427604416
4462.4253714495,55659.18615022365
4462.448578376446,55709.01818988537
4462.471785424079,55592.681798779784
4462.494992592401,55305.369119872266
4462.518199881412,55089.25260414018
4462.541407291114,54446.345251906816
4462.564614821506,53295.09470891367
4462.587822472589,52432.98473311256
4462.611030244365,51442.230701915134
4462.634238136832,49980.392961557256
4462.657446149992,48364.233450962674
4462.680654283847,47433.48032720845
4462.703862538396,46575.913035823294
4462.727070913639,46245.585257885024
4462.750279409578,46787.45464694423
