wave,flux
5000.025812696027,56494.10178883898
5000.051815424163,57908.39485663637
5000.0778182875265,59413.92525828374
5000.103821286119,60764.112398321275
5000.12982441994,61878.12510651398
5000.155827688991,62753.7947157444
5000.181831093272,62746.378331336586
5000.207834632784,62186.19004591673
5000.2338383075285,61893.694618494555
5000.259842117506,60500.908023883145
5000.285846062716,59594.83894255097
5000.311850143161,58531.99121288965
5000.33785435884,58278.303904518725
5000.363858709754,58677.44572527092
5000.389863195905,58793.31307725987
5000.415867817292,59665.28415360066
5000.441872573917,60686.7825493412
5000.4678774657805,61344.23526319587
5000.493882492882,62090.79890831925
5000.519887655224,62995.997570070125
5000.545892952806,63940.24364817061
5000.571898385629,64823.744510480676
5000.597903953694,65480.88895847096
5000.623909657001,66261.48714106588
5000.649915495552,67040.24963848511
5000.675921469346,67552.92631700543
5000.701927578384,68276.68531549512
5000.727933822669,68783.16483004262
5000.7539402021985,68662.38268978077
5000.779946716975,68798.42808049466
5000.805953366999,68611.25480842363
5000.831960152272,68077.17214168973
5000.857967072792,67314.96062456374
5000.883974128563,66558.93835773846
5000.9099813195835,65644.20097736127
5000.935988645855,64286.05526169556
5000.961996107378,62473.149299275865
5000.988003704153,60408.84638002978
5001.014011436181,58396.686407699126
5001.040019303464,56273.54320219069
5001.066027306,55159.72566531858
5001.092035443791,54613.71578682619
5001.118043716839,54328.62014239071
5001.1440521251425,54831.11189749955
5001.170060668704,55222.674100987904
5001.196069347523,55398.7614497556
5001.222078161601,55413.24398564746
5001.248087110937,54661.547383295976
5001.274096195534,53405.761382247205
5001.300105415392,51754.15215456964
5001.326114770512,49294.33443855428
5001.352124260892,46268.68770445124
5001.3781338865365,43264.07428601975
5001.4041436474445,40564.42614195859
5001.430153543616,38484.469680036535
5001.456163575053,37135.451770403306
5001.482173741756,36651.160661989874
5001.508184043724,37648.128360128074
5001.534194480961,39295.63390726456
5001.560205053464,41986.9450167659
5001.586215761236,44975.974989832546
5001.612226604278,47996.041345849146
5001.638237582589,51305.24582758517
5001.664248696171,54840.398625925496
5001.690259945024,58097.764556083865
5001.716271329149,60738.059739826065
5001.742282848547,63175.10895963691
5001.768294503218,65178.552199641184
5001.794306293164,66554.68474296901
5001.820318218383,68045.01501104196
5001.84633027888,69436.27434810642
5001.872342474651,70299.11892712957
5001.8983548056995,70778.12760400522
5001.924367272026,71064.91806869359
5001.9503798736305,71741.37720601329
5001.976392610514,71665.0952990991
5002.002405482678,71679.41320988283
5002.028418490122,71368.41508132503
5002.054431632847,71127.02047320324
5002.080444910854,70935.85310314568
5002.106458324142,70502.51830446326
5002.1324718727155,69737.94166780755
5002.158485556572,69016.98627588243
5002.184499375713,68002.12495554484
5002.210513330139,66632.37693471779
5002.236527419852,65238.2996158411
5002.262541644852,63487.28614741979
5002.288556005138,61432.828411064445
5002.314570500714,58909.0927616761
5002.340585131577,57147.835896024015
5002.36659989773,55712.2475397732
5002.392614799174,54807.47018248212
5002.418629835909,54920.155839810155
5002.444645007936,56060.36643926941
5002.4706603152545,57453.48010733761
5002.496675757866,59081.46965504442
5002.522691335772,60790.679960557216
5002.548707048972,62752.68466368906
5002.574722897468,64773.783163080654
5002.600738881259,66380.49642455105
5002.626755000347,67742.85954539935
5002.652771254732,68891.57465419985
5002.678787644415,69778.06675574077
5002.704804169397,70678.05085595638
5002.730820829678,71180.96097184128
5002.75683762526,71564.19873468966
5002.782854556142,72219.15673178234
5002.8088716223265,72528.56234194897
5002.834888823812,72935.9706688089
5002.860906160601,72913.03112991095
5002.886923632695,72309.16977287136
5002.912941240092,72785.61389218464
5002.938958982793,73085.53343550018
5002.9649768608015,72847.96813008095
5002.990994874116,72595.12942063449
5003.017013022737,72444.91351689267
5003.043031306666,72324.33079233157
5003.069049725905,72398.12845324574
5003.095068280452,72563.00957798395
5003.121086970309,72390.33185055054
5003.147105795477,72040.98947171963
5003.173124755956,71986.42297526477
5003.199143851748,71859.59868901373
5003.225163082852,71274.81264658025
5003.251182449269,70611.28610137744
5003.277201951001,70449.90983821229
5003.3032215880485,69973.56168750011
5003.32924136041,69443.32108281885
5003.35526126809,69174.23574283812
5003.381281311085,68734.25422830721
5003.407301489398,68513.12788056927
5003.433321803031,68329.4623812564
5003.459342251982,68281.82094451065
5003.4853628362525,67740.70219952324
5003.511383555844,67131.85725842036
5003.537404410757,66316.66446038052
5003.563425400991,65171.139084616574
5003.589446526548,64512.18766842326
5003.615467787429,63805.797401439166
5003.641489183634,63259.24048799495
5003.667510715163,62813.630509085546
5003.693532382018,63114.95007912331
5003.719554184199,63147.505539745485
5003.745576121707,63831.1519525796
5003.771598194542,64563.44610371637
5003.797620402706,65218.288451789835
5003.823642746199,66256.3111765305
5003.849665225021,67041.71375865005
5003.875687839174,67622.05673281768
5003.901710588658,68337.36332263678
5003.927733473473,68737.75297928845
5003.953756493622,69199.39775972528
5003.979779649103,69588.01195268949
5004.005802939919,70002.39440183036
5004.031826366068,70840.89650691135
5004.057849927553,71204.47308750589
5004.083873624375,71272.8632173263
5004.109897456533,71927.86669175197
5004.135921424028,72179.77846850442
5004.161945526862,72388.96750290591
5004.187969765035,72471.93271136112
5004.213994138547,72951.94669772465
5004.240018647399,72689.85019773224
5004.266043291592,72662.03466836354
5004.292068071127,72769.82778928144
5004.318092986004,72821.32169300516
5004.344118036223,72796.6482841188
5004.370143221788,72436.69708961878
5004.396168542696,72140.43791537479
5004.422193998949,71937.86495100879
5004.448219590549,71467.71584494741
5004.474245317495,70567.40490325946
5004.500271179789,69772.50077699528
5004.52629717743,69088.17925720093
5004.5523233104195,68032.39500809656
5004.578349578759,66810.3108983003
5004.604375982449,64862.13396336752
5004.630402521489,63068.727904261556
5004.656429195881,60652.8817532374
5004.682456005625,58132.83825724359
5004.708482950721,55758.13676022908
5004.734510031172,54179.111347558006
5004.760537246977,52863.764033642365
5004.7865645981365,52702.156427376634
5004.812592084652,53158.41357258112
5004.838619706525,54450.8900984676
5004.8646474637535,56146.64946926756
5004.890675356341,57850.82135735778
5004.916703384286,59838.91888473939
5004.942731547591,61504.719363409225
5004.968759846256,62553.810217230406
5004.994788280281,63167.43649452816
5005.020816849668,63320.74357722607
5005.046845554417,63068.85110909854
5005.072874394528,62260.531368120974
5005.098903370003,61272.011517157356
5005.124932480842,58972.93975605645
5005.150961727047,56116.25450688971
5005.176991108617,53153.56152487571
5005.203020625552,49888.45173173093
5005.229050277856,46158.64061142259
5005.255080065526,43098.67667506457
5005.281109988566,40779.409381722064
5005.3071400469735,39119.41136823744
5005.333170240751,38528.77579310262
5005.3592005699,38730.899461284585
5005.38523103442,39591.46107423256
5005.411261634312,40979.71853286075
5005.4372923695755,42473.98740835744
5005.463323240213,43576.47958644862
5005.489354246225,44059.55964557222
5005.515385387611,44088.595133408955
5005.541416664373,43450.15957239366
5005.567448076511,41883.23988229866
5005.593479624025,40012.221679639944
5005.619511306918,37897.32439732739
5005.645543125189,35805.17376441825
5005.671575078838,33963.4038358831
5005.697607167867,32503.985579049255
5005.723639392277,32446.59989476307
5005.749671752068,33253.648956841134
5005.77570424724,35070.59028782785
5005.8017368777955,37626.76906860465
5005.8277696437335,40490.17207397448
5005.853802545055,44019.732517705015
5005.879835581762,47603.82683316705
5005.905868753854,51231.61410346693
5005.931902061331,54834.65666907601
5005.957935504196,58096.926718860246
5005.983969082448,60832.84804548533
5006.010002796088,63167.616912432604
5006.036036645117,65178.886953963694
5006.062070629536,66757.27694625081
5006.088104749344,68042.03862437479
5006.114139004544,68989.15528012902
5006.140173395135,69831.27571095896
5006.166207921118,70224.4875165447
5006.192242582495,70402.85262389753
5006.218277379266,70749.17279560519
5006.244312311431,70822.41646769886
5006.270347378991,71080.02592815341
5006.296382581946,71434.4195096329
5006.322417920299,71134.61672727151
5006.348453394048,71122.51492729725
5006.374489003196,70818.88574374633
5006.400524747743,70700.20378928089
5006.426560627688,70607.56035677737
5006.452596643034,70285.60436709401
5006.47863279378,69688.20881854804
5006.504669079928,68931.69701098677
5006.530705501478,68247.27065956852
5006.556742058431,67189.32235335367
5006.582778750788,65802.83539605644
5006.608815578549,64288.523000676585
5006.634852541715,61930.98505525754
5006.660889640287,59388.01239164262
5006.686926874265,56244.28265083805
5006.71296424365,52664.15765375916
5006.739001748444,48718.997229808374
5006.765039388645,45285.934754220536
5006.791077164256,42056.984652047744
5006.817115075277,40081.41255297434
5006.843153121708,38482.5389102294
5006.869191303552,38346.61673269493
5006.895229620806,39427.94704828475
5006.921268073474,41298.07516460849
5006.947306661555,43926.92614836218
5006.97334538505,46820.019464512894
5006.999384243961,49850.72419078504
5007.025423238286,53226.66362677928
5007.051462368028,56332.03412493282
5007.077501633187,59067.96993138198
5007.103541033764,61635.87112383512
5007.129580569759,63722.06077287886
5007.155620241173,65489.28431089207
5007.181660048007,66933.01025225659
5007.207699990262,67801.44508194832
5007.233740067937,68025.40600567876
5007.259780281035,68152.30027805865
5007.285820629555,68547.05181401246
5007.311861113499,68935.57254458294
5007.337901732866,68907.78101792496
5007.363942487658,68983.3761724383
5007.389983377876,69621.66596030327
5007.41602440352,70039.61508976093
5007.442065564591,71103.01998312045
5007.468106861089,71746.03252950388
5007.494148293015,72006.38743155835
5007.520189860371,72673.2398237963
5007.546231563156,72928.08423339282
5007.572273401372,73035.58953397207
5007.598315375018,73349.95715775272
5007.624357484096,73483.0218276803
5007.650399728607,73620.5960836253
5007.676442108551,73732.79242072036
5007.702484623929,73760.17086139838
5007.728527274741,73947.43383904811
5007.754570060989,73950.183571097
5007.780612982673,73992.33830566985
5007.806656039793,74248.71999749886
5007.832699232351,74391.3273867615
5007.858742560347,74274.75138887271
5007.884786023782,74522.82464794985
5007.910829622656,74572.05775468891
5007.936873356971,74434.72516775332
5007.962917226726,74418.9192027696
5007.988961231923,74704.17170185363
5008.015005372563,74434.01622535793
5008.041049648646,74318.38232792707
5008.067094060171,73978.93793226228
5008.0931386071425,74131.98435336827
5008.119183289558,73977.67801255532
5008.14522810742,73536.21375998961
5008.171273060728,73125.59576163771
5008.197318149483,72720.2551602115
5008.223363373687,72537.9746344302
5008.249408733339,72644.1018759387
5008.27545422844,72529.24613672901
5008.301499858992,72293.16874250774
5008.327545624995,72665.27022843307
5008.353591526448,72991.81786804335
5008.379637563355,72971.91201040501
5008.405683735714,73394.23878740397
5008.431730043527,73829.23630919131
5008.457776486794,73363.99363782819
5008.483823065515,73471.61286378036
5008.509869779693,73785.01037298818
5008.535916629327,73524.15571292085
5008.561963614418,73595.22123721616
5008.588010734968,73719.87688535725
5008.614057990975,73704.4256577305
5008.640105382442,73804.22256355184
5008.666152909369,74059.25703971171
5008.692200571756,74124.70557344
5008.718248369605,74217.25143545635
5008.744296302916,74238.07206154331
5008.77034437169,74085.6963626438
5008.796392575927,74045.43885107471
5008.822440915628,74160.94726216818
5008.848489390794,74372.91499169936
5008.874538001426,74439.41046803958
5008.900586747524,74146.81633088205
5008.926635629089,73929.4704452731
5008.952684646122,74072.04914693265
5008.978733798623,74158.19424867138
5009.004783086593,73957.11509188068
5009.030832510033,73977.62020594504
5009.056882068944,73907.78425215327
5009.082931763326,73713.84771273074
5009.108981593179,73575.9311556089
5009.135031558506,73283.53246219631
5009.161081659306,73267.74267444182
5009.187131895579,73131.18498057022
5009.213182267327,72949.90418963102
5009.239232774552,72713.33503208599
5009.265283417251,72552.57500850043
5009.291334195428,72441.61901767181
5009.317385109083,72164.17205065527
5009.343436158216,72042.34556706168
5009.369487342828,71987.23521931727
5009.395538662919,71830.43536170921
5009.421590118491,71508.34321007722
5009.447641709544,71079.77222678473
5009.473693436078,70396.4146194087
5009.499745298095,69496.37933785374
5009.525797295596,68377.4098608213
5009.55184942858,67004.2524179628
5009.577901697049,65687.08449768048
5009.603954101003,64157.37183533821
5009.630006640443,62306.938242179654
5009.65605931537,60480.26731608359
5009.682112125784,58621.64954205491
5009.708165071686,56518.53190693343
5009.7342181530785,54401.11125761901
5009.760271369959,52628.76385376581
5009.78632472233,51984.211627681034
5009.812378210192,51222.02696381953
5009.838431833546,51959.624046776895
5009.864485592391,53300.77504837288
5009.890539486731,55316.27664223585
5009.916593516564,57059.69953267908
5009.942647681891,59421.71995667553
5009.968701982713,61928.268974119455
5009.994756419032,63954.16522092426
5010.020810990847,65676.95097577137
5010.046865698159,67496.40962437204
5010.072920540969,69139.18931862277
5010.098975519279,70105.60095827605
5010.125030633087,70999.63113209033
5010.151085882395,71965.3763664714
5010.177141267204,72596.07873368303
5010.2031967875155,72974.03968014693
5010.229252443328,73236.78138920003
5010.255308234644,73377.01945699814
5010.281364161464,73118.01881276803
5010.307420223788,72641.5213806546
5010.333476421617,72224.40855036116
5010.359532754951,71702.65886736171
5010.3855892237925,70854.50505696394
5010.4116458281405,69905.47991673896
5010.437702567997,68669.81418357643
5010.463759443362,66819.79582916596
5010.489816454236,65998.87617053156
5010.51587360062,65498.88496859332
5010.541930882514,64793.84195324813
5010.56798829992,64847.009292143244
5010.5940458528385,65344.84315090525
5010.62010354127,66086.86821999989
5010.646161365214,66963.46116177525
5010.672219324672,68356.25872717598
5010.698277419646,69488.16859006409
5010.724335650135,70511.69302266442
5010.7503940161405,71014.02531827815
5010.7764525176635,71640.06849834252
5010.802511154703,72177.16954542034
5010.828569927262,72829.67989565524
5010.85462883534,73156.49245895499
5010.880687878937,73378.0565921068
5010.906747058056,73731.96421373951
5010.932806372695,73876.1927781131
5010.958865822856,74158.76034448773
5010.98492540854,74135.70473232788
5011.0109851297475,74355.35765739014
5011.0370449864795,74312.05674190278
5011.063104978735,74517.04556030798
5011.089165106517,74299.3185657674
5011.115225369825,74342.58039825225
5011.14128576866,73548.21144363932
5011.167346303022,73470.90184037077
5011.193406972913,72943.68710166676
5011.219467778333,72373.83630267507
5011.2455287192815,71523.3408897479
5011.271589795761,70755.85209739694
5011.297651007772,70158.99496216995
5011.323712355315,68894.68533148908
5011.34977383839,67604.03967334604
5011.375835456999,66157.56281683662
5011.401897211142,64595.28058845434
5011.427959100819,62626.61006873956
5011.454021126031,60222.62785904671
5011.4800832867795,57334.98433638284
5011.506145583065,54197.27115061475
5011.532208014888,50628.36235123454
5011.558270582248,46770.682354051794
5011.584333285148,42877.04412103024
5011.610396123588,39192.165338270286
5011.636459097567,36470.417121835955
5011.662522207088,34972.22248547999
5011.68858545215,34345.94329385767
5011.714648832754,34615.28327692576
5011.740712348902,35862.946624157994
5011.766776000594,37795.416341068565
5011.79283978783,40463.741574082494
5011.818903710611,43642.54912762211
5011.844967768939,46173.683141125395
5011.871031962813,48935.593190149564
5011.897096292234,50971.67083368757
5011.923160757203,52558.79423929112
5011.949225357721,53952.58107699689
5011.975290093788,54359.541602268386
5012.001354965406,55051.6918506915
5012.027419972574,55603.567199680685
5012.053485115294,56172.76460430689
5012.079550393566,57268.339798753914
5012.105615807392,58543.832282839605
5012.13168135677,60024.20293406387
5012.157747041703,61109.86573111937
5012.183812862192,62206.57425828576
5012.209878818236,62907.84240969095
5012.235944909837,63358.6879933696
5012.262011136994,63911.57794393106
5012.28807749971,64481.4413342439
5012.3141439979845,64943.34452037624
5012.340210631818,65594.24512389622
5012.366277401212,66730.09678090546
5012.392344306166,67755.99903292228
5012.418411346682,68563.97380382515
5012.44447852276,69365.98385486423
5012.470545834401,70107.41777011653
5012.496613281605,70573.03608576096
5012.522680864374,71021.63171983969
5012.548748582707,71684.89067226788
5012.574816436606,71756.6760738782
5012.600884426071,71802.95774192351
5012.626952551104,71796.41855204574
5012.653020811705,71498.49535866288
5012.679089207873,71457.43770206276
5012.705157739611,70655.1995947858
5012.73122640692,69982.68658237044
5012.757295209798,68589.91373601182
5012.7833641482475,66640.8122431846
5012.80943322227,65279.47573087089
5012.835502431864,63335.50641140279
5012.861571777033,61532.980351280916
5012.887641257775,60144.20949365268
5012.9137108740915,58959.41567152031
5012.939780625984,58608.903278106125
5012.965850513452,57903.28368253111
5012.991920536498,58107.60610385216
5013.017990695121,58093.33159899561
5013.044060989323,57728.15790485479
5013.070131419104,57005.199383822364
5013.096201984464,56062.016982386114
5013.122272685405,54467.54690510452
5013.148343521927,52322.32908816521
5013.17441449403,49498.00663710895
5013.200485601717,46526.58089221315
5013.226556844987,43915.496573972974
5013.2526282238405,42024.81127192989
5013.278699738279,41048.162129662036
5013.304771388303,40931.622639065754
5013.330843173913,41657.71142148146
5013.35691509511,43412.480646491036
5013.382987151894,46038.94784284466
5013.409059344267,48729.62586539372
5013.435131672228,51197.75827927612
5013.46120413578,53770.48372413804
5013.487276734921,56308.38632524359
5013.513349469653,58273.69201930522
5013.539422339977,60050.389848658466
5013.565495345894,61501.70644876777
5013.5915684874035,62300.118832655964
5013.617641764507,62657.883321146845
5013.643715177206,62131.4974502488
5013.6697887254995,61114.364923541936
5013.695862409389,59490.61588613822
5013.721936228875,57026.14888090676
5013.748010183958,54499.1717847978
5013.77408427464,51997.28040021149
5013.800158500921,49704.2210288454
5013.826232862801,47815.10356385743
5013.852307360281,47238.55418712203
5013.8783819933615,47387.78241373944
5013.904456762045,48488.17990816953
5013.930531666329,50177.89431808614
5013.956606706218,52409.79123709278
5013.982681881709,54863.97749970587
5014.008757192805,57521.89394429916
5014.034832639507,59792.382648552346
5014.060908221814,61926.168187086136
5014.086983939728,63843.88339427705
5014.113059793249,65479.55406987167
5014.139135782378,66691.89393653597
5014.165211907116,67348.11457427904
5014.1912881674625,67624.63496528253
5014.21736456342,67540.39827144628
5014.243441094988,67100.86548309572
5014.269517762167,66168.49662112027
5014.295594564959,65078.397000737525
5014.321671503363,63859.1859538545
5014.347748577381,61730.73448148174
5014.373825787014,58969.51971979069
5014.399903132261,56154.90904622072
5014.425980613125,52864.37799018025
