wave,flux
5000.025812696027,14287.304342143792
5000.051815424163,13332.850889289066
5000.0778182875265,12467.35066122856
5000.103821286119,11581.474216213928
5000.12982441994,10657.430350276067
5000.155827688991,9962.738645757334
5000.181831093272,9496.123731914673
5000.207834632784,9238.970303963624
5000.2338383075285,9356.99515267366
5000.259842117506,9881.495246856437
5000.285846062716,10795.333902253795
5000.311850143161,11839.139947607157
5000.33785435884,12988.231604652136
5000.363858709754,13892.938444756759
5000.389863195905,14702.971910505179
5000.415867817292,15027.755143322489
5000.441872573917,15188.285784457768
5000.4678774657805,15105.326610759832
5000.493882492882,14632.860440636365
5000.519887655224,13870.229773303809
5000.545892952806,13098.919087674625
5000.571898385629,12566.627060196724
5000.597903953694,12161.807571852149
5000.623909657001,11966.664749235691
5000.649915495552,12162.608488470114
5000.675921469346,12685.195149601566
5000.701927578384,12970.83021881919
5000.727933822669,13179.427996236658
5000.7539402021985,13445.329370389101
5000.779946716975,13489.901216969314
5000.805953366999,13516.021859089537
5000.831960152272,13531.37545059713
5000.857967072792,13709.501370104244
5000.883974128563,14097.661523966968
5000.9099813195835,14646.169623719496
5000.935988645855,15220.171119564908
5000.961996107378,15756.859254026038
5000.988003704153,16278.787409892868
5001.014011436181,16553.59056453292
5001.040019303464,16566.572885829104
5001.066027306,16430.03675771175
5001.092035443791,16418.373750780916
5001.118043716839,16363.522610506438
5001.1440521251425,16245.239350899117
5001.170060668704,16066.113184136255
5001.196069347523,15974.978737680223
5001.222078161601,15775.437729817908
5001.248087110937,15312.404881470784
5001.274096195534,14998.430860361295
5001.300105415392,14633.794071706167
5001.326114770512,14074.902837441921
5001.352124260892,13713.625924134794
5001.3781338865365,13686.89115664627
5001.4041436474445,13892.834104176494
5001.430153543616,14146.476999802233
5001.456163575053,14250.310681564211
5001.482173741756,14048.252132966687
5001.508184043724,13572.345572870223
5001.534194480961,12945.79090618971
5001.560205053464,12024.127150317021
5001.586215761236,11089.355748666276
5001.612226604278,10108.57346510446
5001.638237582589,8901.100374592796
5001.664248696171,7855.889867085159
5001.690259945024,7057.075090824216
5001.716271329149,6493.669637478553
5001.742282848547,6381.378883145667
5001.768294503218,6903.564202784633
5001.794306293164,7947.152594587413
5001.820318218383,9239.281130812764
5001.84633027888,10809.019922825559
5001.872342474651,12525.565511278102
5001.8983548056995,13640.44684221453
5001.924367272026,14604.394047636228
5001.9503798736305,15578.251991511555
5001.976392610514,16293.931738501551
5002.002405482678,16751.46875899071
5002.028418490122,17143.852162718944
5002.054431632847,17216.906026163655
5002.080444910854,17442.937118752452
5002.106458324142,17442.961643742594
5002.1324718727155,17363.303564603964
5002.158485556572,17298.258385261513
5002.184499375713,17225.54363967374
5002.210513330139,17214.89943744481
5002.236527419852,17023.520203436958
5002.262541644852,16893.60456471762
5002.288556005138,16692.132533344586
5002.314570500714,16322.838423636065
5002.340585131577,16063.791958351258
5002.36659989773,15908.147359694105
5002.392614799174,15611.146265576375
5002.418629835909,15043.273462950945
5002.444645007936,14667.485669401853
5002.4706603152545,14119.059020657574
5002.496675757866,13577.263869887356
5002.522691335772,12961.567561145825
5002.548707048972,12163.037155310763
5002.574722897468,11313.61624498598
5002.600738881259,10441.792342884537
5002.626755000347,9680.281113076247
5002.652771254732,9373.796725808794
5002.678787644415,9623.256264297586
5002.704804169397,10348.607294664029
5002.730820829678,11526.270755867929
5002.75683762526,12907.673478111656
5002.782854556142,14085.830518541765
5002.8088716223265,15296.032894182372
5002.834888823812,16143.452343961024
5002.860906160601,16892.989367785987
5002.886923632695,17142.614260772178
5002.912941240092,17305.476391784745
5002.938958982793,17496.26492709013
5002.9649768608015,17628.79023041407
5002.990994874116,17710.8966788371
5003.017013022737,17660.565599624955
5003.043031306666,17654.870342391478
5003.069049725905,17774.72885455458
5003.095068280452,17680.788168344618
5003.121086970309,17508.57279172797
5003.147105795477,17573.907962034602
5003.173124755956,17538.753066079615
5003.199143851748,17528.665939923212
5003.225163082852,17324.26519288843
5003.251182449269,17288.25686269733
5003.277201951001,17306.079556276385
5003.3032215880485,17067.911991251505
5003.32924136041,17026.632998440065
5003.35526126809,17041.23196682919
5003.381281311085,17016.306889427568
5003.407301489398,16848.18070825117
5003.433321803031,16666.42096934054
5003.459342251982,16308.154452181496
5003.4853628362525,15828.812984471535
5003.511383555844,15309.009234550273
5003.537404410757,14665.902101160686
5003.563425400991,14091.966507603402
5003.589446526548,13575.746740789216
5003.615467787429,13324.18120240766
5003.641489183634,13431.20600943628
5003.667510715163,13786.04021332528
5003.693532382018,14382.922032260243
5003.719554184199,14688.85763327049
5003.745576121707,14829.844699804635
5003.771598194542,14966.46507311699
5003.797620402706,14661.32611429328
5003.823642746199,14131.9734409627
5003.849665225021,13587.346628054485
5003.875687839174,13092.604300927534
5003.901710588658,12687.878133854041
5003.927733473473,12560.38963185273
5003.953756493622,12906.802951335603
5003.979779649103,13552.288730863009
5004.005802939919,14207.974146773786
5004.031826366068,14818.955503289399
5004.057849927553,15274.66824792814
5004.083873624375,15501.270293095253
5004.109897456533,15656.175054710337
5004.135921424028,15763.800069325447
5004.161945526862,15645.27947254745
5004.187969765035,15660.941286422963
5004.213994138547,15658.123694361855
5004.240018647399,15900.084719479388
5004.266043291592,16203.607634898206
5004.292068071127,16308.121525621542
5004.318092986004,16607.757802517634
5004.344118036223,16952.90748716062
5004.370143221788,17234.332680001087
5004.396168542696,17563.88414193828
5004.422193998949,17603.665818470447
5004.448219590549,17468.222664356374
5004.474245317495,17564.581271966894
5004.500271179789,17565.14692919015
5004.52629717743,17425.7172321598
5004.5523233104195,17451.044230423373
5004.578349578759,17701.60621241186
5004.604375982449,17260.73932426293
5004.630402521489,17238.32746426797
5004.656429195881,16982.848123248965
5004.682456005625,16741.952330854176
5004.708482950721,16394.430596176666
5004.734510031172,16068.524680617738
5004.760537246977,15598.512571215793
5004.7865645981365,15489.649760706998
5004.812592084652,15238.638985252128
5004.838619706525,14823.480395718341
5004.8646474637535,14458.930824806952
5004.890675356341,13945.054452980608
5004.916703384286,13173.420864433645
5004.942731547591,12167.145985804678
5004.968759846256,11235.715680311949
5004.994788280281,10586.842442911595
5005.020816849668,9984.174731614898
5005.046845554417,9954.643634579066
5005.072874394528,10457.478614222611
5005.098903370003,11218.19723546796
5005.124932480842,12504.69849405592
5005.150961727047,13760.531338435108
5005.176991108617,14706.061677857228
5005.203020625552,15429.455963591345
5005.229050277856,15684.268528494382
5005.255080065526,15633.606733598523
5005.281109988566,15441.806034359737
5005.3071400469735,15158.808791205402
5005.333170240751,14627.195066453378
5005.3592005699,13893.522061218482
5005.38523103442,13095.323945686105
5005.411261634312,12244.606998135827
5005.4372923695755,11307.419387356953
5005.463323240213,10245.891549887849
5005.489354246225,9102.588651715756
5005.515385387611,7986.327406976138
5005.541416664373,7181.211892315031
5005.567448076511,6627.824116894792
5005.593479624025,6587.187929518175
5005.619511306918,6892.145415586517
5005.645543125189,7765.386481737501
5005.671575078838,8671.188122262609
5005.697607167867,9559.05498774306
5005.723639392277,10287.09279537096
5005.749671752068,10586.947165310214
5005.77570424724,10633.478634719117
5005.8017368777955,10304.743428742642
5005.8277696437335,9596.910048111155
5005.853802545055,8753.818000011168
5005.879835581762,7799.586390173631
5005.905868753854,6790.887891488986
5005.931902061331,5918.316182397055
5005.957935504196,5384.13949576183
5005.983969082448,5290.862778470624
5006.010002796088,5500.921359781741
5006.036036645117,6170.682550172015
5006.062070629536,7260.340363794562
5006.088104749344,8763.937601515263
5006.114139004544,10206.267306123289
5006.140173395135,11715.638606546885
5006.166207921118,13105.39277045269
5006.192242582495,14488.199299105478
5006.218277379266,15342.707446580756
5006.244312311431,15968.140205723112
5006.270347378991,16499.374372087885
5006.296382581946,16835.18422372194
5006.322417920299,17039.3264131475
5006.348453394048,17162.97754764148
5006.374489003196,17182.666117702873
5006.400524747743,17058.364584923045
5006.426560627688,16984.160441635893
5006.452596643034,16971.09842494221
5006.47863279378,16834.17768694436
5006.504669079928,16822.490903073358
5006.530705501478,16910.121147427042
5006.556742058431,16835.966520816804
5006.582778750788,16865.418868991437
5006.608815578549,16804.993651609657
5006.634852541715,16760.956944208698
5006.660889640287,16781.142773317453
5006.686926874265,16682.997047045395
5006.71296424365,16514.825850882215
5006.739001748444,16237.077348087812
5006.765039388645,16071.56616185609
5006.791077164256,15628.809931302203
5006.817115075277,15267.155282918071
5006.843153121708,14777.763637460992
5006.869191303552,13979.495678258972
5006.895229620806,13119.996491075868
5006.921268073474,12239.693051700073
5006.947306661555,11181.996219627443
5006.97334538505,9987.903925690887
5006.999384243961,8709.330902330821
5007.025423238286,7499.326058374648
5007.051462368028,6625.624313828552
5007.077501633187,5958.031894948333
5007.103541033764,5685.918744761593
5007.129580569759,5979.333866276076
5007.155620241173,6537.921081502005
5007.181660048007,7691.6083301629105
5007.207699990262,9056.854318761449
5007.233740067937,10636.637595130513
5007.259780281035,12182.356510896536
5007.285820629555,13584.866859090489
5007.311861113499,14739.371099497994
5007.337901732866,15646.090141963643
5007.363942487658,16262.559830785507
5007.389983377876,16578.670886952725
5007.41602440352,16787.325071125928
5007.442065564591,16782.24129380366
5007.468106861089,16551.04474011479
5007.494148293015,16257.771328169585
5007.520189860371,15895.028184843346
5007.546231563156,15621.067981062377
5007.572273401372,15423.279048207933
5007.598315375018,15240.268484307542
5007.624357484096,15459.65702031756
5007.650399728607,15801.877621841517
5007.676442108551,16329.40566229161
5007.702484623929,16811.128527725497
5007.728527274741,17461.52865043932
5007.754570060989,17763.735823181396
5007.780612982673,17885.95686731539
5007.806656039793,17980.863195321657
5007.832699232351,18010.191176387692
5007.858742560347,18192.9312702215
5007.884786023782,17914.9010359514
5007.910829622656,18088.071584665897
5007.936873356971,18204.598390620115
5007.962917226726,18065.883080947966
5007.988961231923,18196.800084549737
5008.015005372563,18333.31080457368
5008.041049648646,18249.864855439504
5008.067094060171,18254.13948852865
5008.0931386071425,18322.823661487884
5008.119183289558,18310.36975200855
5008.14522810742,18408.85238033388
5008.171273060728,18524.816165379296
5008.197318149483,18459.957054805844
5008.223363373687,18515.394629379203
5008.249408733339,18442.753252361425
5008.27545422844,18353.347669108043
5008.301499858992,18272.980129488165
5008.327545624995,18219.702874836083
5008.353591526448,17782.33903401548
5008.379637563355,17703.65691637676
5008.405683735714,17420.54030991157
5008.431730043527,17249.3305112644
5008.457776486794,16980.609577637733
5008.483823065515,16919.665831734343
5008.509869779693,16864.10038470434
5008.535916629327,16841.532604901087
5008.561963614418,17015.48054630836
5008.588010734968,17322.262678071693
5008.614057990975,17748.490739747936
5008.640105382442,18032.069482854018
5008.666152909369,18119.108566342788
5008.692200571756,18164.591620753148
5008.718248369605,18172.100007398516
5008.744296302916,18248.359332543856
5008.77034437169,18337.41922712977
5008.796392575927,18336.338740300303
5008.822440915628,18264.375615101493
5008.848489390794,18152.37293250549
5008.874538001426,18160.653770338016
5008.900586747524,18227.998169370545
5008.926635629089,18172.967693016988
5008.952684646122,18206.03935250635
5008.978733798623,18377.89031807951
5009.004783086593,18392.89276598038
5009.030832510033,18238.692318959052
5009.056882068944,18319.923326947213
5009.082931763326,18150.40995038026
5009.108981593179,18280.110777257014
5009.135031558506,18289.899393762444
5009.161081659306,18241.47211073241
5009.187131895579,18128.022770375777
5009.213182267327,18010.945712074285
5009.239232774552,17890.309398011857
5009.265283417251,17739.58976026568
5009.291334195428,17569.16892868855
5009.317385109083,17329.668473682137
5009.343436158216,17147.126945849486
5009.369487342828,16988.969929828138
5009.395538662919,16658.878858605804
5009.421590118491,16247.9130334683
5009.447641709544,15863.237608464673
5009.473693436078,15598.890922307004
5009.499745298095,15402.156168837682
5009.525797295596,15340.497691266391
5009.55184942858,15477.791268380126
5009.577901697049,15894.182702802978
5009.603954101003,16313.487165125458
5009.630006640443,16693.33400960628
5009.65605931537,16847.55307792052
5009.682112125784,16779.334122194057
5009.708165071686,16672.048644902257
5009.7342181530785,16377.1981387758
5009.760271369959,16003.700393076255
5009.78632472233,15488.349855446082
5009.812378210192,14844.845302602573
5009.838431833546,14117.92006822666
5009.864485592391,13215.34662402044
5009.890539486731,12496.352788212556
5009.916593516564,12104.878447295858
5009.942647681891,11854.813469532126
5009.968701982713,11651.187781328375
5009.994756419032,11397.553135707678
5010.020810990847,11124.830638606241
5010.046865698159,10811.701713901093
5010.072920540969,10623.73071111468
5010.098975519279,10866.554928656578
5010.125030633087,11497.97527671058
5010.151085882395,12469.100871984598
5010.177141267204,13543.774515907879
5010.2031967875155,14613.325681820586
5010.229252443328,15695.543770794802
5010.255308234644,16545.50848670956
5010.281364161464,17017.263575135294
5010.307420223788,17676.863729505156
5010.333476421617,17887.667252146526
5010.359532754951,17966.26586851811
5010.3855892237925,18107.60466578507
5010.4116458281405,18196.239431730042
5010.437702567997,18219.171761135498
5010.463759443362,18135.66028035745
5010.489816454236,18048.787066985504
5010.51587360062,17975.008010923095
5010.541930882514,17873.582691097723
5010.56798829992,17573.39330344938
5010.5940458528385,17281.881921844775
5010.62010354127,16929.658402881752
5010.646161365214,16287.848262701393
5010.672219324672,15606.09851461693
5010.698277419646,14851.869582884778
5010.724335650135,14057.032295694811
5010.7503940161405,13348.855085418612
5010.7764525176635,12710.044996280785
5010.802511154703,12436.164653298649
5010.828569927262,12628.208076244167
5010.85462883534,13472.26778048197
5010.880687878937,14345.100615231604
5010.906747058056,15273.264149625864
5010.932806372695,16380.59575472051
5010.958865822856,17147.963734058678
5010.98492540854,17614.210823725152
5011.0109851297475,17777.279369152537
5011.0370449864795,17988.006311496956
5011.063104978735,18039.595331535762
5011.089165106517,18050.060699052447
5011.115225369825,18108.310148006804
5011.14128576866,18127.9471555619
5011.167346303022,18242.8551396831
5011.193406972913,18253.6775391409
5011.219467778333,18362.26936373541
5011.2455287192815,18446.37972798901
5011.271589795761,18440.96671131714
5011.297651007772,18280.62846383363
5011.323712355315,18063.424681880486
5011.34977383839,18052.743829690975
5011.375835456999,17949.206365661277
5011.401897211142,17614.710837159644
5011.427959100819,17323.503271101632
5011.454021126031,17075.12212607613
5011.4800832867795,16638.22122960505
5011.506145583065,16009.738318058373
5011.532208014888,15568.662927804962
5011.558270582248,15042.477059880894
5011.584333285148,14527.008063846992
5011.610396123588,13798.871343201085
5011.636459097567,13673.25172555267
5011.662522207088,13280.82449277534
5011.68858545215,12941.966398892417
5011.714648832754,12377.719105616048
5011.740712348902,11580.806715499506
5011.766776000594,10701.757261224537
5011.79283978783,9632.025041147763
5011.818903710611,8465.793100457142
5011.844967768939,7348.943331067335
5011.871031962813,6220.496711105721
5011.897096292234,5309.573074170899
5011.923160757203,4794.004547671125
5011.949225357721,4665.26929662375
5011.975290093788,4876.085319359003
5012.001354965406,5495.593339809418
5012.027419972574,6519.998810190211
5012.053485115294,7746.209743048258
5012.079550393566,8986.978286651669
5012.105615807392,10274.68182885747
5012.13168135677,11397.803382403607
5012.157747041703,12122.621378806894
5012.183812862192,12525.990551771454
5012.209878818236,12478.314780326937
5012.235944909837,12083.013222615251
5012.262011136994,11595.023473297359
5012.28807749971,11130.852334730067
5012.3141439979845,10963.196248119939
5012.340210631818,11303.447821201617
5012.366277401212,11771.318893138152
5012.392344306166,12538.832139089622
5012.418411346682,13274.173402078315
5012.44447852276,13787.127182508038
5012.470545834401,14133.875496115035
5012.496613281605,14040.639794032493
5012.522680864374,13995.16353171142
5012.548748582707,13938.459703173541
5012.574816436606,14024.975326651593
5012.600884426071,14180.7079968263
5012.626952551104,14783.794679876164
5012.653020811705,15598.053081394677
5012.679089207873,16361.360324360863
5012.705157739611,16959.220293002643
5012.73122640692,17337.01923260781
5012.757295209798,17567.186910070093
5012.7833641482475,17638.30124074383
5012.80943322227,17709.10810433338
5012.835502431864,17674.266991253087
5012.861571777033,17635.891129929696
5012.887641257775,17655.535431280343
5012.9137108740915,17344.903184241783
5012.939780625984,16975.626856529096
5012.965850513452,16635.023103199725
5012.991920536498,16082.922849500288
5013.017990695121,15455.201111597476
5013.044060989323,14626.892041397057
5013.070131419104,13824.168539756314
5013.096201984464,12849.228599083284
5013.122272685405,12037.456328231066
5013.148343521927,11276.37400761569
5013.17441449403,10793.077275192332
5013.200485601717,10918.57393498514
5013.226556844987,11359.712308169044
5013.2526282238405,12003.173785270046
5013.278699738279,12652.893700510374
5013.304771388303,13058.945330873232
5013.330843173913,13333.140067514689
5013.35691509511,13275.254775715399
5013.382987151894,12749.790768181323
5013.409059344267,12058.5754681125
5013.435131672228,11023.703354309539
5013.46120413578,10106.562457038082
5013.487276734921,9091.13629696673
5013.513349469653,8211.813207610263
5013.539422339977,7614.828673261502
5013.565495345894,7518.087315315621
5013.5915684874035,7871.084567571036
5013.617641764507,8648.902363478523
5013.643715177206,9786.628920557718
5013.6697887254995,11056.56164869379
5013.695862409389,12306.447493322052
5013.721936228875,13216.364891219526
5013.748010183958,13729.447699778648
5013.77408427464,14046.177559473676
5013.800158500921,14214.56856456015
5013.826232862801,14234.833210181681
5013.852307360281,14146.037931263794
5013.8783819933615,13810.405084684218
5013.904456762045,13201.014419601086
5013.930531666329,12450.517004919891
5013.956606706218,11314.298134914856
5013.982681881709,10008.303349572641
5014.008757192805,8804.350533509187
5014.034832639507,7629.94817095188
5014.060908221814,6653.337418047125
5014.086983939728,6145.956801952549
5014.113059793249,6127.272034952898
5014.139135782378,6448.1281625075635
5014.165211907116,7286.638247204367
5014.1912881674625,8548.846485095182
