wave,flux
4450.003811362098,35666.30947285155
4450.026953690486,32100.01618535607
4450.050096139227,29037.410539718963
4450.073238708321,25872.23373866848
4450.096381397769,23688.29980565718
4450.119524207569,21970.45541309804
4450.142667137726,21203.088667641543
4450.165810188237,21255.795358075145
4450.188953359103,22170.056371842584
4450.212096650326,23701.044488118285
4450.2352400619075,25904.98100108547
4450.258383593846,28912.68480626222
4450.281527246142,31871.878076661123
4450.304671018797,34838.22554684489
4450.327814911813,38081.51718031909
4450.350958925188,41115.89229456204
4450.374103058924,43480.0072499809
4450.3972473130225,46039.761320107325
4450.420391687483,48501.96706115232
4450.443536182305,50592.288563246584
4450.466680797492,52922.034254178216
4450.489825533042,54529.80230888673
4450.512970388957,55747.13500297296
4450.536115365237,57209.45132076418
4450.559260461882,58624.820703818994
4450.582405678895,60351.540776091686
4450.605551016274,62071.21922029212
4450.628696474022,63867.288236678374
4450.651842052138,65991.80606930688
4450.674987750623,68121.40188969874
4450.698133569476,69803.34628924234
4450.721279508702,71282.82020999202
4450.744425568297,72854.15494506742
4450.767571748264,73703.37486390823
4450.790718048604,74710.62969586805
4450.813864469315,75287.35605205367
4450.837011010401,75190.39078108623
4450.86015767186,75332.26875380873
4450.883304453694,75352.43811184188
4450.906451355903,75051.94642400269
4450.929598378489,74372.79636023726
4450.95274552145,73557.49936950264
4450.975892784789,72544.6635628543
4450.999040168505,71322.18631749296
4451.022187672601,69249.93417925572
4451.045335297074,67423.35684810282
4451.068483041929,65016.34923246652
4451.091630907163,61702.088176298574
4451.114778892777,58501.08436354347
4451.137926998774,54873.09673041101
4451.161075225153,51460.614292678976
4451.184223571914,47808.63288378781
4451.207372039059,44895.05341740627
4451.230520626587,43034.12040974495
4451.253669334501,42925.16296144529
4451.2768181628,43769.55179737933
4451.299967111485,45534.192057123575
4451.323116180556,48214.71105348651
4451.346265370014,51483.76824980256
4451.369414679861,54963.49587664914
4451.392564110095,58029.57545253647
4451.415713660719,60911.23134976282
4451.438863331732,63627.77526320128
4451.462013123136,65708.62122833214
4451.48516303493,67263.3673974331
4451.508313067117,68705.56835931809
4451.531463219695,69316.3756991685
4451.554613492666,69834.2743407869
4451.577763886031,69563.94558885676
4451.60091439979,68660.37699905582
4451.624065033943,68476.76484143712
4451.647215788492,68329.91530714619
4451.670366663436,67876.48819719737
4451.693517658777,67935.72847584287
4451.716668774516,68310.4102327018
4451.739820010652,68938.68813183173
4451.762971367186,69753.23207625402
4451.78612284412,70859.98725543861
4451.8092744414525,71484.06677771863
4451.832426159187,72305.21078798552
4451.855577997321,72947.4661526659
4451.878729955857,74456.67419502615
4451.901882034796,75119.489251893
4451.925034234137,75305.19735236805
4451.948186553881,75440.7586007847
4451.97133899403,76019.46410677921
4451.994491554583,76413.20126732675
4452.017644235542,76197.74172216655
4452.040797036907,76236.68944896848
4452.063949958678,75559.57456680386
4452.087103000857,75138.69202679259
4452.1102561634425,75163.13458969971
4452.133409446437,74785.61360798878
4452.156562849841,73917.01411095253
4452.179716373655,72887.72728322746
4452.202870017878,71644.11307174576
4452.226023782513,70149.91914275789
4452.24917766756,69216.26560986285
4452.272331673018,68513.45922195095
4452.29548579889,67441.87799618651
4452.318640045174,66617.50842040028
4452.341794411874,66119.24061123472
4452.364948898987,65653.6853476329
4452.388103506516,65352.21723909345
4452.4112582344615,65452.018385440664
4452.434413082823,65739.63060424526
4452.457568051602,66079.86500600551
4452.480723140799,66885.71641757565
4452.503878350413,67597.42464549729
4452.527033680448,67896.15413114148
4452.550189130902,67901.8845729179
4452.5733447017765,67432.45273987965
4452.596500393071,66637.44461745137
4452.619656204789,65920.60784929265
4452.642812136928,65296.29516080044
4452.66596818949,64594.83612022391
4452.689124362475,64887.62479600313
4452.7122806558855,65319.387271572676
4452.735437069719,65611.0042581087
4452.7585936039795,65904.7886859991
4452.781750258665,66317.82288326375
4452.804907033777,65821.34130646833
4452.828063929317,65669.23681187842
4452.851220945285,65499.453690164766
4452.87437808168,64327.250803728915
4452.897535338506,63385.21594007941
4452.92069271576,61812.79681112797
4452.943850213445,59790.67985281581
4452.967007831562,59121.30635073103
4452.99016557011,58695.66828156038
4453.01332342909,58972.71683534319
4453.036481408502,60104.70976403807
4453.059639508349,61993.92641751904
4453.08279772863,63620.40132920907
4453.105956069345,65152.44646768099
4453.129114530496,67162.27819826122
4453.152273112083,68626.17877043496
4453.175431814107,69790.86459832928
4453.198590636567,70595.04805959086
4453.221749579466,71297.66655767596
4453.244908642802,71503.267102026
4453.268067826579,71068.70230399091
4453.291227130795,70691.71475643716
4453.314386555451,69960.34043216321
4453.337546100549,69483.20310722923
4453.360705766087,69378.1369503627
4453.3838655520685,68960.77412963584
4453.407025458493,68902.93678833735
4453.430185485361,69773.12716457479
4453.453345632673,70698.27690472976
4453.476505900429,71196.46739748327
4453.4996662886315,71979.15697445109
4453.52282679728,72798.40628830993
4453.545987426375,73303.25283652221
4453.569148175917,73876.60786387292
4453.592309045907,74523.81262329474
4453.615470036346,74890.04521596721
4453.638631147233,74842.43508660595
4453.661792378571,74900.65237726051
4453.684953730359,74957.70136320732
4453.708115202598,74811.06492000444
4453.731276795288,74520.23739467788
4453.754438508431,73540.14415190768
4453.777600342027,73096.27033699922
4453.800762296077,71967.14535886269
4453.82392437058,70367.94349533257
4453.847086565538,68324.86483049588
4453.870248880952,65413.22574135924
4453.8934113168225,62915.19315203126
4453.916573873149,59762.748075546166
4453.939736549933,55577.378954250176
4453.962899347174,51298.984183669694
4453.986062264875,47349.027455898744
4454.009225303034,43739.48164330956
4454.032388461654,40712.215387267555
4454.055551740734,39343.64638488711
4454.078715140275,38932.73889340035
4454.101878660277,39355.202577216965
4454.125042300742,40065.66592935098
4454.14820606167,41468.843512335974
4454.171369943061,42434.818275061465
4454.194533944917,42940.21218284265
4454.2176980672375,42881.62882137662
4454.240862310024,42101.92174144674
4454.264026673275,40622.535283744706
4454.287191156994,38127.10417108241
4454.31035576118,35148.13979007223
4454.333520485834,32698.211415500453
4454.356685330957,29569.083379785647
4454.379850296548,26743.67835852352
4454.40301538261,24547.37250739623
4454.426180589142,23172.882233629236
4454.449345916145,22570.24616107331
4454.4725113636205,22633.253798536003
4454.495676931568,23851.930291099612
4454.5188426199875,25434.78816217894
4454.542008428882,27466.331201590205
4454.565174358249,29661.806265394294
4454.588340408092,31808.423421356623
4454.611506578411,33754.236139239416
4454.634672869205,35208.1392321877
4454.657839280476,36878.675970080934
4454.681005812225,38874.54101858737
4454.704172464451,40888.354183391864
4454.727339237156,43403.39064965079
4454.750506130341,45997.222407821864
4454.773673144005,48221.18106515446
4454.79684027815,50167.69270334912
4454.820007532776,51619.17983354724
4454.843174907884,52120.22750866123
4454.866342403473,51801.86136842574
4454.889510019546,50924.80278429486
4454.912677756102,50004.49420752486
4454.935845613144,49251.76382846261
4454.959013590669,48984.69697412149
4454.982181688681,49817.781798957534
4455.005349907178,50955.23249728489
4455.028518246162,52859.377939585946
4455.051686705633,55287.833126783924
4455.074855285593,57945.96259816413
4455.098023986041,60646.73693547467
4455.121192806979,62946.76561370931
4455.144361748406,64810.203586493946
4455.167530810323,66507.4353240196
4455.190699992732,67417.67726954036
4455.213869295633,68011.17843130385
4455.237038719026,67575.07300715159
4455.260208262912,66706.15468030718
4455.283377927292,66114.2447238877
4455.306547712166,64350.40004688783
4455.329717617535,62892.614987486944
4455.352887643399,60041.877451718814
4455.37605778976,57402.17705532587
4455.399228056617,53679.28375172709
4455.422398443972,49599.238089454055
4455.445568951825,45605.66165032194
4455.468739580177,41743.28998892476
4455.491910329028,38399.71723308112
4455.515081198378,35898.34359907711
4455.538252188229,34223.34080620878
4455.561423298582,33693.43392993366
4455.584594529436,34618.20979691972
4455.607765880793,36809.06857639587
4455.630937352652,39527.12370496543
4455.654108945016,43454.860539536465
4455.677280657883,46974.88648635953
4455.700452491255,50393.844968983285
4455.723624445134,53969.60626934847
4455.746796519518,57468.14566212954
4455.7699687144095,59899.79841345542
4455.793141029808,62228.1091804741
4455.816313465714,63712.29836508861
4455.83948602213,65002.245540455726
4455.862658699055,65432.38766837891
4455.885831496489,64971.57282065611
4455.909004414434,63968.512475616124
4455.932177452891,62937.45159019115
4455.955350611858,61004.24499556009
4455.978523891339,59389.008662348664
4456.001697291333,58361.71334906411
4456.024870811841,57474.75351553339
4456.048044452862,57038.879026845694
4456.071218214399,57323.26413349509
4456.094392096451,57214.73145876342
4456.117566099019,56737.180205209595
4456.140740222105,57115.95900217238
4456.163914465707,56972.83915295649
4456.187088829828,56040.360631718555
4456.210263314468,54032.58610413626
4456.233437919626,52388.295492381665
4456.256612645306,50791.187591294714
4456.279787491505,50021.3172913742
4456.302962458226,49212.85205784355
4456.326137545469,49735.898698830184
4456.349312753233,51576.45893773689
4456.372488081522,53595.48519394687
4456.395663530333,55678.002475471076
4456.41883909967,58261.32213897624
4456.442014789531,60968.11528546462
4456.465190599917,63090.4776289923
4456.488366530831,64834.76762721464
4456.5115425822705,66100.80184634238
4456.5347187542375,67666.50638578572
4456.557895046733,68155.12722057659
4456.581071459757,68470.2123275601
4456.604247993311,68417.04958219193
4456.627424647395,68243.33516927705
4456.650601422009,68069.14913809898
4456.673778317154,67850.2130606806
4456.696955332832,67586.9178189369
4456.720132469041,67487.47775430646
4456.7433097257845,67717.60211577135
4456.766487103061,67781.34815236606
4456.789664600872,68487.81740381276
4456.8128422192185,69171.69425457498
4456.8360199581,69092.4947289711
4456.859197817518,68811.75227145944
4456.882375797473,68426.1906918601
4456.905553897966,67754.0092658525
4456.928732118997,66350.88615422325
4456.951910460566,64224.44968181179
4456.975088922674,61717.68902082042
4456.998267505323,58623.26464077397
4457.021446208513,55669.216107927154
4457.044625032244,52633.277995175056
4457.067803976516,49557.75541731349
4457.090983041332,47194.15183312667
4457.1141622266905,46072.59248884531
4457.1373415325925,45737.72454118816
4457.160520959039,45677.47376056471
4457.183700506031,46447.65908213141
4457.206880173568,47983.48762983259
4457.230059961651,50266.71235863556
4457.2532398702815,53030.40558778549
4457.27641989946,56158.0395535705
4457.299600049186,59019.53062230281
4457.322780319461,61506.63398251172
4457.345960710286,64048.92861176427
4457.36914122166,65752.59719231648
4457.392321853586,66883.09152440814
4457.415502606062,68055.17885821284
4457.43868347909,69018.41524156719
4457.461864472672,69591.96451896778
4457.485045586805,70124.2096229085
4457.508226821494,70142.91859160241
4457.5314081767365,69507.44430545937
4457.554589652534,69263.24807515052
4457.577771248887,68384.05126851324
4457.600952965797,66664.61532808762
4457.624134803263,64960.51409753763
4457.647316761288,62792.157484376534
4457.67049883987,60151.08718473058
4457.693681039011,57420.34464979245
4457.716863358712,54822.85138019908
4457.7400457989725,52771.18983051982
4457.763228359793,51552.820666718566
4457.7864110411765,50785.1651127913
4457.809593843121,50349.451405890184
4457.832776765628,49886.57519134509
4457.855959808699,49552.6866142103
4457.879142972333,49491.305867160234
4457.902326256532,49978.136574560674
4457.925509661296,51111.21423769276
4457.948693186626,52524.688028341436
4457.971876832522,54536.52402537324
4457.995060598985,56639.49507932512
4458.018244486016,58428.70594865431
4458.041428493615,59921.36585133984
4458.0646126217825,60799.58322134039
4458.08779687052,61696.54629932417
4458.110981239827,62002.8003278466
4458.134165729705,61768.713513804
4458.157350340155,61665.79437594948
4458.180535071177,61436.21731442758
4458.203719922771,61693.92386617947
4458.226904894938,62645.39297809485
4458.2500899876795,63896.42778908403
4458.273275200995,64911.98379311548
4458.296460534886,66179.4535247262
4458.3196459893525,67583.46365510885
4458.342831564396,68608.73086291304
4458.366017260016,69416.1726806398
4458.389203076214,69658.19486662636
4458.4123890129895,69660.30256125517
4458.435575070344,69324.46347428138
4458.458761248279,68295.0748055867
4458.481947546794,67011.91363333202
4458.505133965889,64973.74442175957
4458.528320505566,62327.51855794006
4458.551507165825,59349.914925714686
4458.574693946666,55635.55855208075
4458.597880848091,51751.89828661463
4458.6210678701,47367.57217213394
4458.644255012693,42606.14831366035
4458.6674422758715,38170.45344935737
4458.690629659636,34167.30541968357
4458.713817163986,30707.043881589045
4458.737004788924,28136.899857080145
4458.76019253445,26549.330342384685
4458.783380400563,26143.93641744377
4458.8065683872655,26386.42216891023
4458.829756494558,27734.541679982027
4458.85294472244,29649.41562011691
4458.876133070914,32176.553854983656
4458.899321539979,34377.67721871097
4458.922510129635,36592.1282694111
4458.945698839884,38857.741293449966
4458.968887670727,40649.00645509366
4458.992076622164,42592.69470984424
4459.015265694195,44984.72416659285
4459.0384548868215,47658.43652033899
4459.061644200044,50451.505422819195
4459.084833633862,53909.284363111685
4459.108023188278,57023.70301414624
4459.131212863292,59677.19243978176
4459.154402658904,62558.68570167713
4459.177592575114,65051.29721796683
4459.200782611925,66892.31602470728
4459.223972769336,68672.21628200328
4459.247163047347,69835.95225392717
4459.27035344596,70263.87986705123
4459.293543965176,70400.86875215874
4459.316734604993,70375.89052365397
4459.339925365414,69843.82279292957
4459.363116246439,69164.11113521107
4459.386307248069,68719.4573625209
4459.409498370304,68482.9749632369
4459.432689613145,68784.50205363447
4459.455880976592,68597.22394782993
4459.479072460647,68772.24901258606
4459.502264065309,69621.09278108526
4459.52545579058,70508.46062028868
4459.5486476364595,71213.90905279477
4459.571839602949,71728.54239225654
4459.595031690048,72021.48132177164
4459.618223897759,71843.27733533301
4459.641416226081,71722.6217981192
4459.664608675014,71015.84799857876
4459.687801244561,69610.89356613095
4459.710993934721,67854.64435906589
4459.734186745496,65797.2228479966
4459.757379676885,63451.87829694078
4459.780572728889,60365.27005998413
4459.803765901509,57259.76837982881
4459.8269591947455,54248.24438003861
4459.850152608599,51630.57332148118
4459.87334614307,49446.60054745691
4459.89653979816,48530.239796342496
4459.91973357387,48558.868947695795
4459.942927470198,49328.00303307989
4459.966121487147,51016.49596673591
4459.989315624717,53030.29430161054
4460.0125098829085,55158.22087181865
4460.035704261722,57539.24956250256
4460.058898761158,60490.02689493447
4460.082093381218,63410.09096635558
4460.105288121902,65200.17879055137
4460.12848298321,67092.46531992391
4460.151677965145,69215.67463561032
4460.1748730677045,70572.82159664367
4460.198068290891,71973.73561604736
4460.221263634704,72702.78375321737
4460.244459099145,73339.29160229766
4460.267654684215,74309.79341794003
4460.290850389914,74623.03219451793
4460.314046216243,74626.05975582374
4460.337242163202,74872.47609536388
4460.360438230791,74881.04187480584
4460.383634419013,74738.65366530867
4460.406830727867,74413.09001465842
4460.430027157354,73551.75692861642
4460.453223707474,73148.40345519142
4460.476420378228,73321.62070626838
4460.499617169617,73004.87357051675
4460.522814081641,72412.59354940528
4460.5460111143,71934.54536533183
4460.569208267598,70869.33270302226
4460.592405541532,69375.9477396888
4460.615602936104,67573.10522352975
4460.638800451314,65195.96001044369
4460.661998087163,62350.21919493589
4460.685195843652,59590.97191799136
4460.708393720782,56596.02382422913
4460.731591718552,53206.84973121917
4460.754789836965,50172.69856817947
4460.777988076019,47173.269177685164
4460.801186435716,44675.24916969959
4460.824384916057,42759.80432623579
4460.847583517042,40997.891397004736
4460.870782238671,40461.461346783435
4460.893981080947,40717.69822030437
4460.917180043868,40252.60425701989
4460.940379127435,40530.427501169586
4460.963578331651,40952.14212653643
4460.986777656513,40514.353053404775
4461.009977102025,39527.950544835934
4461.033176668186,38286.705003340525
4461.056376354995,37179.3683348676
4461.079576162457,36218.74417370464
4461.102776090568,35328.05868436019
4461.125976139332,34748.567840620984
4461.149176308748,34502.794447386375
4461.172376598816,33630.30113419181
4461.195577009538,32841.6540296776
4461.218777540915,31614.123562995854
4461.241978192946,30009.199570809924
4461.265178965633,28830.870682624784
4461.2883798589755,27863.634228079864
4461.311580872974,27232.88648070284
4461.3347820076315,27517.602152849246
4461.357983262946,28965.932350121042
4461.381184638919,30799.011188726265
4461.404386135551,33537.109146760034
4461.4275877528435,36078.39942890197
4461.4507894907965,38955.76405155906
4461.4739913494095,41328.12610172489
4461.497193328685,43330.89643424607
4461.520395428623,44241.72458437907
4461.543597649224,44054.14047490146
4461.566799990488,43782.17490354288
4461.590002452416,42346.14464597942
4461.61320503501,40952.730295593865
4461.636407738269,40264.92113965935
4461.659610562193,39504.87447837436
4461.682813506784,40184.477419921684
4461.706016572044,42202.02765610025
4461.729219757971,44273.4663621047
4461.752423064566,46799.02552227206
4461.775626491831,49327.81044281963
4461.798830039766,52255.14602138785
4461.82203370837,54853.65573791618
4461.845237497647,56530.83913349049
4461.868441407595,58584.129625786736
4461.891645438215,59854.58366820466
4461.914849589509,61164.40388345766
4461.938053861475,61785.68472293661
4461.961258254117,62048.00756080895
4461.984462767433,61026.320259392574
4462.007667401424,59826.18899530502
4462.030872156092,58286.19570545105
4462.0540770314365,56575.99757555445
4462.077282027459,55067.0301335086
4462.100487144158,54021.557346322385
4462.123692381537,53730.43506401451
4462.146897739594,54269.48820881307
4462.170103218332,56000.96322013049
4462.19330881775,57706.7893381857
4462.21651453785,59866.86084653694
4462.239720378631,62123.99377397831
4462.262926340095,64081.51794280623
4462.286132422241,65969.67536423719
4462.309338625071,67176.88369578181
4462.3325449485865,68097.5469302743
4462.355751392785,68847.64584073142
4462.3789579576705,69285.66618295688
4462.402164643242,69869.95608436425
4462.4253714495,69978.7465579039
4462.448578376446,69687.39070142742
4462.471785424079,69566.63291811197
4462.494992592401,68660.78491418711
4462.518199881412,67469.4940242834
4462.541407291114,66071.32088435646
4462.564614821506,64442.02751546256
4462.587822472589,63150.446939999005
4462.611030244365,61379.38430109622
4462.634238136832,60169.04020860845
4462.657446149992,59326.61531032244
4462.680654283847,59235.846484155554
4462.703862538396,59847.54458256928
4462.727070913639,60532.680071312534
4462.750279409578,61256.61982392365
4462.773488026214,62665.67232268078
4462.796696763546,63829.58958449026
4462.819905621575,64953.333250475174
