wave,flux
4450.003811362098,11772.168517284299
4450.026953690486,11506.206119726452
4450.050096139227,11044.491462773012
4450.073238708321,10716.116627753994
4450.096381397769,10116.847607105441
4450.119524207569,9472.741751937028
4450.142667137726,8596.096224599518
4450.165810188237,7799.125247226908
4450.188953359103,7060.469468147115
4450.212096650326,6240.934812614391
4450.2352400619075,5410.515246549197
4450.258383593846,4702.245254226033
4450.281527246142,4166.748863069432
4450.304671018797,3705.4393820833648
4450.327814911813,3298.2736284542466
4450.350958925188,3023.6271966530335
4450.374103058924,2866.1078552628014
4450.3972473130225,2716.473531356241
4450.420391687483,2654.242549995162
4450.443536182305,2815.100183604804
4450.466680797492,3063.506164247637
4450.489825533042,3495.74484162572
4450.512970388957,4130.721399951863
4450.536115365237,4621.458536878808
4450.559260461882,5198.336186288289
4450.582405678895,5748.232618944648
4450.605551016274,6168.743427774098
4450.628696474022,6233.315382143831
4450.651842052138,6276.09003951822
4450.674987750623,6586.872115576506
4450.698133569476,6526.648550319062
4450.721279508702,6681.312014091788
4450.744425568297,7026.202208576696
4450.767571748264,7344.765143824815
4450.790718048604,7605.878114526312
4450.813864469315,8013.278846165839
4450.837011010401,8384.482427353676
4450.86015767186,8968.075159296484
4450.883304453694,9716.613599500475
4450.906451355903,10694.786795986442
4450.929598378489,11542.815506659454
4450.95274552145,11988.39735756237
4450.975892784789,12767.89374406525
4450.999040168505,13223.488487003116
4451.022187672601,13456.356756145726
4451.045335297074,13819.341997647205
4451.068483041929,14022.81653873176
4451.091630907163,13957.74808231766
4451.114778892777,13846.093073659551
4451.137926998774,13738.556849639692
4451.161075225153,13572.71137703291
4451.184223571914,13326.156460914835
4451.207372039059,13083.712415674958
4451.230520626587,12761.666360420693
4451.253669334501,12200.504453973053
4451.2768181628,11761.197233033447
4451.299967111485,11212.12619109717
4451.323116180556,10461.774316546449
4451.346265370014,9762.624486963454
4451.369414679861,8935.055022183971
4451.392564110095,8260.213450070118
4451.415713660719,7336.503774894409
4451.438863331732,6626.182785324979
4451.462013123136,5993.456486936139
4451.48516303493,5379.6919917830355
4451.508313067117,5211.097266288037
4451.531463219695,5346.057163844324
4451.554613492666,5806.751527163092
4451.577763886031,6480.236560987967
4451.60091439979,7446.47166503305
4451.624065033943,8422.16030906441
4451.647215788492,9689.378434990353
4451.670366663436,10462.853748024978
4451.693517658777,11097.198430915641
4451.716668774516,11396.813180703273
4451.739820010652,11571.840603710769
4451.762971367186,11590.822112411171
4451.78612284412,11371.26596588085
4451.8092744414525,10966.764917308055
4451.832426159187,10314.552957587033
4451.855577997321,9898.310424404788
4451.878729955857,9455.95189534429
4451.901882034796,9063.702603570504
4451.925034234137,8858.276998247917
4451.948186553881,8848.463240042109
4451.97133899403,9115.092927819682
4451.994491554583,9585.330106071377
4452.017644235542,10152.162159004083
4452.040797036907,10791.624390767858
4452.063949958678,11569.85695470725
4452.087103000857,12251.156216481191
4452.1102561634425,12648.862965078071
4452.133409446437,12954.674215556437
4452.156562849841,13215.733082587809
4452.179716373655,13555.71113021076
4452.202870017878,13850.081542150505
4452.226023782513,13731.199425699886
4452.24917766756,13673.612735538638
4452.272331673018,13658.758855003376
4452.29548579889,13500.827901254812
4452.318640045174,13478.577293918022
4452.341794411874,13111.198609635589
4452.364948898987,12703.828157187663
4452.388103506516,12363.028027878081
4452.4112582344615,12003.896962420045
4452.434413082823,11456.539009231734
4452.457568051602,10989.881769366739
4452.480723140799,10400.613229983546
4452.503878350413,9902.925102942343
4452.527033680448,9328.732440442016
4452.550189130902,8824.532356697926
4452.5733447017765,8492.863252730991
4452.596500393071,8311.5156537737
4452.619656204789,8187.63058195925
4452.642812136928,8100.47458389549
4452.66596818949,8169.386228981467
4452.689124362475,8423.081736364544
4452.7122806558855,8763.635141517585
4452.735437069719,9158.508272929363
4452.7585936039795,9509.421460740841
4452.781750258665,9801.333064864592
4452.804907033777,9924.976827306584
4452.828063929317,10088.043241630634
4452.851220945285,9804.53250980178
4452.87437808168,9480.815729712447
4452.897535338506,9222.827008062808
4452.92069271576,8897.866288286195
4452.943850213445,8790.844443735454
4452.967007831562,8912.256953477388
4452.99016557011,9064.223778751682
4453.01332342909,9268.449562105554
4453.036481408502,9551.582897607042
4453.059639508349,9731.797872773765
4453.08279772863,9778.284783042727
4453.105956069345,9563.640755982899
4453.129114530496,9153.479631713211
4453.152273112083,8861.555483116334
4453.175431814107,8476.072008159625
4453.198590636567,7943.570581338646
4453.221749579466,7603.090316638981
4453.244908642802,7566.344988208419
4453.268067826579,7727.063650197996
4453.291227130795,8095.328583173612
4453.314386555451,8628.093471634387
4453.337546100549,9651.786086538687
4453.360705766087,10446.235417468104
4453.3838655520685,11107.843337591197
4453.407025458493,11708.416691499744
4453.430185485361,11987.301864613723
4453.453345632673,11967.206085403159
4453.476505900429,11903.00356533175
4453.4996662886315,11670.849991397545
4453.52282679728,11370.443454619026
4453.545987426375,11105.160265544813
4453.569148175917,10665.46944065733
4453.592309045907,10270.453737002314
4453.615470036346,10146.324979873185
4453.638631147233,9954.513481954662
4453.661792378571,9971.975468557768
4453.684953730359,10203.126061718167
4453.708115202598,10837.002904543951
4453.731276795288,11278.260852052612
4453.754438508431,11883.16148463905
4453.777600342027,12357.059516435464
4453.800762296077,12742.243552009759
4453.82392437058,12928.787334360124
4453.847086565538,13143.961196515955
4453.870248880952,13309.519736922257
4453.8934113168225,13583.027618108394
4453.916573873149,13499.270884505713
4453.939736549933,13555.477310070439
4453.962899347174,13441.85672413237
4453.986062264875,13214.570289636775
4454.009225303034,12978.196872084505
4454.032388461654,12605.86789313646
4454.055551740734,12119.398385326134
4454.078715140275,11612.832471702788
4454.101878660277,11074.914842927239
4454.125042300742,10469.295162786968
4454.14820606167,9687.194199903975
4454.171369943061,8888.703357762113
4454.194533944917,8094.301941846582
4454.2176980672375,7170.343840565455
4454.240862310024,6277.667706231349
4454.264026673275,5569.522618350319
4454.287191156994,5000.330371970135
4454.31035576118,4536.015231667407
4454.333520485834,4397.090954687127
4454.356685330957,4599.01887516926
4454.379850296548,5014.68057795896
4454.40301538261,5480.779939957131
4454.426180589142,5923.479391526027
4454.449345916145,6165.96345480822
4454.4725113636205,6254.112814614482
4454.495676931568,6215.504352776582
4454.5188426199875,5927.4964854571135
4454.542008428882,5406.961229354173
4454.565174358249,4901.2199250177755
4454.588340408092,4337.2440497600455
4454.611506578411,3708.46695262676
4454.634672869205,3233.926405210821
4454.657839280476,2890.914724808808
4454.681005812225,2626.060245362813
4454.704172464451,2539.770831759195
4454.727339237156,2706.859553307058
4454.750506130341,2835.7822109246185
4454.773673144005,3057.4298568088316
4454.79684027815,3490.0570159383465
4454.820007532776,3964.2127033419983
4454.843174907884,4316.780694021384
4454.866342403473,4665.629287653503
4454.889510019546,4965.586382531013
4454.912677756102,5114.875681456917
4454.935845613144,5346.64132725444
4454.959013590669,5756.241664178071
4454.982181688681,6012.354639687502
4455.005349907178,6342.411518316847
4455.028518246162,6869.020963247501
4455.051686705633,7451.625445463525
4455.074855285593,7762.645713959626
4455.098023986041,8007.300341182484
4455.121192806979,7962.554311010056
4455.144361748406,7503.481899536461
4455.167530810323,7426.073856360687
4455.190699992732,7068.054360508791
4455.213869295633,6715.421636060146
4455.237038719026,6581.821479989067
4455.260208262912,6712.310258663032
4455.283377927292,7200.518599800184
4455.306547712166,7827.231741028694
4455.329717617535,8678.496611824829
4455.352887643399,9639.02164431947
4455.37605778976,10443.475563429647
4455.399228056617,11071.337128243958
4455.422398443972,11441.28977262903
4455.445568951825,11640.96468804225
4455.468739580177,11658.912063110893
4455.491910329028,11419.592317270366
4455.515081198378,10832.609404150377
4455.538252188229,10332.872109361084
4455.561423298582,9864.612138992927
4455.584594529436,9157.909946645463
4455.607765880793,8429.462512819584
4455.630937352652,7828.196969797465
4455.654108945016,7285.2050496583615
4455.677280657883,6671.36364528064
4455.700452491255,5944.252663158433
4455.723624445134,5265.4837802501215
4455.746796519518,4724.464305683715
4455.7699687144095,4278.828449489306
4455.793141029808,3976.061410095687
4455.816313465714,3946.991453129544
4455.83948602213,4275.1389902308965
4455.862658699055,4861.549864527776
4455.885831496489,5577.044846533375
4455.909004414434,6509.079366828262
4455.932177452891,7510.048808020901
4455.955350611858,8408.382444332514
4455.978523891339,9347.237188189321
4456.001697291333,10129.475704381553
4456.024870811841,10607.132459906587
4456.048044452862,10822.248240198938
4456.071218214399,10734.892580267748
4456.094392096451,10572.918428123592
4456.117566099019,10359.245212000846
4456.140740222105,9781.053112913933
4456.163914465707,9281.098933976542
4456.187088829828,8762.53245836941
4456.210263314468,8087.705850613168
4456.233437919626,7351.340079649686
4456.256612645306,6772.01774210291
4456.279787491505,6496.13617000607
4456.302962458226,6386.19158122061
4456.326137545469,6444.644126409957
4456.349312753233,6659.746508716777
4456.372488081522,6860.479357843003
4456.395663530333,7209.918566223684
4456.41883909967,7478.122582177406
4456.442014789531,7456.571579502073
4456.465190599917,7498.0684088202015
4456.488366530831,7253.033622650999
4456.5115425822705,7110.043333126078
4456.5347187542375,6966.210624676474
4456.557895046733,6752.61076006839
4456.581071459757,7047.087877244864
4456.604247993311,7581.9759602185595
4456.627424647395,8058.11656238727
4456.650601422009,9040.043801740083
4456.673778317154,9941.701301332161
4456.696955332832,10827.78920666022
4456.720132469041,11474.61628887349
4456.7433097257845,11689.140696333612
4456.766487103061,11877.896920253143
4456.789664600872,11847.450533999634
4456.8128422192185,11675.278876870141
4456.8360199581,11359.108209786282
4456.859197817518,11068.489023776729
4456.882375797473,10815.648383681879
4456.905553897966,10568.389816629651
4456.928732118997,10303.434271649514
4456.951910460566,9853.721768623003
4456.975088922674,9992.481641033912
4456.998267505323,10036.172224888656
4457.021446208513,10181.174105799973
4457.044625032244,10669.614756280733
4457.067803976516,10856.554165628271
4457.090983041332,11157.202925680263
4457.1141622266905,11264.76292959972
4457.1373415325925,11111.148697520206
4457.160520959039,10911.074865445136
4457.183700506031,10479.067595185723
4457.206880173568,9912.325663385207
4457.230059961651,9332.498076132155
4457.2532398702815,8490.364317894922
4457.27641989946,7559.87285817693
4457.299600049186,6888.6840508298565
4457.322780319461,6202.39443852297
4457.345960710286,5697.961209466012
4457.36914122166,5229.169782341571
4457.392321853586,5043.484678161915
4457.415502606062,5103.519885153318
4457.43868347909,5351.4121830192125
4457.461864472672,5805.274600908012
4457.485045586805,6543.332638582568
4457.508226821494,7392.005225075541
4457.5314081767365,8291.25293895763
4457.554589652534,9266.458711896124
4457.577771248887,10190.876809299785
4457.600952965797,10818.98500342139
4457.624134803263,11307.063565592833
4457.647316761288,11599.130745276612
4457.67049883987,11642.820113183614
4457.693681039011,11683.757242906513
4457.716863358712,11649.762495856941
4457.7400457989725,11475.664305761366
4457.763228359793,11346.68067422279
4457.7864110411765,11169.393489188153
4457.809593843121,10922.454647868899
4457.832776765628,10602.922333789113
4457.855959808699,10099.401416166107
4457.879142972333,9647.832710313769
4457.902326256532,8838.602576839136
4457.925509661296,8218.384824338522
4457.948693186626,7711.207923648287
4457.971876832522,7112.768838396429
4457.995060598985,6607.50865885316
4458.018244486016,6167.228029201624
4458.041428493615,5834.168843140152
4458.0646126217825,5756.0674882934645
4458.08779687052,5889.616593742851
4458.110981239827,6096.199502882197
4458.134165729705,6215.717883615347
4458.157350340155,6435.756930977166
4458.180535071177,6593.254661306866
4458.203719922771,6852.82786545263
4458.226904894938,7338.6030196861275
4458.2500899876795,7824.034230169985
4458.273275200995,8405.448091045737
4458.296460534886,8900.218726692554
4458.3196459893525,9204.626696066649
4458.342831564396,9240.968543637093
4458.366017260016,9110.719002963346
4458.389203076214,8818.011163731298
4458.4123890129895,8605.530222788786
4458.435575070344,8427.941677913679
4458.458761248279,8300.654132327687
4458.481947546794,8563.559761599307
4458.505133965889,9060.84414919289
4458.528320505566,9571.702213897892
4458.551507165825,10303.582884189293
4458.574693946666,11054.95226820836
4458.597880848091,11597.60099301521
4458.6210678701,11852.409198254889
4458.644255012693,12182.408400411987
4458.6674422758715,12170.300285162548
4458.690629659636,11951.246415770076
4458.713817163986,11829.334110985814
4458.737004788924,11574.17822330434
4458.76019253445,10817.864665762962
4458.783380400563,10004.931984442886
4458.8065683872655,9237.61910725656
4458.829756494558,8381.613227260337
4458.85294472244,7588.274823908154
4458.876133070914,6813.661674961079
4458.899321539979,5948.468773622843
4458.922510129635,5112.759190154899
4458.945698839884,4249.095492910323
4458.968887670727,3540.2279683734178
4458.992076622164,3082.7212424324725
4459.015265694195,2777.53726940917
4459.0384548868215,2640.1607289630174
4459.061644200044,2641.7737711586537
4459.084833633862,2859.849226391557
4459.108023188278,3230.4855297716185
4459.131212863292,3623.1411874831383
4459.154402658904,4083.504069657145
4459.177592575114,4743.570157628491
4459.200782611925,5171.678708793913
4459.223972769336,5611.33770443185
4459.247163047347,6073.244308329731
4459.27035344596,6467.890451367056
4459.293543965176,6921.773595849377
4459.316734604993,7500.919241283825
4459.339925365414,8257.80293637769
4459.363116246439,9200.930456396785
4459.386307248069,10029.781397347271
4459.409498370304,10765.634522151502
4459.432689613145,11372.345400996583
4459.455880976592,11684.936940557007
4459.479072460647,11869.641736026328
4459.502264065309,11969.791186540077
4459.52545579058,11858.161560759681
4459.5486476364595,11552.068068043738
4459.571839602949,11157.858358945523
4459.595031690048,10521.590025843478
4459.618223897759,10028.7052652313
4459.641416226081,9622.305555175513
4459.664608675014,9295.095364983139
4459.687801244561,9128.586593256698
4459.710993934721,9286.92469277451
4459.734186745496,9718.496506732881
4459.757379676885,10201.516493178236
4459.780572728889,10870.425922165137
4459.803765901509,11495.761121895808
4459.8269591947455,11886.311037790303
4459.850152608599,12045.175332317593
4459.87334614307,12103.268354444319
4459.89653979816,12136.42862110672
4459.91973357387,11764.602615146976
4459.942927470198,11316.62529867572
4459.966121487147,10703.612852502954
4459.989315624717,10086.8764472208
4460.0125098829085,9381.03102916311
4460.035704261722,8554.15983144495
4460.058898761158,7754.75658674873
4460.082093381218,6967.834372004383
4460.105288121902,6129.409117064986
4460.12848298321,5582.5993967481045
4460.151677965145,5089.05961463713
4460.1748730677045,4913.91898698739
4460.198068290891,4938.504664008414
4460.221263634704,5419.963660329069
4460.244459099145,5951.633825545151
4460.267654684215,6753.753108770392
4460.290850389914,7613.61043903369
4460.314046216243,8516.946536819873
4460.337242163202,9528.585053931933
4460.360438230791,10380.378664175305
4460.383634419013,11360.90845685434
4460.406830727867,12015.93436369388
4460.430027157354,12615.97379424256
4460.453223707474,13012.55839224661
4460.476420378228,13044.34041961448
4460.499617169617,13264.873716771006
4460.522814081641,13353.002279251512
4460.5460111143,13328.919074936995
4460.569208267598,13235.079509671654
4460.592405541532,13168.362270570084
4460.615602936104,13194.54828749692
4460.638800451314,13117.09520331631
4460.661998087163,12830.793890695466
4460.685195843652,12649.732288869774
4460.708393720782,12416.575416396576
4460.731591718552,12433.867930908005
4460.754789836965,12192.93786006288
4460.777988076019,12082.155378738815
4460.801186435716,11775.30477775976
4460.824384916057,11635.66039936007
4460.847583517042,11243.099231652277
4460.870782238671,10557.825329865398
4460.893981080947,9939.074793731597
4460.917180043868,9273.125195428376
4460.940379127435,8406.975388368852
4460.963578331651,7514.605114320436
4460.986777656513,6626.164036170171
4461.009977102025,5911.106033972525
4461.033176668186,5222.206663463457
4461.056376354995,4775.93466273886
4461.079576162457,4500.969212952154
4461.102776090568,4239.624275356467
4461.125976139332,4317.820099971998
4461.149176308748,4349.944386417372
4461.172376598816,4568.013100502236
4461.195577009538,4786.672219499673
4461.218777540915,5053.978906883064
4461.241978192946,5306.460760238223
4461.265178965633,5260.374586947799
4461.2883798589755,5238.050428196983
4461.311580872974,4983.9168137127435
4461.3347820076315,4803.910786472569
4461.357983262946,4680.942027789648
4461.381184638919,4509.745725915299
4461.404386135551,4312.257094494749
4461.4275877528435,4099.74385661757
4461.4507894907965,4112.507656614258
4461.4739913494095,3919.692131611882
4461.497193328685,3674.7806939160887
4461.520395428623,3406.1480570146027
4461.543597649224,3210.043950767599
4461.566799990488,2968.927023240047
4461.590002452416,2878.503790931886
4461.61320503501,3018.463152423742
4461.636407738269,3337.8820580607376
4461.659610562193,3753.8299382142204
4461.682813506784,4247.177799972281
4461.706016572044,4902.920043041169
4461.729219757971,5612.324719281169
4461.752423064566,6160.196551207801
4461.775626491831,6352.423634944594
4461.798830039766,6415.340813126872
4461.82203370837,6281.082474844533
4461.845237497647,5964.677381385436
4461.868441407595,5663.920161498345
4461.891645438215,5320.515481455783
4461.914849589509,4999.278492556832
4461.938053861475,4918.979753301361
4461.961258254117,5036.749940370642
4461.984462767433,5527.51449515359
4462.007667401424,6105.214265759395
4462.030872156092,6672.198919931783
4462.0540770314365,7393.0454027286805
4462.077282027459,7911.528653219289
4462.100487144158,8317.911280485492
4462.123692381537,8626.934626774346
4462.146897739594,8804.874204336857
4462.170103218332,8804.735018816218
4462.19330881775,8762.95187664018
4462.21651453785,8563.820534986278
4462.239720378631,8334.04201494762
4462.262926340095,8128.293405734929
4462.286132422241,7626.171470098093
4462.309338625071,7226.560783738353
4462.3325449485865,6827.632255454028
4462.355751392785,6522.332448946587
4462.3789579576705,6503.856856393908
4462.402164643242,6918.646004710505
4462.4253714495,7541.424804310729
4462.448578376446,8265.862763083218
4462.471785424079,9047.89976118324
4462.494992592401,9873.99499571115
4462.518199881412,10663.922773990467
4462.541407291114,11176.712191901572
4462.564614821506,11414.472367245502
4462.587822472589,11672.098751055004
4462.611030244365,11788.750615585524
4462.634238136832,11409.676311820782
4462.657446149992,11317.027223269979
4462.680654283847,11224.596359501307
4462.703862538396,11056.544990178203
4462.727070913639,10622.560961148456
4462.750279409578,10266.447993443115
