wave,flux
5000.025812696027,14711.569429991627
5000.051815424163,14079.063572214496
5000.0778182875265,13309.290952857313
5000.103821286119,12557.03613581444
5000.12982441994,11763.001301127853
5000.155827688991,10913.35325622483
5000.181831093272,10196.428163426875
5000.207834632784,9653.549281624708
5000.2338383075285,9310.617282020376
5000.259842117506,9273.468158608548
5000.285846062716,9446.679084031068
5000.311850143161,9803.335098502574
5000.33785435884,10557.56935836094
5000.363858709754,11440.354687064153
5000.389863195905,12246.329236167394
5000.415867817292,13189.770078041127
5000.441872573917,13870.290627096463
5000.4678774657805,14077.251394369749
5000.493882492882,14126.138921959378
5000.519887655224,13988.02349817195
5000.545892952806,13848.78779267462
5000.571898385629,13311.411042209998
5000.597903953694,12712.037281818702
5000.623909657001,12354.977277787855
5000.649915495552,12029.181091246912
5000.675921469346,11869.51495142315
5000.701927578384,11933.790963861346
5000.727933822669,12235.455538965518
5000.7539402021985,12713.056367888652
5000.779946716975,12797.514882492087
5000.805953366999,12741.368768319751
5000.831960152272,12966.746029239412
5000.857967072792,13133.422826609056
5000.883974128563,13265.461948234659
5000.9099813195835,13445.561361694348
5000.935988645855,13840.899303489625
5000.961996107378,14208.551184707445
5000.988003704153,14662.119316652355
5001.014011436181,15183.33491414002
5001.040019303464,15515.263148537782
5001.066027306,15784.359231425944
5001.092035443791,15985.024366476091
5001.118043716839,15922.96286470659
5001.1440521251425,15867.06337140494
5001.170060668704,15622.076258925283
5001.196069347523,15377.818060818605
5001.222078161601,15537.87908346478
5001.248087110937,15200.046854707918
5001.274096195534,15061.432266284084
5001.300105415392,14835.564448265162
5001.326114770512,14410.45403637592
5001.352124260892,14087.398701415565
5001.3781338865365,13838.053771979234
5001.4041436474445,13650.341244740437
5001.430153543616,13471.795174057741
5001.456163575053,13426.406267876511
5001.482173741756,13534.443056487646
5001.508184043724,13447.120925584231
5001.534194480961,13133.964810246114
5001.560205053464,12529.244824543934
5001.586215761236,11976.866163872959
5001.612226604278,11285.705942067887
5001.638237582589,10367.775078878587
5001.664248696171,9378.656895668808
5001.690259945024,8435.710143619704
5001.716271329149,7647.3972442901495
5001.742282848547,6987.515579227374
5001.768294503218,6577.709052833952
5001.794306293164,6543.814766220159
5001.820318218383,6934.113502378873
5001.84633027888,7815.158311226712
5001.872342474651,8962.390658701492
5001.8983548056995,10269.866458089396
5001.924367272026,11735.240753810238
5001.9503798736305,12936.889076388137
5001.976392610514,14014.958969300415
5002.002405482678,14927.93721243476
5002.028418490122,15469.190604903712
5002.054431632847,16049.50161345146
5002.080444910854,16377.112973974796
5002.106458324142,16604.997644638155
5002.1324718727155,16767.268585781963
5002.158485556572,16824.91164770034
5002.184499375713,16819.59710357064
5002.210513330139,16809.412487746664
5002.236527419852,16757.982786002896
5002.262541644852,16565.77159399426
5002.288556005138,16388.2779722491
5002.314570500714,16212.61202338038
5002.340585131577,15971.509425523069
5002.36659989773,15843.683681702134
5002.392614799174,15507.13672872278
5002.418629835909,15066.702352415146
5002.444645007936,14705.76968277837
5002.4706603152545,14405.088144740925
5002.496675757866,13762.2761182345
5002.522691335772,13185.905224696238
5002.548707048972,12605.428893043632
5002.574722897468,12031.877446645518
5002.600738881259,11266.596207719289
5002.626755000347,10604.965859046595
5002.652771254732,10102.586766205162
5002.678787644415,9607.413000165485
5002.704804169397,9447.41081955791
5002.730820829678,9697.107615377936
5002.75683762526,10187.575369226572
5002.782854556142,11082.739672247908
5002.8088716223265,12237.174391288268
5002.834888823812,13461.823027497563
5002.860906160601,14666.1354178155
5002.886923632695,15440.689528322986
5002.912941240092,15907.998466384634
5002.938958982793,16429.09760439473
5002.9649768608015,16648.685433906143
5002.990994874116,16879.29143507083
5003.017013022737,17081.233473737833
5003.043031306666,17208.79702270382
5003.069049725905,17111.71382005411
5003.095068280452,17074.386137587644
5003.121086970309,16985.81093521726
5003.147105795477,16947.951286560285
5003.173124755956,17116.11190984103
5003.199143851748,17057.24853982649
5003.225163082852,16864.629636189915
5003.251182449269,16930.994158192923
5003.277201951001,16914.149565270414
5003.3032215880485,16859.480627655437
5003.32924136041,16690.779966320908
5003.35526126809,16639.61781974003
5003.381281311085,16556.904249770774
5003.407301489398,16354.632153524017
5003.433321803031,16236.247005593914
5003.459342251982,16114.153506580415
5003.4853628362525,15788.86533244918
5003.511383555844,15554.306064491222
5003.537404410757,15096.875997931757
5003.563425400991,14521.36455878946
5003.589446526548,14064.616897364762
5003.615467787429,13568.833275836094
5003.641489183634,13189.698092558277
5003.667510715163,13093.320162419055
5003.693532382018,13081.693708378398
5003.719554184199,13236.685801491332
5003.745576121707,13589.820037535523
5003.771598194542,13862.40962958899
5003.797620402706,13842.317165507211
5003.823642746199,14001.924026118973
5003.849665225021,13695.791805819608
5003.875687839174,13340.212007301101
5003.901710588658,13045.666942881828
5003.927733473473,12695.898951669971
5003.953756493622,12443.423522519413
5003.979779649103,12404.604272227494
5004.005802939919,12642.902200057433
5004.031826366068,13144.307891239585
5004.057849927553,13676.869784021714
5004.083873624375,14086.54845587508
5004.109897456533,14378.320112409348
5004.135921424028,14708.531519741031
5004.161945526862,15084.378027035198
5004.187969765035,15138.904929101103
5004.213994138547,15248.26203811089
5004.240018647399,15282.547792929188
5004.266043291592,15352.680009067439
5004.292068071127,15463.357112248765
5004.318092986004,15742.722467567606
5004.344118036223,15814.878259189878
5004.370143221788,16150.289911362854
5004.396168542696,16417.22880012934
5004.422193998949,16627.18105383631
5004.448219590549,16772.85937866081
5004.474245317495,16964.221499376046
5004.500271179789,16985.6882117736
5004.52629717743,16977.603539720294
5004.5523233104195,17040.242761863352
5004.578349578759,17041.17096385919
5004.604375982449,17064.56739144469
5004.630402521489,17063.073490755247
5004.656429195881,17043.644046062942
5004.682456005625,16704.125050948485
5004.708482950721,16334.798208336168
5004.734510031172,16039.681387122993
5004.760537246977,15747.82175939298
5004.7865645981365,15489.88555093244
5004.812592084652,15049.530647246827
5004.838619706525,14876.461513113723
5004.8646474637535,14396.801140316906
5004.890675356341,13892.758637361525
5004.916703384286,13464.508733167395
5004.942731547591,13014.634491021914
5004.968759846256,12490.86316529429
5004.994788280281,11659.148270339037
5005.020816849668,10789.500666311014
5005.046845554417,10368.139695777423
5005.072874394528,10148.894769261105
5005.098903370003,10063.442355518206
5005.124932480842,10519.84552237475
5005.150961727047,11301.201735971717
5005.176991108617,12279.774838261108
5005.203020625552,13103.236959729189
5005.229050277856,13761.254370254006
5005.255080065526,14503.868059668124
5005.281109988566,14699.697783716454
5005.3071400469735,14732.854612683861
5005.333170240751,14561.330422251465
5005.3592005699,14162.007657700266
5005.38523103442,13708.71630076212
5005.411261634312,12949.662821270922
5005.4372923695755,12153.661655560563
5005.463323240213,11309.370132446422
5005.489354246225,10345.891628180212
5005.515385387611,9355.855636911869
5005.541416664373,8457.529889926336
5005.567448076511,7768.966463750216
5005.593479624025,7158.7594755777845
5005.619511306918,6688.72488042373
5005.645543125189,6653.033632256227
5005.671575078838,6875.357094146905
5005.697607167867,7376.826032113788
5005.723639392277,8072.296189608843
5005.749671752068,8705.009479004231
5005.77570424724,9241.366091456759
5005.8017368777955,9494.656586094463
5005.8277696437335,9604.413156869154
5005.853802545055,9243.364882296857
5005.879835581762,8674.954192916266
5005.905868753854,7983.1146623692375
5005.931902061331,7192.863980627057
5005.957935504196,6442.835128876906
5005.983969082448,5812.537385376964
5006.010002796088,5462.759740343253
5006.036036645117,5411.408825272305
5006.062070629536,5615.796559415326
5006.088104749344,6220.343847591787
5006.114139004544,7175.525143265805
5006.140173395135,8337.963665771009
5006.166207921118,9715.334280886384
5006.192242582495,11157.674824798947
5006.218277379266,12560.938992102325
5006.244312311431,13623.509773370843
5006.270347378991,14717.706392483771
5006.296382581946,15334.352948474398
5006.322417920299,15812.299835709837
5006.348453394048,16176.491323024167
5006.374489003196,16274.601983190529
5006.400524747743,16454.0022902984
5006.426560627688,16485.874215741642
5006.452596643034,16573.72142984625
5006.47863279378,16445.584661276083
5006.504669079928,16477.223705682107
5006.530705501478,16469.66621516319
5006.556742058431,16291.356099737435
5006.582778750788,16343.016072927694
5006.608815578549,16336.043987177234
5006.634852541715,16258.547970654881
5006.660889640287,16290.123715336298
5006.686926874265,16323.509144248499
5006.71296424365,16412.272577158503
5006.739001748444,16240.874758896118
5006.765039388645,16004.335764518331
5006.791077164256,15700.384994994143
5006.817115075277,15389.093666920153
5006.843153121708,14965.278233851204
5006.869191303552,14370.046144427064
5006.895229620806,13735.221151515854
5006.921268073474,13005.254217790918
5006.947306661555,12219.992791027527
5006.97334538505,11243.417634871485
5006.999384243961,10232.368444326814
5007.025423238286,9210.160071118173
5007.051462368028,8179.793881652205
5007.077501633187,7283.8861205018675
5007.103541033764,6549.495173002933
5007.129580569759,5989.860892916677
5007.155620241173,5820.822731298829
5007.181660048007,6067.756737544846
5007.207699990262,6585.756504410091
5007.233740067937,7559.741718857951
5007.259780281035,8773.25800088478
5007.285820629555,10193.412131906429
5007.311861113499,11545.5597074634
5007.337901732866,12733.927696935347
5007.363942487658,13827.082672944161
5007.389983377876,14663.645628782788
5007.41602440352,15496.598801168557
5007.442065564591,15645.81779795726
5007.468106861089,15839.298286709061
5007.494148293015,15889.516396928506
5007.520189860371,15766.299493086091
5007.546231563156,15503.899348746843
5007.572273401372,15332.417533659176
5007.598315375018,15134.169638406136
5007.624357484096,14994.147502630445
5007.650399728607,14977.892365705937
5007.676442108551,15104.996033413789
5007.702484623929,15434.63368829688
5007.728527274741,15856.056440465947
5007.754570060989,16398.543680479026
5007.780612982673,16804.066661149493
5007.806656039793,17121.856652873692
5007.832699232351,17277.310884813633
5007.858742560347,17357.402681255902
5007.884786023782,17622.47053707698
5007.910829622656,17480.60278612807
5007.936873356971,17734.464092634553
5007.962917226726,17472.602371329853
5007.988961231923,17485.618531956057
5008.015005372563,17639.257096215548
5008.041049648646,17645.45991433178
5008.067094060171,17766.702057476246
5008.0931386071425,17818.510788402175
5008.119183289558,17794.67793617795
5008.14522810742,17760.35925319569
5008.171273060728,17932.891068411594
5008.197318149483,17932.79645266249
5008.223363373687,17846.174211493693
5008.249408733339,17907.032224297214
5008.27545422844,17776.03340426609
5008.301499858992,17715.403310934293
5008.327545624995,17825.328247729198
5008.353591526448,17726.06189803973
5008.379637563355,17519.307016014787
5008.405683735714,17237.336681320063
5008.431730043527,17141.926443525106
5008.457776486794,17002.11250284934
5008.483823065515,16825.61283944895
5008.509869779693,16514.664094022643
5008.535916629327,16453.78411518063
5008.561963614418,16389.557589005668
5008.588010734968,16384.489292867427
5008.614057990975,16681.3200617202
5008.640105382442,16907.20604591204
5008.666152909369,17202.636757175474
5008.692200571756,17476.808000173234
5008.718248369605,17543.744065856852
5008.744296302916,17602.098083696063
5008.77034437169,17707.163375442557
5008.796392575927,17746.33801729626
5008.822440915628,17713.768543966875
5008.848489390794,17725.741198933352
5008.874538001426,17725.218483029817
5008.900586747524,17713.048416388683
5008.926635629089,17731.64805844756
5008.952684646122,17690.409144743036
5008.978733798623,17849.030300471648
5009.004783086593,17769.952536227298
5009.030832510033,17811.472715522807
5009.056882068944,17756.664911103217
5009.082931763326,17793.092574108236
5009.108981593179,17696.722378944476
5009.135031558506,17724.941158228823
5009.161081659306,17745.521628654074
5009.187131895579,17701.812934472615
5009.213182267327,17788.040231655737
5009.239232774552,17608.9570507672
5009.265283417251,17313.984875699167
5009.291334195428,17298.190199761477
5009.317385109083,17096.45705645617
5009.343436158216,16816.65900305879
5009.369487342828,16679.51795311288
5009.395538662919,16386.068216424414
5009.421590118491,16091.624527595666
5009.447641709544,15800.942839523559
5009.473693436078,15481.91149856954
5009.499745298095,15227.53735611548
5009.525797295596,14946.073207678486
5009.55184942858,14871.824582796706
5009.577901697049,14897.064228555415
5009.603954101003,14953.113921687436
5009.630006640443,15250.3006952842
5009.65605931537,15535.04059916959
5009.682112125784,15971.916929692581
5009.708165071686,16018.88923545921
5009.7342181530785,16037.124777726085
5009.760271369959,15848.615879126568
5009.78632472233,15507.48101226743
5009.812378210192,15053.837782220371
5009.838431833546,14550.168653378654
5009.864485592391,14026.566871858775
5009.890539486731,13387.00594422078
5009.916593516564,12590.553769860422
5009.942647681891,12068.80812924834
5009.968701982713,11674.069934007335
5009.994756419032,11294.596180092087
5010.020810990847,10996.80121451518
5010.046865698159,10871.939164200427
5010.072920540969,10799.275151033062
5010.098975519279,10794.44771059555
5010.125030633087,10845.827653470298
5010.151085882395,11016.521777587159
5010.177141267204,11547.880033440011
5010.2031967875155,12310.445212699748
5010.229252443328,13187.184811060337
5010.255308234644,14117.9515454543
5010.281364161464,15024.788710436915
5010.307420223788,15839.645177123439
5010.333476421617,16564.95011162165
5010.359532754951,16983.891599232153
5010.3855892237925,17309.958574924847
5010.4116458281405,17528.87209581227
5010.437702567997,17575.72333673646
5010.463759443362,17668.885179792214
5010.489816454236,17556.94435579406
5010.51587360062,17502.80812458859
5010.541930882514,17413.766118587286
5010.56798829992,17311.0189332786
5010.5940458528385,17130.7233563741
5010.62010354127,16769.71155385745
5010.646161365214,16334.374572120514
5010.672219324672,15784.307316190003
5010.698277419646,15325.503824273239
5010.724335650135,14787.658693278994
5010.7503940161405,14129.330809734294
5010.7764525176635,13459.13692473592
5010.802511154703,12844.343362242838
5010.828569927262,12576.045601107333
5010.85462883534,12520.327298067225
5010.880687878937,12682.093275989104
5010.906747058056,13332.141647383034
5010.932806372695,14015.770143324975
5010.958865822856,14794.004781518439
5010.98492540854,15679.733593937712
5011.0109851297475,16345.38463876601
5011.0370449864795,16839.58266739005
5011.063104978735,17254.12828066623
5011.089165106517,17285.120429074588
5011.115225369825,17515.244039887653
5011.14128576866,17544.72373448141
5011.167346303022,17606.59779037061
5011.193406972913,17652.65047420707
5011.219467778333,17664.240349528343
5011.2455287192815,17712.925065530457
5011.271589795761,17851.901650303407
5011.297651007772,17731.838865170634
5011.323712355315,17785.341377563043
5011.34977383839,17768.442567115475
5011.375835456999,17499.41305306082
5011.401897211142,17276.870790969373
5011.427959100819,17194.60743161977
5011.454021126031,16998.552696404146
5011.4800832867795,16727.580188131513
5011.506145583065,16281.815146082166
5011.532208014888,15792.769594131893
5011.558270582248,15539.407604774742
5011.584333285148,15124.396740484652
5011.610396123588,14526.614276228553
5011.636459097567,14028.909986681647
5011.662522207088,13509.392277002788
5011.68858545215,13073.11895174615
5011.714648832754,12536.455883566441
5011.740712348902,12037.914537390865
5011.766776000594,11488.668736979438
5011.79283978783,10706.82819537944
5011.818903710611,9806.094456644807
5011.844967768939,8940.083740649074
5011.871031962813,7958.632841932731
5011.897096292234,6968.794774113552
5011.923160757203,6010.885001465936
5011.949225357721,5257.031532337688
5011.975290093788,4879.345942024097
5012.001354965406,4747.206076805293
5012.027419972574,4954.946374699942
5012.053485115294,5451.018094276926
5012.079550393566,6352.521822528883
5012.105615807392,7254.505998827845
5012.13168135677,8412.544549444523
5012.157747041703,9589.600846490423
5012.183812862192,10403.980298403034
5012.209878818236,11032.8760466501
5012.235944909837,11440.96559720599
5012.262011136994,11459.715231079928
5012.28807749971,11255.415151298574
5012.3141439979845,11010.570722757155
5012.340210631818,10748.413249043824
5012.366277401212,10734.467237296982
5012.392344306166,10993.207856163996
5012.418411346682,11354.432828088366
5012.44447852276,11971.582943926276
5012.470545834401,12509.482596023012
5012.496613281605,13023.075740520211
5012.522680864374,13383.77032183925
5012.548748582707,13524.279362471005
5012.574816436606,13574.32609292613
5012.600884426071,13576.452540861219
5012.626952551104,13756.538182362327
5012.653020811705,14142.475401042373
5012.679089207873,14675.582545477826
5012.705157739611,15191.19940482574
5012.73122640692,15756.05945997458
5012.757295209798,16450.975569676222
5012.7833641482475,16681.913099616
5012.80943322227,16913.343183006884
5012.835502431864,17216.97362405076
5012.861571777033,17272.09110085029
5012.887641257775,17031.8393901368
5012.9137108740915,16905.223769206335
5012.939780625984,16667.79906998046
5012.965850513452,16584.17117085722
5012.991920536498,16333.493654239082
5013.017990695121,15773.73030999338
5013.044060989323,15276.157527817672
5013.070131419104,14611.71371880257
5013.096201984464,13781.346874934186
5013.122272685405,13017.352901435348
5013.148343521927,12236.379666953088
5013.17441449403,11428.75233908894
5013.200485601717,10975.91589675526
5013.226556844987,10820.928317718885
5013.2526282238405,10762.565276898307
5013.278699738279,11172.572288543613
5013.304771388303,11536.88313097773
5013.330843173913,11853.669193646989
5013.35691509511,12145.567919463778
5013.382987151894,12151.598350198747
5013.409059344267,12202.392125126398
5013.435131672228,11652.896760955868
5013.46120413578,11078.511339516359
5013.487276734921,10384.811070275366
5013.513349469653,9426.154278390337
5013.539422339977,8823.72323239025
5013.565495345894,8120.522745780082
5013.5915684874035,7596.873811362172
5013.617641764507,7596.15590277805
5013.643715177206,8035.993056291842
5013.6697887254995,8697.143898556742
5013.695862409389,9598.334602720832
5013.721936228875,10624.225617459195
5013.748010183958,11485.652424971238
5013.77408427464,12407.137456879325
5013.800158500921,12954.201228576378
5013.826232862801,13118.076385074326
5013.852307360281,13301.913881722701
5013.8783819933615,13282.98642447438
5013.904456762045,12963.90318502584
5013.930531666329,12654.371560285295
5013.956606706218,12089.589836223256
5013.982681881709,11320.650655013687
5014.008757192805,10436.069858778355
5014.034832639507,9363.002893218809
5014.060908221814,8229.272343807292
5014.086983939728,7298.576545784126
5014.113059793249,6652.939677390952
5014.139135782378,6279.279752225999
5014.165211907116,6268.829003294034
5014.1912881674625,6488.578720376591
5014.21736456342,7197.776786194672
