wave,flux
4450.003811362098,15656.251972822629
4450.026953690486,15024.139619198251
4450.050096139227,14358.769167753871
4450.073238708321,13539.986674959693
4450.096381397769,12348.152988534086
4450.119524207569,11132.01559655486
4450.142667137726,10003.62688508398
4450.165810188237,8795.378973862586
4450.188953359103,7660.548266908607
4450.212096650326,6622.382623160696
4450.2352400619075,5786.973794233483
4450.258383593846,5299.728343529554
4450.281527246142,4777.821870321186
4450.304671018797,4273.099855529249
4450.327814911813,3978.35471815884
4450.350958925188,3671.873702185907
4450.374103058924,3525.2652034354346
4450.3972473130225,3655.254942611993
4450.420391687483,4104.440784523068
4450.443536182305,4757.899837485496
4450.466680797492,5600.578792624312
4450.489825533042,6388.446193638943
4450.512970388957,7344.484384747214
4450.536115365237,8117.014905453943
4450.559260461882,8578.684134795145
4450.582405678895,8914.428856169743
4450.605551016274,8976.71194962184
4450.628696474022,8903.909486303955
4450.651842052138,8933.702838770958
4450.674987750623,9179.277908055665
4450.698133569476,9646.483788559997
4450.721279508702,9952.80922173852
4450.744425568297,10350.037688542583
4450.767571748264,10855.338107887947
4450.790718048604,11265.87634467536
4450.813864469315,12072.443852351347
4450.837011010401,13154.585869772991
4450.86015767186,14406.844358314109
4450.883304453694,15738.317783608849
4450.906451355903,16611.40963872302
4450.929598378489,17426.988698894314
4450.95274552145,18171.654123253535
4450.975892784789,18640.204025705258
4450.999040168505,18833.43246089719
4451.022187672601,18814.92689321193
4451.045335297074,18982.646449057887
4451.068483041929,18872.22019968883
4451.091630907163,18658.778046425974
4451.114778892777,18476.971364726196
4451.137926998774,18302.075646861125
4451.161075225153,18096.70680776446
4451.184223571914,17657.649809151753
4451.207372039059,16904.239035188253
4451.230520626587,16562.667689641992
4451.253669334501,15955.888263131257
4451.2768181628,14976.350679319525
4451.299967111485,14093.544623643369
4451.323116180556,12936.88920229852
4451.346265370014,11882.589140641841
4451.369414679861,10613.115711346094
4451.392564110095,9328.394627694466
4451.415713660719,8201.70897105814
4451.438863331732,7507.962374291073
4451.462013123136,6894.913384635376
4451.48516303493,6893.021086435686
4451.508313067117,7552.428655811094
4451.531463219695,8620.669180475175
4451.554613492666,10077.76845614659
4451.577763886031,11705.352525826438
4451.60091439979,13215.687118076039
4451.624065033943,14545.903668271056
4451.647215788492,15580.353283811943
4451.670366663436,16102.964091352893
4451.693517658777,16409.93292793151
4451.716668774516,16331.828542905727
4451.739820010652,16028.99036981103
4451.762971367186,15511.015298566936
4451.78612284412,14807.131095956645
4451.8092744414525,13919.97983922901
4451.832426159187,12939.332216682264
4451.855577997321,12194.220427773202
4451.878729955857,11629.602207781942
4451.901882034796,11514.054503501231
4451.925034234137,11926.77556501491
4451.948186553881,12680.39162372471
4451.97133899403,13561.864334558843
4451.994491554583,14522.836574462252
4452.017644235542,15546.299050617145
4452.040797036907,16318.302974119315
4452.063949958678,17139.620874126802
4452.087103000857,17819.11074308374
4452.1102561634425,18597.51565715567
4452.133409446437,18878.8009592917
4452.156562849841,18651.58298763471
4452.179716373655,18830.926035726603
4452.202870017878,18926.760680889838
4452.226023782513,18719.983144145855
4452.24917766756,18833.29021782868
4452.272331673018,18682.61592204271
4452.29548579889,18039.16880765931
4452.318640045174,17723.591748865805
4452.341794411874,17250.767706388917
4452.364948898987,16753.99464518785
4452.388103506516,16055.162728518033
4452.4112582344615,15471.8010778889
4452.434413082823,14551.31106097191
4452.457568051602,13756.074298356718
4452.480723140799,12991.465207949152
4452.503878350413,12304.818410282463
4452.527033680448,11937.300913989273
4452.550189130902,11462.853322142317
4452.5733447017765,11053.898415721918
4452.596500393071,11011.368814812937
4452.619656204789,10990.739574923871
4452.642812136928,11224.06820502146
4452.66596818949,11803.700727531901
4452.689124362475,12516.11564163975
4452.7122806558855,13288.20484275433
4452.735437069719,13895.297588558933
4452.7585936039795,14093.547567550839
4452.781750258665,14074.798545366602
4452.804907033777,13851.901904427892
4452.828063929317,13321.563526861264
4452.851220945285,12718.646012907953
4452.87437808168,12153.116290283766
4452.897535338506,11855.81688150578
4452.92069271576,12043.796913717188
4452.943850213445,12533.12383225729
4452.967007831562,13111.85160786815
4452.99016557011,13729.777735741127
4453.01332342909,13760.526430848673
4453.036481408502,13881.078442436714
4453.059639508349,13557.42595684357
4453.08279772863,13058.74478258957
4453.105956069345,12398.166854331615
4453.129114530496,11769.233747241933
4453.152273112083,11191.698089160864
4453.175431814107,10506.17675368423
4453.198590636567,10065.080283336236
4453.221749579466,10139.053602487234
4453.244908642802,10850.429561041225
4453.268067826579,11884.823316872022
4453.291227130795,13053.416292489579
4453.314386555451,14472.103024978109
4453.337546100549,15401.08562692295
4453.360705766087,16239.096410813403
4453.3838655520685,16583.273013448455
4453.407025458493,16694.959635007875
4453.430185485361,16521.51926345242
4453.453345632673,16445.149679298378
4453.476505900429,16047.609635343257
4453.4996662886315,15447.005612008312
4453.52282679728,14912.273551513486
4453.545987426375,14291.306160525186
4453.569148175917,13663.16610076659
4453.592309045907,13213.535470447341
4453.615470036346,13359.541539088856
4453.638631147233,13882.572244280815
4453.661792378571,14579.159243315835
4453.684953730359,15354.25719221976
4453.708115202598,16221.05162992084
4453.731276795288,16953.43735647134
4453.754438508431,17312.147576674615
4453.777600342027,17679.108745990357
4453.800762296077,17955.051641296213
4453.82392437058,18131.00465829514
4453.847086565538,18458.207591063037
4453.870248880952,18531.90639671639
4453.8934113168225,18367.170801580025
4453.916573873149,18286.709403831155
4453.939736549933,18076.962395017228
4453.962899347174,17833.544696358047
4453.986062264875,17591.257398480786
4454.009225303034,17036.707448133482
4454.032388461654,16472.825057879905
4454.055551740734,15892.596122207904
4454.078715140275,14925.370610413416
4454.101878660277,13832.428471046203
4454.125042300742,12707.071276096896
4454.14820606167,11577.133135090136
4454.171369943061,10358.229855549838
4454.194533944917,9026.897915287005
4454.2176980672375,7856.097548706773
4454.240862310024,6810.76642356208
4454.264026673275,6102.369454061981
4454.287191156994,5987.920473131349
4454.31035576118,6160.146052777532
4454.333520485834,6857.017480585409
4454.356685330957,7817.918197283557
4454.379850296548,8468.149889351605
4454.40301538261,9005.266878729737
4454.426180589142,9446.097398582702
4454.449345916145,9266.605198257186
4454.4725113636205,8800.607731969232
4454.495676931568,8051.760409144824
4454.5188426199875,7030.4601622460195
4454.542008428882,6068.693828081889
4454.565174358249,5227.5119538504905
4454.588340408092,4565.4530122132355
4454.611506578411,4039.650800619241
4454.634672869205,3595.0388330952474
4454.657839280476,3411.5213414185573
4454.681005812225,3500.547156349565
4454.704172464451,3793.752757090081
4454.727339237156,4173.934137138987
4454.750506130341,4871.533821004276
4454.773673144005,5709.348464206548
4454.79684027815,6318.922134429709
4454.820007532776,6842.521934144191
4454.843174907884,7169.561311948399
4454.866342403473,7188.81795926322
4454.889510019546,7363.935704193136
4454.912677756102,7628.250391262151
4454.935845613144,8170.518535533367
4454.959013590669,8784.881367460403
4454.982181688681,9618.488698468476
4455.005349907178,10663.417122592313
4455.028518246162,11344.507382203392
4455.051686705633,11613.673039280144
4455.074855285593,11528.547199168259
4455.098023986041,11219.455267831534
4455.121192806979,10554.869247544737
4455.144361748406,9738.792203050536
4455.167530810323,9068.789435678524
4455.190699992732,8845.450286947853
4455.213869295633,8953.340098433182
4455.237038719026,9517.809306018034
4455.260208262912,10488.28608347039
4455.283377927292,11703.221236506763
4455.306547712166,13149.596252217203
4455.329717617535,14430.863833982079
4455.352887643399,15248.267264464257
4455.37605778976,15990.243151412446
4455.399228056617,16354.464557328873
4455.422398443972,16103.241925718718
4455.445568951825,15692.045393541039
4455.468739580177,15272.155709956276
4455.491910329028,14728.317627793796
4455.515081198378,13733.45213326318
4455.538252188229,12775.532258076786
4455.561423298582,12020.139869202523
4455.584594529436,11257.092938582098
4455.607765880793,10415.699294561933
4455.630937352652,9523.72431035604
4455.654108945016,8462.536280211336
4455.677280657883,7481.587325298453
4455.700452491255,6501.359767372602
4455.723624445134,5705.668512083457
4455.746796519518,5177.185042588236
4455.7699687144095,5060.9780846813555
4455.793141029808,5357.851764377111
4455.816313465714,6312.364939113707
4455.83948602213,7356.245396538699
4455.862658699055,8738.617676914939
4455.885831496489,10570.21398140507
4455.909004414434,11834.89550851292
4455.932177452891,13135.348192975309
4455.955350611858,14174.648005838293
4455.978523891339,14875.121265078707
4456.001697291333,15280.27549880355
4456.024870811841,15400.690671016851
4456.048044452862,15357.412890054933
4456.071218214399,14875.994151506917
4456.094392096451,14238.84118559338
4456.117566099019,13562.206183592152
4456.140740222105,12439.727143980605
4456.163914465707,11566.908573653722
4456.187088829828,10334.912419194656
4456.210263314468,9496.31697714546
4456.233437919626,8730.822356944282
4456.256612645306,8517.611040851063
4456.279787491505,8539.718321872335
4456.302962458226,9065.19964180747
4456.326137545469,9675.794142402428
4456.349312753233,10406.832576002542
4456.372488081522,10763.551447167607
4456.395663530333,10979.53422025446
4456.41883909967,10855.49778204528
4456.442014789531,10430.751858918082
4456.465190599917,9851.673856717412
4456.488366530831,9315.578055114116
4456.5115425822705,8929.315810139162
4456.5347187542375,9149.83059721631
4456.557895046733,9879.064045657167
4456.581071459757,10928.739891841387
4456.604247993311,12125.071538821987
4456.627424647395,13630.559848173936
4456.650601422009,14981.551482301493
4456.673778317154,15752.152983910188
4456.696955332832,16368.477383935682
4456.720132469041,16521.839053017415
4456.7433097257845,16508.224887163837
4456.766487103061,16422.39784060644
4456.789664600872,16135.388342869208
4456.8128422192185,15673.051946776266
4456.8360199581,14998.355063922345
4456.859197817518,14368.197236207467
4456.882375797473,13952.389750359553
4456.905553897966,13568.112848727
4456.928732118997,13366.192873870848
4456.951910460566,13346.752822728322
4456.975088922674,13781.20165357201
4456.998267505323,14384.13885814131
4457.021446208513,14913.947098188706
4457.044625032244,15485.141446689862
4457.067803976516,15670.239418847752
4457.090983041332,15705.256462246582
4457.1141622266905,15346.619682815843
4457.1373415325925,14884.794819515835
4457.160520959039,14222.528808753132
4457.183700506031,13339.455280016593
4457.206880173568,12335.233728483534
4457.230059961651,11201.724674820904
4457.2532398702815,9963.65580497535
4457.27641989946,8800.064133096383
4457.299600049186,7700.848690764002
4457.322780319461,6995.619874024912
4457.345960710286,6565.42802160451
4457.36914122166,6607.907590605315
4457.392321853586,7098.154243845254
4457.415502606062,7805.172576324418
4457.43868347909,8753.729461711964
4457.461864472672,9977.415467005438
4457.485045586805,11321.841812293838
4457.508226821494,12783.460081930381
4457.5314081767365,13929.32155343947
4457.554589652534,14854.566978900057
4457.577771248887,15526.618203699554
4457.600952965797,16025.357558763704
4457.624134803263,16095.252713794482
4457.647316761288,15999.859668736744
4457.67049883987,15918.443839513313
4457.693681039011,15953.773338392934
4457.716863358712,15783.337393045662
4457.7400457989725,15724.326183839381
4457.763228359793,15387.918651424736
4457.7864110411765,15034.886151839226
4457.809593843121,14515.336800998999
4457.832776765628,13625.926413844358
4457.855959808699,12795.488715522539
4457.879142972333,11882.135456747406
4457.902326256532,10857.753944182103
4457.925509661296,9929.321956056854
4457.948693186626,9135.315407971324
4457.971876832522,8518.497732351794
4457.995060598985,8120.077576328987
4458.018244486016,8029.9296663521645
4458.041428493615,8220.577555202408
4458.0646126217825,8533.873129430465
4458.08779687052,8718.089947494587
4458.110981239827,8743.126973260945
4458.134165729705,8922.294924145475
4458.157350340155,9354.360408359986
4458.180535071177,10000.994387368668
4458.203719922771,10979.77988094675
4458.226904894938,11883.247305088531
4458.2500899876795,12609.048451617655
4458.273275200995,13159.280405125237
4458.296460534886,13313.604520035673
4458.3196459893525,13155.048854310078
4458.342831564396,12618.373159918285
4458.366017260016,11837.803366020282
4458.389203076214,11384.906792934918
4458.4123890129895,11178.765507908485
4458.435575070344,11222.250248087086
4458.458761248279,11893.258257084493
4458.481947546794,12787.354990859494
4458.505133965889,13957.449425600766
4458.528320505566,15143.806240195703
4458.551507165825,16007.325105807575
4458.574693946666,16656.08423554841
4458.597880848091,17024.290010741788
4458.6210678701,17106.006641656943
4458.644255012693,16904.971436540778
4458.6674422758715,16409.607490028782
4458.690629659636,15889.689240056276
4458.713817163986,15226.678564931615
4458.737004788924,14174.622265661406
4458.76019253445,13307.828635485072
4458.783380400563,12350.020504909155
4458.8065683872655,11114.001845363702
4458.829756494558,9828.30207161688
4458.85294472244,8384.524701515078
4458.876133070914,7100.33489572582
4458.899321539979,5965.186642810052
4458.922510129635,4937.4124952020375
4458.945698839884,4227.485061477716
4458.968887670727,3736.4338697079575
4458.992076622164,3565.3164975655864
4459.015265694195,3624.6103272419637
4459.0384548868215,3847.9726984580097
4459.061644200044,4383.065379916929
4459.084833633862,5032.63224161282
4459.108023188278,5826.770296960391
4459.131212863292,6734.142653411403
4459.154402658904,7385.168418244528
4459.177592575114,7845.199867576026
4459.200782611925,8298.701244222335
4459.223972769336,8624.445879777793
4459.247163047347,9135.606598560626
4459.27035344596,9963.922705768118
4459.293543965176,11054.50460503091
4459.316734604993,12297.962167115084
4459.339925365414,13530.752706516389
4459.363116246439,14867.014727136559
4459.386307248069,15916.982212448778
4459.409498370304,16485.336396170227
4459.432689613145,16850.055868538468
4459.455880976592,16841.37465535854
4459.479072460647,16514.324263133843
4459.502264065309,16136.281153254216
4459.52545579058,15551.107310778902
4459.5486476364595,14809.955860705015
4459.571839602949,14078.294144583984
4459.595031690048,13335.463715480915
4459.618223897759,12763.406508766828
4459.641416226081,12385.062786502867
4459.664608675014,12362.386919707966
4459.687801244561,12927.795956881728
4459.710993934721,13884.181665705502
4459.734186745496,14837.66793972624
4459.757379676885,15892.585863468528
4459.780572728889,16491.81603925779
4459.803765901509,16787.810209013016
4459.8269591947455,17023.821522229442
4459.850152608599,16817.813757626198
4459.87334614307,16455.292200586642
4459.89653979816,15864.157225506562
4459.91973357387,15303.864764032125
4459.942927470198,14549.171758133061
4459.966121487147,13427.603241593717
4459.989315624717,12313.04962824998
4460.0125098829085,11080.388805081207
4460.035704261722,9719.807601915227
4460.058898761158,8559.865167694594
4460.082093381218,7468.997699161697
4460.105288121902,6700.795336449734
4460.12848298321,6410.778811869974
4460.151677965145,6586.287620804898
4460.1748730677045,7139.966730974469
4460.198068290891,7752.806258319129
4460.221263634704,8757.501971235046
4460.244459099145,10094.106822146987
4460.267654684215,11618.935040231496
4460.290850389914,13002.070625274271
4460.314046216243,14211.422635125551
4460.337242163202,15534.700576687199
4460.360438230791,16430.897629874828
4460.383634419013,17154.776645633425
4460.406830727867,17672.920380247615
4460.430027157354,18059.654929983593
4460.453223707474,18161.055487391648
4460.476420378228,18327.105326418132
4460.499617169617,18217.365374122877
4460.522814081641,18239.18415228988
4460.5460111143,18345.818140808136
4460.569208267598,18095.665749840715
4460.592405541532,17717.80131036297
4460.615602936104,17360.340462313034
4460.638800451314,16992.97587378225
4460.661998087163,16865.93261936123
4460.685195843652,16762.978786058004
4460.708393720782,16672.652610553763
4460.731591718552,16562.942701392098
4460.754789836965,16447.69299604588
4460.777988076019,16311.869150991157
4460.801186435716,15825.747365403402
4460.824384916057,15129.462601953055
4460.847583517042,14259.456147921992
4460.870782238671,13194.70308521844
4460.893981080947,12032.684867765905
4460.917180043868,10674.664194972916
4460.940379127435,9419.005988144521
4460.963578331651,8327.11822570769
4460.986777656513,7149.380410440457
4461.009977102025,6485.990393048275
4461.033176668186,5981.125098202986
4461.056376354995,5719.387769267897
4461.079576162457,5658.801885892111
4461.102776090568,5911.157934688571
4461.125976139332,6259.541655500715
4461.149176308748,6573.303384766443
4461.172376598816,7077.719152166552
4461.195577009538,7353.516647185354
4461.218777540915,7752.466912118369
4461.241978192946,7470.967247272357
4461.265178965633,7169.942213195144
4461.2883798589755,6667.307977754867
4461.311580872974,6343.407528149856
4461.3347820076315,6071.5153592841025
4461.357983262946,5881.705111081625
4461.381184638919,5785.622159235763
4461.404386135551,5912.705022785197
4461.4275877528435,5749.470269153373
4461.4507894907965,5455.746905083426
4461.4739913494095,4991.216348617009
4461.497193328685,4414.556297539393
4461.520395428623,4006.405209501657
4461.543597649224,3787.2287115491986
4461.566799990488,3941.7050558665383
4461.590002452416,4296.246756210536
4461.61320503501,4998.772191269741
4461.636407738269,6025.571055414287
4461.659610562193,6960.616467755643
4461.682813506784,8145.043654470938
4461.706016572044,8889.27476522721
4461.729219757971,9617.006249719612
4461.752423064566,9665.09485117301
4461.775626491831,9502.468402013208
4461.798830039766,9058.48878943297
4461.82203370837,7988.600206131389
4461.845237497647,7235.830959287284
4461.868441407595,6738.679659716067
4461.891645438215,6431.925282872191
4461.914849589509,6648.3770750981585
4461.938053861475,7268.535421161769
4461.961258254117,8032.165366263498
4461.984462767433,9235.8921169096
4462.007667401424,10389.322828840284
4462.030872156092,11170.607637565408
4462.0540770314365,11807.108211462228
4462.077282027459,12251.972221513362
4462.100487144158,12464.97993102562
4462.123692381537,12399.400935661808
4462.146897739594,12499.608938706011
4462.170103218332,12367.299492464052
4462.19330881775,11961.937535211591
4462.21651453785,11479.98212716227
4462.239720378631,10777.372279302372
4462.262926340095,9911.000486304169
4462.286132422241,9148.634233571373
4462.309338625071,8597.062766522335
4462.3325449485865,8482.483546853498
4462.355751392785,9010.144853269696
4462.3789579576705,9775.636489305807
4462.402164643242,10924.492382104043
4462.4253714495,12390.758957472292
4462.448578376446,13692.930812854034
4462.471785424079,14819.16110525523
4462.494992592401,15605.674542076178
4462.518199881412,16135.049543372792
4462.541407291114,16259.178271565117
4462.564614821506,15930.854589020031
4462.587822472589,15719.180727906949
4462.611030244365,15524.651738157498
4462.634238136832,15376.443556025739
4462.657446149992,15152.648370606248
