wave,flux
5000.025812696027,14763.806792299782
5000.051815424163,14547.756297798374
5000.0778182875265,14286.440989217466
5000.103821286119,14014.486366239034
5000.12982441994,13542.587727703858
5000.155827688991,13388.769012613622
5000.181831093272,12910.550355953832
5000.207834632784,12336.276395259034
5000.2338383075285,12046.257234559032
5000.259842117506,11590.482736176813
5000.285846062716,11119.319970121505
5000.311850143161,10779.901157227509
5000.33785435884,10427.309182517225
5000.363858709754,10111.490826448442
5000.389863195905,9954.921701593146
5000.415867817292,9858.648938583383
5000.441872573917,9653.814818155855
5000.4678774657805,9767.329053421936
5000.493882492882,9875.493976949278
5000.519887655224,10061.645842816471
5000.545892952806,10582.671513373787
5000.571898385629,10813.858847283547
5000.597903953694,11072.338935410937
5000.623909657001,11439.793839658882
5000.649915495552,11714.956599381823
5000.675921469346,11924.838809383382
5000.701927578384,11969.183247572573
5000.727933822669,11943.810396604289
5000.7539402021985,11855.35018264555
5000.779946716975,11669.43380293558
5000.805953366999,11569.327690527385
5000.831960152272,11401.336103411833
5000.857967072792,11358.201969142723
5000.883974128563,11380.868172598919
5000.9099813195835,11465.346924474814
5000.935988645855,11817.178527845417
5000.961996107378,11940.52719149454
5000.988003704153,12109.963438565863
5001.014011436181,12417.315005565544
5001.040019303464,12563.900892378844
5001.066027306,12660.7464981632
5001.092035443791,12822.580330638368
5001.118043716839,13002.66169339911
5001.1440521251425,13149.327027724454
5001.170060668704,13322.611125292977
5001.196069347523,13445.098018772742
5001.222078161601,13502.937473822774
5001.248087110937,13757.457187159976
5001.274096195534,13663.048624618157
5001.300105415392,13647.841749614114
5001.326114770512,13467.132481398405
5001.352124260892,13512.244151430294
5001.3781338865365,13314.485025461236
5001.4041436474445,13106.576720960109
5001.430153543616,12932.218979449006
5001.456163575053,12739.537833372402
5001.482173741756,12667.30835661083
5001.508184043724,12423.667441685093
5001.534194480961,12121.395347866905
5001.560205053464,11790.416656601867
5001.586215761236,11410.352012283794
5001.612226604278,11199.537470921769
5001.638237582589,10911.834466697544
5001.664248696171,10693.042224778186
5001.690259945024,10530.354290548457
5001.716271329149,10174.904684641086
5001.742282848547,9828.721665826823
5001.768294503218,9511.013975228192
5001.794306293164,9166.132676002597
5001.820318218383,8740.376127463644
5001.84633027888,8404.434858721117
5001.872342474651,8143.863064644294
5001.8983548056995,7826.7700347337195
5001.924367272026,7572.004284377191
5001.9503798736305,7532.560679383083
5001.976392610514,7615.288409670888
5002.002405482678,7906.815589694794
5002.028418490122,8416.34789375932
5002.054431632847,8988.955132527954
5002.080444910854,9822.667886946398
5002.106458324142,10535.9561923115
5002.1324718727155,11488.955983529679
5002.158485556572,12224.472496168983
5002.184499375713,12872.251127483629
5002.210513330139,13475.6365016312
5002.236527419852,13987.582485675393
5002.262541644852,14217.233225275912
5002.288556005138,14523.510609225523
5002.314570500714,14694.604826576944
5002.340585131577,14732.545381959875
5002.36659989773,14708.053163458679
5002.392614799174,14703.076063612234
5002.418629835909,14684.622778803669
5002.444645007936,14470.27369887207
5002.4706603152545,14242.928160287827
5002.496675757866,14070.630911873941
5002.522691335772,13694.902763096707
5002.548707048972,13546.474696308806
5002.574722897468,13180.370044111563
5002.600738881259,12967.559237684307
5002.626755000347,12547.31950627338
5002.652771254732,12086.310066067208
5002.678787644415,11829.332940293596
5002.704804169397,11558.415086216175
5002.730820829678,11163.192223883832
5002.75683762526,10783.124556573217
5002.782854556142,10609.331730062153
5002.8088716223265,10461.592248628394
5002.834888823812,10317.961722773056
5002.860906160601,10243.106363909345
5002.886923632695,10231.12038106176
5002.912941240092,10416.794284768388
5002.938958982793,10686.235238230163
5002.9649768608015,11080.45046319642
5002.990994874116,11625.581665555617
5003.017013022737,12342.149336957724
5003.043031306666,12852.879499073098
5003.069049725905,13595.469888526828
5003.095068280452,13938.240761711184
5003.121086970309,14504.925998513105
5003.147105795477,14764.820230223484
5003.173124755956,14913.499943308701
5003.199143851748,15132.33343531886
5003.225163082852,15079.005714784282
5003.251182449269,15146.626835253614
5003.277201951001,15173.77695547862
5003.3032215880485,15103.150686314384
5003.32924136041,15263.638431529273
5003.35526126809,15183.239356745398
5003.381281311085,15041.79345343935
5003.407301489398,14949.160079302192
5003.433321803031,14878.62829471835
5003.459342251982,15026.624986122019
5003.4853628362525,14831.18366294165
5003.511383555844,14577.200953930911
5003.537404410757,14625.842408143253
5003.563425400991,14507.89457520105
5003.589446526548,14403.353624604559
5003.615467787429,14273.872733183836
5003.641489183634,14021.874457207014
5003.667510715163,13760.930152939645
5003.693532382018,13658.668093967492
5003.719554184199,13623.625270825123
5003.745576121707,13510.028089429734
5003.771598194542,13291.313299052394
5003.797620402706,13007.521417950184
5003.823642746199,12785.54997522506
5003.849665225021,12628.070213310179
5003.875687839174,12447.460074373403
5003.901710588658,12326.414926177407
5003.927733473473,12349.535912370935
5003.953756493622,12282.581247584198
5003.979779649103,12426.134648568885
5004.005802939919,12357.980897835661
5004.031826366068,12496.886148681751
5004.057849927553,12479.170909969895
5004.083873624375,12262.534911927929
5004.109897456533,12235.176360990834
5004.135921424028,12242.205275526769
5004.161945526862,12178.880664626275
5004.187969765035,12255.293086670923
5004.213994138547,12480.583271531052
5004.240018647399,12781.783612732695
5004.266043291592,13101.458991348845
5004.292068071127,13333.102027796504
5004.318092986004,13556.009572746125
5004.344118036223,13750.201437486867
5004.370143221788,13941.913923385835
5004.396168542696,14073.42260028533
5004.422193998949,14170.109301172699
5004.448219590549,14300.916011892072
5004.474245317495,14376.468079521743
5004.500271179789,14390.409706484219
5004.52629717743,14505.840277425208
5004.5523233104195,14723.542566945738
5004.578349578759,14855.021208668013
5004.604375982449,14852.892865054477
5004.630402521489,14971.829268817886
5004.656429195881,15142.21160398478
5004.682456005625,15145.532318090796
5004.708482950721,15090.461900854316
5004.734510031172,15006.9938558124
5004.760537246977,14838.855024037513
5004.7865645981365,14786.299649536824
5004.812592084652,14777.894524576137
5004.838619706525,14523.889447498612
5004.8646474637535,14415.351937555484
5004.890675356341,14127.490777844774
5004.916703384286,13845.328540562694
5004.942731547591,13535.3465631138
5004.968759846256,13261.988762577606
5004.994788280281,12830.749978512815
5005.020816849668,12530.447182913249
5005.046845554417,12145.48793319393
5005.072874394528,11798.8553632848
5005.098903370003,11606.995963183816
5005.124932480842,11352.865320564862
5005.150961727047,10981.571286674198
5005.176991108617,10691.488023298245
5005.203020625552,10554.54027012725
5005.229050277856,10369.07937686373
5005.255080065526,10116.96224881361
5005.281109988566,10100.691013697839
5005.3071400469735,10191.40104357095
5005.333170240751,10346.125135739921
5005.3592005699,10706.301941442693
5005.38523103442,10898.789934108838
5005.411261634312,11152.390515041525
5005.4372923695755,11426.01461147288
5005.463323240213,11636.208079069362
5005.489354246225,11571.018826081976
5005.515385387611,11361.359999446191
5005.541416664373,11095.282082202008
5005.567448076511,10855.593537702774
5005.593479624025,10409.252947038984
5005.619511306918,9878.283128263649
5005.645543125189,9411.119698477756
5005.671575078838,8934.81221269721
5005.697607167867,8481.632178072749
5005.723639392277,8073.741594349759
5005.749671752068,7655.6594394451895
5005.77570424724,7148.241149201975
5005.8017368777955,6744.222242500889
5005.8277696437335,6695.59461170402
5005.853802545055,6606.711892639536
5005.879835581762,6609.982760229312
5005.905868753854,6697.044215088923
5005.931902061331,6779.798718494389
5005.957935504196,7023.6933153389255
5005.983969082448,7178.96978918683
5006.010002796088,7339.183282784855
5006.036036645117,7295.031133540306
5006.062070629536,7218.73892019553
5006.088104749344,7107.835099312147
5006.114139004544,6811.842453634711
5006.140173395135,6590.764940209493
5006.166207921118,6452.779525233498
5006.192242582495,6398.15468201068
5006.218277379266,6525.807810125462
5006.244312311431,6748.868251624101
5006.270347378991,7187.516023574777
5006.296382581946,7722.955726016721
5006.322417920299,8386.012422078089
5006.348453394048,9216.358072920564
5006.374489003196,10059.813749962157
5006.400524747743,11036.53108855452
5006.426560627688,11841.25108716847
5006.452596643034,12712.69728157458
5006.47863279378,13249.668843638014
5006.504669079928,13732.569244384718
5006.530705501478,14081.044974089173
5006.556742058431,14439.773620485532
5006.582778750788,14551.137172972047
5006.608815578549,14589.464725530743
5006.634852541715,14669.026462724689
5006.660889640287,14653.460153887581
5006.686926874265,14614.568734064607
5006.71296424365,14627.408485313905
5006.739001748444,14641.47577788143
5006.765039388645,14596.45064964617
5006.791077164256,14501.22047114207
5006.817115075277,14448.751227081957
5006.843153121708,14279.638509344984
5006.869191303552,13979.94934823806
5006.895229620806,13749.819135412981
5006.921268073474,13573.727376084667
5006.947306661555,13305.629854300589
5006.97334538505,12938.320744523597
5006.999384243961,12497.463836947207
5007.025423238286,12009.496366990314
5007.051462368028,11412.304499006212
5007.077501633187,11038.245675111422
5007.103541033764,10573.527242181504
5007.129580569759,10094.20732064725
5007.155620241173,9476.177972003743
5007.181660048007,8962.011302270674
5007.207699990262,8536.243398687524
5007.233740067937,8074.874337863445
5007.259780281035,7627.346406394313
5007.285820629555,7215.2131552437495
5007.311861113499,7017.19277724927
5007.337901732866,7084.6132698008905
5007.363942487658,7306.057359579647
5007.389983377876,7653.371704191918
5007.41602440352,8181.115745130513
5007.442065564591,8866.265105880664
5007.468106861089,9632.54637686665
5007.494148293015,10431.462724150704
5007.520189860371,11233.046294823462
5007.546231563156,11895.397973270266
5007.572273401372,12456.147651000229
5007.598315375018,13084.358220018927
5007.624357484096,13489.174389899008
5007.650399728607,13710.061008412105
5007.676442108551,13927.123915880153
5007.702484623929,14099.827896659568
5007.728527274741,14176.444438884731
5007.754570060989,14183.70477292372
5007.780612982673,14245.68103517472
5007.806656039793,14230.322549035502
5007.832699232351,14183.420126294102
5007.858742560347,14298.280276637508
5007.884786023782,14405.734157034669
5007.910829622656,14569.423760091722
5007.936873356971,14797.116645206206
5007.962917226726,14892.110988165925
5007.988961231923,15221.464687735544
5008.015005372563,15439.983752010723
5008.041049648646,15328.957619294266
5008.067094060171,15501.839981541576
5008.0931386071425,15581.013006121011
5008.119183289558,15655.227586316954
5008.14522810742,15643.807657166373
5008.171273060728,15710.372897013363
5008.197318149483,15721.138285362627
5008.223363373687,15572.785109145132
5008.249408733339,15716.092150544184
5008.27545422844,15756.247232598824
5008.301499858992,15757.331052943444
5008.327545624995,15811.890588677856
5008.353591526448,15826.364720116193
5008.379637563355,15828.94813471611
5008.405683735714,15889.039943270516
5008.431730043527,15728.218395119213
5008.457776486794,15461.793727409024
5008.483823065515,15526.698482196072
5008.509869779693,15486.413841652533
5008.535916629327,15439.777754715175
5008.561963614418,15471.945962846936
5008.588010734968,15271.947054184993
5008.614057990975,15311.878199352646
5008.640105382442,15167.202235353305
5008.666152909369,14948.061715216387
5008.692200571756,14985.802470963426
5008.718248369605,15121.042441030399
5008.744296302916,15133.245147882064
5008.77034437169,15075.459846263908
5008.796392575927,15034.428238544331
5008.822440915628,15221.222693387543
5008.848489390794,15310.525881658736
5008.874538001426,15421.720501594
5008.900586747524,15566.674095212926
5008.926635629089,15580.63140028798
5008.952684646122,15611.725740652895
5008.978733798623,15710.694513306866
5009.004783086593,15738.489745501058
5009.030832510033,15642.320243570426
5009.056882068944,15553.59555149885
5009.082931763326,15591.932859217903
5009.108981593179,15611.116080726406
5009.135031558506,15559.275695210663
5009.161081659306,15536.532019261413
5009.187131895579,15598.641942990791
5009.213182267327,15645.319891048688
5009.239232774552,15652.995927982782
5009.265283417251,15634.319440384226
5009.291334195428,15684.971949157614
5009.317385109083,15613.639648100021
5009.343436158216,15575.35430321677
5009.369487342828,15537.838490034326
5009.395538662919,15556.557720413182
5009.421590118491,15350.569638588475
5009.447641709544,15249.175307415213
5009.473693436078,15153.994534932852
5009.499745298095,14985.546021630504
5009.525797295596,15032.6345216624
5009.55184942858,14869.110516517543
5009.577901697049,14692.232713497122
5009.603954101003,14693.690253706733
5009.630006640443,14584.50927135098
5009.65605931537,14454.960553419534
5009.682112125784,14400.403565069995
5009.708165071686,14315.940593307581
5009.7342181530785,14159.930927865213
5009.760271369959,13995.060165817591
5009.78632472233,13927.028956429933
5009.812378210192,13937.254102340125
5009.838431833546,13967.471149553066
5009.864485592391,13880.574580485278
5009.890539486731,13610.258589649618
5009.916593516564,13413.036875561584
5009.942647681891,13383.525160209821
5009.968701982713,13079.884713716467
5009.994756419032,12766.672091479948
5010.020810990847,12425.122977876808
5010.046865698159,12067.707708590337
5010.072920540969,11770.532681600536
5010.098975519279,11396.56855436124
5010.125030633087,11018.347082922524
5010.151085882395,10873.975692041973
5010.177141267204,10746.592232679437
5010.2031967875155,10542.325125569052
5010.229252443328,10437.192276599037
5010.255308234644,10518.665567825028
5010.281364161464,10725.093615576114
5010.307420223788,10848.717600398364
5010.333476421617,10966.266010389605
5010.359532754951,11319.897159339913
5010.3855892237925,11815.953768695881
5010.4116458281405,12371.166328077092
5010.437702567997,12923.954021849717
5010.463759443362,13426.234992661299
5010.489816454236,13917.426613771906
5010.51587360062,14250.972429476255
5010.541930882514,14726.02500366307
5010.56798829992,14949.214921071554
5010.5940458528385,15132.809852158945
5010.62010354127,15337.012334017267
5010.646161365214,15311.481364364794
5010.672219324672,15230.766287773477
5010.698277419646,14931.153501213597
5010.724335650135,14812.70105344288
5010.7503940161405,14693.36492576447
5010.7764525176635,14471.575094353773
5010.802511154703,14273.842035999145
5010.828569927262,13872.391629883146
5010.85462883534,13758.753791839232
5010.880687878937,13605.116321397561
5010.906747058056,13372.355721749665
5010.932806372695,13120.943880081455
5010.958865822856,12952.944399603259
5010.98492540854,12810.224504696784
5011.0109851297475,12610.8911578036
5011.0370449864795,12608.500715171433
5011.063104978735,12737.179915035238
5011.089165106517,12911.732735978636
5011.115225369825,13235.875816748427
5011.14128576866,13667.051627427434
5011.167346303022,14162.66842995854
5011.193406972913,14488.772119672269
5011.219467778333,14719.095400505836
5011.2455287192815,15114.811426017086
5011.271589795761,15352.7466655758
5011.297651007772,15377.425518955668
5011.323712355315,15551.06657549033
5011.34977383839,15672.627445230131
5011.375835456999,15570.81271173946
5011.401897211142,15728.679133078103
5011.427959100819,15567.442915150192
5011.454021126031,15635.63116454249
5011.4800832867795,15501.809573978055
5011.506145583065,15449.684938424301
5011.532208014888,15419.71566858668
5011.558270582248,15245.387220375958
5011.584333285148,14987.74979623781
5011.610396123588,14781.13791072559
5011.636459097567,14571.612034110467
5011.662522207088,14344.712553151885
5011.68858545215,14111.6128715271
5011.714648832754,13832.463208539599
5011.740712348902,13289.885561156923
5011.766776000594,12705.792804678671
5011.79283978783,12274.2387113122
5011.818903710611,11845.341722160822
5011.844967768939,11391.647805880866
5011.871031962813,10797.663971631235
5011.897096292234,10311.843974113694
5011.923160757203,9747.101106035694
5011.949225357721,9400.303664337756
5011.975290093788,8833.51405831613
5012.001354965406,8335.891883657223
5012.027419972574,7858.316630252368
5012.053485115294,7429.361157786989
5012.079550393566,6903.704424956366
5012.105615807392,6577.0488057199445
5012.13168135677,6136.637257095032
5012.157747041703,5953.453017214906
5012.183812862192,5906.850248107244
5012.209878818236,6017.096403845288
5012.235944909837,6319.921301288025
5012.262011136994,6610.490367686644
5012.28807749971,7031.509970852997
5012.3141439979845,7618.079903597017
5012.340210631818,8303.47796908444
5012.366277401212,8810.611052964514
5012.392344306166,9367.07116309846
5012.418411346682,9818.391976562745
5012.44447852276,10154.417023317514
5012.470545834401,10429.084646541864
5012.496613281605,10480.730876473775
5012.522680864374,10499.479732011381
5012.548748582707,10574.667078022101
5012.574816436606,10730.708912510938
5012.600884426071,10954.631959582495
5012.626952551104,11165.450758554987
5012.653020811705,11498.353118083887
5012.679089207873,11845.601110359781
5012.705157739611,12295.191665725531
5012.73122640692,12625.303243322132
5012.757295209798,12860.385786904832
5012.7833641482475,13068.380207239596
5012.80943322227,13074.585877668134
5012.835502431864,13425.529167490662
5012.861571777033,13526.275638071334
5012.887641257775,13915.970045691076
5012.9137108740915,14142.30898966777
5012.939780625984,14399.460135899491
5012.965850513452,14562.573691848633
5012.991920536498,14675.626912930058
5013.017990695121,14671.157821473318
5013.044060989323,14527.284732752538
5013.070131419104,14624.681332022274
5013.096201984464,14248.028763477676
5013.122272685405,14037.472076845213
5013.148343521927,13805.267750254194
5013.17441449403,13420.280647027099
5013.200485601717,13271.603667343627
5013.226556844987,12894.924364689372
5013.2526282238405,12487.369160951275
5013.278699738279,12172.408417883738
5013.304771388303,11737.322835762381
5013.330843173913,11323.266442663991
5013.35691509511,11010.438361599416
5013.382987151894,10722.343901583976
5013.409059344267,10364.852599733375
5013.435131672228,10044.7103144831
5013.46120413578,9939.11927989415
5013.487276734921,9860.489539122691
5013.513349469653,9800.102808377414
5013.539422339977,9840.320193027906
5013.565495345894,9742.335289960296
5013.5915684874035,9607.037289028573
5013.617641764507,9415.577179901762
5013.643715177206,9251.305898368819
5013.6697887254995,9144.021689890445
5013.695862409389,8800.706326338788
5013.721936228875,8429.701905108603
5013.748010183958,8223.722510189968
5013.77408427464,7989.422050240994
5013.800158500921,8044.607840165792
5013.826232862801,8203.535930757334
5013.852307360281,8322.746508833652
5013.8783819933615,8760.535257524138
5013.904456762045,9281.705541459805
5013.930531666329,9757.116869958305
5013.956606706218,10226.411604286308
5013.982681881709,10524.213948445062
5014.008757192805,10636.373871705102
5014.034832639507,10762.872728700395
5014.060908221814,10766.4616084415
5014.086983939728,10678.284584652158
5014.113059793249,10375.778261464146
5014.139135782378,10086.272856087427
5014.165211907116,9681.405790552551
5014.1912881674625,9297.627348901955
