wave,flux
4450.003811362098,14205.721483947354
4450.026953690486,14477.340781341998
4450.050096139227,14418.077401319926
4450.073238708321,14413.25052288713
4450.096381397769,14175.911376634314
4450.119524207569,14085.827006722548
4450.142667137726,13703.940672545621
4450.165810188237,13296.401825920191
4450.188953359103,12476.983837487034
4450.212096650326,11671.176122237628
4450.2352400619075,10917.297780796163
4450.258383593846,10039.918538838203
4450.281527246142,9148.010970615202
4450.304671018797,8297.394540025347
4450.327814911813,7461.730023702226
4450.350958925188,6647.395244663416
4450.374103058924,5788.645225562671
4450.3972473130225,5060.8556936876275
4450.420391687483,4647.803009778163
4450.443536182305,4272.994025013977
4450.466680797492,4022.885759623902
4450.489825533042,3964.430046940658
4450.512970388957,3804.296576165816
4450.536115365237,3874.2942597985384
4450.559260461882,4081.8272812772157
4450.582405678895,4328.714377467951
4450.605551016274,4723.9915245807315
4450.628696474022,5310.973821418306
4450.651842052138,5887.554615410281
4450.674987750623,6474.817199277129
4450.698133569476,7044.731951602549
4450.721279508702,7766.7270878133495
4450.744425568297,8097.966318136269
4450.767571748264,8413.307010086624
4450.790718048604,8507.50405681319
4450.813864469315,8855.148290122026
4450.837011010401,8845.099617404549
4450.86015767186,9357.67973830247
4450.883304453694,9705.448032227985
4450.906451355903,10504.097247392303
4450.929598378489,10960.947167386836
4450.95274552145,11370.607722588498
4450.975892784789,12132.451849144818
4450.999040168505,12787.211008584634
4451.022187672601,13581.20179035164
4451.045335297074,14474.14388864526
4451.068483041929,15368.477308659754
4451.091630907163,16132.233397684126
4451.114778892777,16547.41709900438
4451.137926998774,16869.62556899221
4451.161075225153,17022.59164206149
4451.184223571914,17154.056012201592
4451.207372039059,17362.33123184159
4451.230520626587,17113.324704117065
4451.253669334501,16735.706210155822
4451.2768181628,16524.462244326787
4451.299967111485,16230.381214282472
4451.323116180556,15737.843934286304
4451.346265370014,15086.564841043035
4451.369414679861,14486.086221662566
4451.392564110095,13901.233023490122
4451.415713660719,13105.163632309715
4451.438863331732,12313.653998479247
4451.462013123136,11491.270615073681
4451.48516303493,10658.088658497807
4451.508313067117,9948.339861788936
4451.531463219695,9441.872989434134
4451.554613492666,8576.520895815349
4451.577763886031,8127.424439343447
4451.60091439979,7786.4330412606105
4451.624065033943,7724.589000761228
4451.647215788492,7771.716798289881
4451.670366663436,8268.181902276914
4451.693517658777,9037.387937778743
4451.716668774516,9863.760755426858
4451.739820010652,10820.331776926681
4451.762971367186,11706.173870123846
4451.78612284412,12545.512745936558
4451.8092744414525,13215.870439437756
4451.832426159187,13724.341716846111
4451.855577997321,13884.739536597415
4451.878729955857,13863.473905990095
4451.901882034796,13690.989361786718
4451.925034234137,13467.231160983283
4451.948186553881,13108.049725044531
4451.97133899403,12753.509650189044
4451.994491554583,12417.977620936419
4452.017644235542,12158.799895719834
4452.040797036907,12017.319909244758
4452.063949958678,11989.733216420296
4452.087103000857,12244.164915003574
4452.1102561634425,12646.992146168259
4452.133409446437,13345.547340751975
4452.156562849841,14144.402438029481
4452.179716373655,14800.108077348621
4452.202870017878,15431.947402945882
4452.226023782513,15824.97512257126
4452.24917766756,16394.516804663053
4452.272331673018,17001.32720748731
4452.29548579889,17059.74192186767
4452.318640045174,17176.403950823642
4452.341794411874,17271.413962914503
4452.364948898987,17299.606648895096
4452.388103506516,16966.506814556094
4452.4112582344615,16716.10397886816
4452.434413082823,16336.175590485467
4452.457568051602,16226.306173953008
4452.480723140799,15668.347636279907
4452.503878350413,15107.930289292275
4452.527033680448,14606.97914540009
4452.550189130902,14078.906290995976
4452.5733447017765,13584.792624795575
4452.596500393071,12993.396673809093
4452.619656204789,12556.009781250252
4452.642812136928,11938.495394283058
4452.66596818949,11480.67242841937
4452.689124362475,11242.517949511206
4452.7122806558855,11021.237461210823
4452.735437069719,10773.039766668982
4452.7585936039795,10746.611171839222
4452.781750258665,10827.741729164389
4452.804907033777,10861.46017535587
4452.828063929317,11091.470656869233
4452.851220945285,11344.569363368515
4452.87437808168,11608.258492285202
4452.897535338506,11983.270697633128
4452.92069271576,12146.788664956746
4452.943850213445,12310.818656565227
4452.967007831562,12325.518137129471
4452.99016557011,12219.381482761382
4453.01332342909,12036.205968601496
4453.036481408502,11707.722259265796
4453.059639508349,11566.624514125233
4453.08279772863,11364.952515935744
4453.105956069345,11279.477369521805
4453.129114530496,11418.840735386202
4453.152273112083,11545.71367191552
4453.175431814107,11744.298756475817
4453.198590636567,11635.77841714312
4453.221749579466,11557.035984449525
4453.244908642802,11378.917553829911
4453.268067826579,11165.813013109195
4453.291227130795,11005.54687040216
4453.314386555451,10613.433378419375
4453.337546100549,10335.672494051041
4453.360705766087,10583.541231714235
4453.3838655520685,10849.852583931404
4453.407025458493,10920.765293744305
4453.430185485361,11511.096224191717
4453.453345632673,12099.979430685426
4453.476505900429,12832.103787226586
4453.4996662886315,13502.756987896752
4453.52282679728,14101.915782383427
4453.545987426375,14242.330411409643
4453.569148175917,14812.863357858805
4453.592309045907,14562.972595656058
4453.615470036346,14384.105578293651
4453.638631147233,14193.298984829871
4453.661792378571,13977.407968027403
4453.684953730359,13824.66766188947
4453.708115202598,13641.222836632176
4453.731276795288,13493.941068572814
4453.754438508431,13187.56771904799
4453.777600342027,13354.8113750333
4453.800762296077,13616.232612460788
4453.82392437058,13929.92249550874
4453.847086565538,14330.799188673389
4453.870248880952,15020.701920759415
4453.8934113168225,15458.842203972661
4453.916573873149,15973.502130823008
4453.939736549933,16493.596203610265
4453.962899347174,16651.85907539384
4453.986062264875,16760.93204555319
4454.009225303034,16766.719095545788
4454.032388461654,16643.85105756482
4454.055551740734,16656.886280020637
4454.078715140275,16393.601699458144
4454.101878660277,15788.373009724453
4454.125042300742,15525.824591395662
4454.14820606167,15081.33281504057
4454.171369943061,14410.24493294706
4454.194533944917,13683.505570515712
4454.2176980672375,12794.128865195107
4454.240862310024,12027.689945808534
4454.264026673275,11180.480513790722
4454.287191156994,10363.195126049603
4454.31035576118,9643.270133463968
4454.333520485834,8808.523840252848
4454.356685330957,8014.04703436953
4454.379850296548,7424.954138259048
4454.40301538261,6812.125458444551
4454.426180589142,6228.306339627294
4454.449345916145,6017.251975333692
4454.4725113636205,6014.951255783622
4454.495676931568,6023.168192560885
4454.5188426199875,6242.575452910315
4454.542008428882,6444.241013891574
4454.565174358249,6879.855286792824
4454.588340408092,6990.410146312268
4454.611506578411,7046.92557626778
4454.634672869205,6786.910927162942
4454.657839280476,6317.201457624925
4454.681005812225,5926.808846393178
4454.704172464451,5460.7588527283715
4454.727339237156,4810.4038789951965
4454.750506130341,4278.362017988074
4454.773673144005,4004.3137685264755
4454.79684027815,3805.297895147671
4454.820007532776,3774.453759605966
4454.843174907884,3850.2904702872215
4454.866342403473,3991.2218962006873
4454.889510019546,4207.535826083059
4454.912677756102,4610.6643957423075
4454.935845613144,4991.311570365207
4454.959013590669,5595.692094605696
4454.982181688681,6127.59220436088
4455.005349907178,6642.230863894095
4455.028518246162,7011.241023705194
4455.051686705633,7258.194639173111
4455.074855285593,7423.404900453356
4455.098023986041,7716.781894741742
4455.121192806979,7978.362532845618
4455.144361748406,8453.6625331184
4455.167530810323,8750.75790923216
4455.190699992732,9096.14573233354
4455.213869295633,9324.472860571897
4455.237038719026,9606.123711943188
4455.260208262912,9682.344128633058
4455.283377927292,9545.928649030462
4455.306547712166,9485.16065343863
4455.329717617535,9513.566980836531
4455.352887643399,9367.326513756132
4455.37605778976,9414.020855631301
4455.399228056617,9802.403002791423
4455.422398443972,10365.267973638072
4455.445568951825,11063.698445663766
4455.468739580177,11922.381900483955
4455.491910329028,12605.804595577096
4455.515081198378,13001.166143726998
4455.538252188229,13590.0530420558
4455.561423298582,13767.75437804327
4455.584594529436,13543.969555928017
4455.607765880793,13253.332145566377
4455.630937352652,12854.335485801934
4455.654108945016,12299.153088470395
4455.677280657883,11539.853127250208
4455.700452491255,10733.114153667175
4455.723624445134,9985.100357488784
4455.746796519518,9320.575777973434
4455.7699687144095,8650.261519561758
4455.793141029808,7983.704145515575
4455.816313465714,7417.825651070007
4455.83948602213,6961.549130051742
4455.862658699055,6527.129315811497
4455.885831496489,6151.427392173119
4455.909004414434,6032.349373249786
4455.932177452891,6136.494301470112
4455.955350611858,6384.508010917504
4455.978523891339,6916.757400040674
4456.001697291333,7680.76467175812
4456.024870811841,8505.728072036845
4456.048044452862,9588.386796803372
4456.071218214399,10708.107673823459
4456.094392096451,11556.155062015958
4456.117566099019,12208.13955796208
4456.140740222105,12746.873485072847
4456.163914465707,12857.316794587197
4456.187088829828,12826.71713964182
4456.210263314468,12657.14746019779
4456.233437919626,12370.73884755923
4456.256612645306,11906.973756601321
4456.279787491505,11462.456608216768
4456.302962458226,10884.17965365354
4456.326137545469,10271.11164179652
4456.349312753233,9660.8477334705
4456.372488081522,9045.460525576958
4456.395663530333,8692.792198669806
4456.41883909967,8340.571085883903
4456.442014789531,8174.667588793667
4456.465190599917,8322.643625003075
4456.488366530831,8408.823213062738
4456.5115425822705,8618.87497145848
4456.5347187542375,8980.855130443333
4456.557895046733,9213.913354953389
4456.581071459757,9323.690488824557
4456.604247993311,9368.357004698155
4456.627424647395,9404.73289323231
4456.650601422009,9557.759308221326
4456.673778317154,9361.816607753783
4456.696955332832,9679.173549360889
4456.720132469041,10130.472612630754
4456.7433097257845,10756.969742789533
4456.766487103061,11404.144303584304
4456.789664600872,12225.517748189688
4456.8128422192185,13074.099380632792
4456.8360199581,13701.71771013989
4456.859197817518,14158.839789040418
4456.882375797473,14226.82780053311
4456.905553897966,14512.697568562398
4456.928732118997,14361.656143449416
4456.951910460566,14094.453311095876
4456.975088922674,13960.516750703884
4456.998267505323,13684.589429708592
4457.021446208513,13732.60742958513
4457.044625032244,13341.55798590119
4457.067803976516,13045.90150326519
4457.090983041332,12881.641420855622
4457.1141622266905,12877.107659396035
4457.1373415325925,12964.124611809646
4457.160520959039,13165.26255933495
4457.183700506031,13259.099798989197
4457.206880173568,13470.559496498874
4457.230059961651,13291.908820835904
4457.2532398702815,12964.337442278485
4457.27641989946,12563.854389457658
4457.299600049186,12271.368207703872
4457.322780319461,11583.23984449269
4457.345960710286,10925.80563195904
4457.36914122166,10456.716762471968
4457.392321853586,9690.095483943618
4457.415502606062,8971.326455148746
4457.43868347909,8266.338729646508
4457.461864472672,7762.971541365092
4457.485045586805,7421.333504547599
4457.508226821494,7196.255767182749
4457.5314081767365,7267.560461477719
4457.554589652534,7810.231122150051
4457.577771248887,8273.891608386863
4457.600952965797,9004.894194533845
4457.624134803263,9744.92866450886
4457.647316761288,10658.237342432703
4457.67049883987,11629.261405963847
4457.693681039011,12553.805739057556
4457.716863358712,13232.296934581786
4457.7400457989725,13770.408085096367
4457.763228359793,14230.337253747557
4457.7864110411765,14322.880250825647
4457.809593843121,14323.914740420172
4457.832776765628,14253.137316308565
4457.855959808699,14078.930032033202
4457.879142972333,13796.199782404037
4457.902326256532,13414.537591269873
4457.925509661296,13113.50942702359
4457.948693186626,12554.2261423592
4457.971876832522,11912.463615237117
4457.995060598985,11453.296275819255
4458.018244486016,11105.551192181823
4458.041428493615,10259.2355414839
4458.0646126217825,9708.602011429617
4458.08779687052,9067.715628056745
4458.110981239827,8482.277754707044
4458.134165729705,7987.744195028058
4458.157350340155,7785.173712115389
4458.180535071177,7735.324095085225
4458.203719922771,7716.180742945958
4458.226904894938,7965.560945215071
4458.2500899876795,8283.406459592428
4458.273275200995,8608.421824550816
4458.296460534886,8833.911573665513
4458.3196459893525,8973.616348669277
4458.342831564396,9327.096352759208
4458.366017260016,9621.840087058323
4458.389203076214,10006.309227091
4458.4123890129895,10551.339742532946
4458.435575070344,10975.950632318421
4458.458761248279,11138.680396135653
4458.481947546794,11237.99183815155
4458.505133965889,11499.850067174393
4458.528320505566,11406.915242968207
4458.551507165825,11386.404277319436
4458.574693946666,11309.912771566247
4458.597880848091,11487.284631621671
4458.6210678701,11927.954832223786
4458.644255012693,12469.013330142867
4458.6674422758715,12947.673009476594
4458.690629659636,13501.746627052593
4458.713817163986,14137.828813316086
4458.737004788924,14576.452329418691
4458.76019253445,14496.679228098963
4458.783380400563,14353.170419241282
4458.8065683872655,14094.795044989698
4458.829756494558,13600.27909963948
4458.85294472244,12943.730333086034
4458.876133070914,12340.118638228429
4458.899321539979,11698.136950511862
4458.922510129635,10747.157435199086
4458.945698839884,9753.746890549952
4458.968887670727,8893.432156603038
4458.992076622164,7971.192946332948
4459.015265694195,7064.613274854766
4459.0384548868215,6330.298359069268
4459.061644200044,5492.936572245881
4459.084833633862,4719.640398783732
4459.108023188278,4322.549664692127
4459.131212863292,4000.768967511823
4459.154402658904,3814.711999120049
4459.177592575114,3908.402899893035
4459.200782611925,4051.597849736109
4459.223972769336,4446.182327068004
4459.247163047347,4895.92972916452
4459.27035344596,5530.831173691002
4459.293543965176,6278.189464693519
4459.316734604993,6925.332366803545
4459.339925365414,7627.979440041989
4459.363116246439,8449.354706581456
4459.386307248069,9013.69131906431
4459.409498370304,9514.611886030916
4459.432689613145,10116.714006135193
4459.455880976592,10742.915395775297
4459.479072460647,11611.725730391254
4459.502264065309,12539.686455227004
4459.52545579058,13216.028207355947
4459.5486476364595,13671.141253444528
4459.571839602949,14129.884218711299
4459.595031690048,14428.235383453994
4459.618223897759,14466.62880151004
4459.641416226081,14522.021633460969
4459.664608675014,14026.473617161202
4459.687801244561,13786.241656966218
4459.710993934721,13565.916222150723
4459.734186745496,13056.137219019885
4459.757379676885,12765.839136912695
4459.780572728889,12528.235144991284
4459.803765901509,12460.064820190686
4459.8269591947455,12511.727520016602
4459.850152608599,12801.407153107795
4459.87334614307,13143.043320227334
4459.89653979816,13692.448928201131
4459.91973357387,14020.643655770158
4459.942927470198,14276.556411485752
4459.966121487147,14552.292151865839
4459.989315624717,14500.94152937865
4460.0125098829085,14329.358957221315
4460.035704261722,13699.850353405516
4460.058898761158,13175.841256148264
4460.082093381218,12556.000034542254
4460.105288121902,11815.212471753897
4460.12848298321,11125.789091278997
4460.151677965145,10350.55304967226
4460.1748730677045,9631.589917963332
4460.198068290891,8932.004856331805
4460.221263634704,8337.254884603082
4460.244459099145,7596.874078189627
4460.267654684215,7229.2295181449
4460.290850389914,7281.87487545795
4460.314046216243,7301.6325081762125
4460.337242163202,7698.295562113116
4460.360438230791,8494.107631377869
4460.383634419013,9395.66251351155
4460.406830727867,10472.605805708228
4460.430027157354,11486.46768540616
4460.453223707474,12301.707811979606
4460.476420378228,13406.756407847057
4460.499617169617,14273.23919421354
4460.522814081641,15030.505377650721
4460.5460111143,15591.222179794011
4460.569208267598,16139.479037331497
4460.592405541532,16465.480514477415
4460.615602936104,16631.197534414867
4460.638800451314,16539.79544328388
4460.661998087163,16643.060508879174
4460.685195843652,16766.560700834576
4460.708393720782,16547.24959440729
4460.731591718552,16514.28678155457
4460.754789836965,16396.7936588721
4460.777988076019,16118.574004494349
4460.801186435716,15890.030822671282
4460.824384916057,15557.828701741095
4460.847583517042,15337.153299827636
4460.870782238671,14907.906155173732
4460.893981080947,14626.799811732026
4460.917180043868,14195.632309929897
4460.940379127435,13432.241818368344
4460.963578331651,13126.428108275273
4460.986777656513,12407.364942016004
4461.009977102025,11595.70155904155
4461.033176668186,11185.97577940525
4461.056376354995,10283.466576063207
4461.079576162457,9300.145369752963
4461.102776090568,8429.256422331455
4461.125976139332,7652.341458241186
4461.149176308748,6929.910220559736
4461.172376598816,6405.43414724432
4461.195577009538,5859.411810480508
4461.218777540915,5834.480422001748
4461.241978192946,5616.812166013919
4461.265178965633,5602.302182117259
4461.2883798589755,5696.276714924554
4461.311580872974,5848.767345532088
4461.3347820076315,5942.93328651002
4461.357983262946,6050.505928633162
4461.381184638919,6366.698576819023
4461.404386135551,6196.007945177252
4461.4275877528435,6068.701279737832
4461.4507894907965,5852.888495056103
4461.4739913494095,5582.646574607551
4461.497193328685,5360.334484953939
4461.520395428623,5040.2806892758545
4461.543597649224,4788.936101212448
4461.566799990488,4699.718686761815
4461.590002452416,4537.105163031534
4461.61320503501,4308.22971509207
4461.636407738269,4229.628880809097
4461.659610562193,4087.7095831133984
4461.682813506784,4026.4326262418804
4461.706016572044,3984.161648360602
4461.729219757971,4179.575830955854
4461.752423064566,4583.667447150857
4461.775626491831,5070.533636569453
4461.798830039766,5434.460548427329
4461.82203370837,6049.798521657935
4461.845237497647,6631.732822316924
4461.868441407595,7088.8588678508295
4461.891645438215,7429.2446886817925
4461.914849589509,7610.787422247347
4461.938053861475,7665.776128799728
4461.961258254117,7490.552362824983
4461.984462767433,7428.472600316521
4462.007667401424,7225.138999293045
4462.030872156092,6927.028168721468
4462.0540770314365,6856.561410794566
4462.077282027459,6895.51169935299
4462.100487144158,7264.859386231635
4462.123692381537,7900.962650408077
4462.146897739594,8521.111102357736
4462.170103218332,9180.255401685201
4462.19330881775,9694.30406303749
4462.21651453785,10153.037569366446
4462.239720378631,10538.179037875505
4462.262926340095,10753.501417186022
4462.286132422241,10555.118377621195
4462.309338625071,10432.432285023553
4462.3325449485865,10387.676692348561
4462.355751392785,10177.925965162287
4462.3789579576705,10061.662320130165
4462.402164643242,9830.118747517732
4462.4253714495,9629.716872035613
4462.448578376446,9290.115872074148
4462.471785424079,9128.047426367397
4462.494992592401,9279.699338040338
4462.518199881412,9502.257745528575
4462.541407291114,9956.065419661973
4462.564614821506,10595.839714142481
4462.587822472589,11415.234125723544
4462.611030244365,12270.592990633793
4462.634238136832,13107.839022075243
4462.657446149992,13632.678430247766
4462.680654283847,14098.256275670132
