wave,flux
5000.025812696027,17726.407122640685
5000.051815424163,17414.448046286307
5000.0778182875265,17059.62372594368
5000.103821286119,16557.33977225815
5000.12982441994,15899.38782015805
5000.155827688991,15161.877435101467
5000.181831093272,14580.537345869005
5000.207834632784,14003.711089043554
5000.2338383075285,13350.297506166178
5000.259842117506,12720.997225051773
5000.285846062716,12089.170697761201
5000.311850143161,11533.110292933987
5000.33785435884,11176.661931379282
5000.363858709754,10958.50972845576
5000.389863195905,10708.383146243576
5000.415867817292,10688.130795874318
5000.441872573917,10808.03956298356
5000.4678774657805,11223.821561148812
5000.493882492882,11768.988897991425
5000.519887655224,12475.23317578991
5000.545892952806,13157.784657507262
5000.571898385629,13619.595394897206
5000.597903953694,13943.34976757043
5000.623909657001,14282.283910064385
5000.649915495552,14347.980241540941
5000.675921469346,14184.380547068498
5000.701927578384,14138.472486367078
5000.727933822669,13910.319505604613
5000.7539402021985,13565.107592522947
5000.779946716975,13212.844558295368
5000.805953366999,13114.903636099722
5000.831960152272,12934.435843513182
5000.857967072792,12998.699044479104
5000.883974128563,13229.128093345944
5000.9099813195835,13486.669510295365
5000.935988645855,13759.963766363682
5000.961996107378,14033.758093076596
5000.988003704153,14294.996570016106
5001.014011436181,14448.671339729526
5001.040019303464,14545.888808481675
5001.066027306,14879.184038379964
5001.092035443791,15231.464084868145
5001.118043716839,15339.266331200872
5001.1440521251425,15724.861910231924
5001.170060668704,16099.601379366608
5001.196069347523,16290.2309021161
5001.222078161601,16484.871035207525
5001.248087110937,16523.620898955473
5001.274096195534,16641.490760040975
5001.300105415392,16452.387867614067
5001.326114770512,16226.414396216056
5001.352124260892,16128.302873806746
5001.3781338865365,15859.625657525143
5001.4041436474445,15737.601616901376
5001.430153543616,15721.228031244058
5001.456163575053,15445.118473666433
5001.482173741756,15083.139839526893
5001.508184043724,14824.290927953885
5001.534194480961,14533.662269905682
5001.560205053464,14169.56836466396
5001.586215761236,13828.648130760786
5001.612226604278,13602.677643092637
5001.638237582589,13251.770651904468
5001.664248696171,12838.290381597368
5001.690259945024,12433.889601493654
5001.716271329149,11875.693936266733
5001.742282848547,11294.917802237356
5001.768294503218,10668.87264122818
5001.794306293164,10037.293599806859
5001.820318218383,9505.270216492354
5001.84633027888,8882.6192781263
5001.872342474651,8408.326589975468
5001.8983548056995,8244.370764281828
5001.924367272026,8237.301398702872
5001.9503798736305,8478.273351155096
5001.976392610514,8879.105580241183
5002.002405482678,9814.883287863659
5002.028418490122,10710.760238005116
5002.054431632847,12041.741782831956
5002.080444910854,13226.55275205254
5002.106458324142,14370.533214922963
5002.1324718727155,15339.509683976567
5002.158485556572,16010.88169675986
5002.184499375713,16582.55083072173
5002.210513330139,17142.303002781926
5002.236527419852,17488.460685141217
5002.262541644852,17631.30532634462
5002.288556005138,17699.76237312549
5002.314570500714,17805.47972217902
5002.340585131577,17881.464282526926
5002.36659989773,17770.561144944742
5002.392614799174,17528.410629676924
5002.418629835909,17158.77534967144
5002.444645007936,17067.667905181872
5002.4706603152545,16981.971210980333
5002.496675757866,16504.64360332933
5002.522691335772,16275.359700463594
5002.548707048972,15757.52983049552
5002.574722897468,15200.502033764842
5002.600738881259,14754.553478394846
5002.626755000347,14236.422897433582
5002.652771254732,13809.888786792595
5002.678787644415,13212.442819924168
5002.704804169397,12717.138461689654
5002.730820829678,12332.463909500873
5002.75683762526,11863.092472854989
5002.782854556142,11582.973967229105
5002.8088716223265,11375.775078054161
5002.834888823812,11211.246819231004
5002.860906160601,11218.674653376704
5002.886923632695,11552.795848024434
5002.912941240092,12003.844115988659
5002.938958982793,12930.651764764923
5002.9649768608015,13757.526771620192
5002.990994874116,14805.615212378125
5003.017013022737,15639.72623123007
5003.043031306666,16395.825185143134
5003.069049725905,17095.5723075232
5003.095068280452,17460.23615776102
5003.121086970309,17746.19678739659
5003.147105795477,18024.495835879276
5003.173124755956,18134.423524043705
5003.199143851748,18210.788343648
5003.225163082852,18205.539681762788
5003.251182449269,18068.280356882668
5003.277201951001,18092.701923642428
5003.3032215880485,18090.80847908957
5003.32924136041,18023.820255899023
5003.35526126809,17947.805976769378
5003.381281311085,18011.42323373049
5003.407301489398,17848.849186521096
5003.433321803031,17817.606923258558
5003.459342251982,17702.22798895811
5003.4853628362525,17503.949390246435
5003.511383555844,17327.40152961305
5003.537404410757,17104.75230738247
5003.563425400991,16934.05844300898
5003.589446526548,16706.103340765814
5003.615467787429,16511.71876445345
5003.641489183634,16228.932636578136
5003.667510715163,15816.832431855222
5003.693532382018,15634.976705797748
5003.719554184199,15354.87578896386
5003.745576121707,14927.413417980846
5003.771598194542,14695.040569131006
5003.797620402706,14447.708534213458
5003.823642746199,14188.859758699911
5003.849665225021,14258.832423161713
5003.875687839174,14073.41557735589
5003.901710588658,14053.111627836553
5003.927733473473,14303.123012949081
5003.953756493622,14329.930393159331
5003.979779649103,14486.342227186957
5004.005802939919,14492.156381550909
5004.031826366068,14374.364676507485
5004.057849927553,14074.33730176381
5004.083873624375,13900.422937748597
5004.109897456533,13923.401072711158
5004.135921424028,13839.784355288182
5004.161945526862,13993.056316180811
5004.187969765035,14373.498531338035
5004.213994138547,14904.285496747934
5004.240018647399,15272.222762934638
5004.266043291592,15549.826265354379
5004.292068071127,15990.303946260985
5004.318092986004,16286.750462945432
5004.344118036223,16260.357751295784
5004.370143221788,16538.8678943854
5004.396168542696,16606.740250472016
5004.422193998949,16706.712548076466
5004.448219590549,16741.062686014142
5004.474245317495,16966.19145546551
5004.500271179789,17176.08630621082
5004.52629717743,17334.698912171585
5004.5523233104195,17562.21427415097
5004.578349578759,17790.65147320468
5004.604375982449,17998.303434747337
5004.630402521489,18073.584071115416
5004.656429195881,18049.1471737506
5004.682456005625,18055.777808856023
5004.708482950721,17976.328256037807
5004.734510031172,17956.22229994458
5004.760537246977,17807.834362187787
5004.7865645981365,17749.746627994464
5004.812592084652,17357.117177648102
5004.838619706525,17120.490737842967
5004.8646474637535,16783.099389905536
5004.890675356341,16535.79819065449
5004.916703384286,16247.82497665547
5004.942731547591,15658.596351200466
5004.968759846256,15272.315890783813
5004.994788280281,14868.373810884537
5005.020816849668,14332.178718538391
5005.046845554417,13864.277492273557
5005.072874394528,13442.047471454402
5005.098903370003,13065.948132631762
5005.124932480842,12660.855823710084
5005.150961727047,12284.783126405928
5005.176991108617,11924.504701585063
5005.203020625552,11702.386642843918
5005.229050277856,11602.759824991113
5005.255080065526,11648.158341222046
5005.281109988566,12065.264489805682
5005.3071400469735,12595.313744500078
5005.333170240751,13158.884055071901
5005.3592005699,13652.457968849776
5005.38523103442,14160.278130530338
5005.411261634312,14559.488810819194
5005.4372923695755,14518.692660388799
5005.463323240213,14490.90556079615
5005.489354246225,14218.243536160639
5005.515385387611,13538.391006836862
5005.541416664373,12970.570682943746
5005.567448076511,12396.872592523023
5005.593479624025,11553.331793011312
5005.619511306918,10849.801744218632
5005.645543125189,10309.408554442522
5005.671575078838,9604.813737067094
5005.697607167867,9066.96046662606
5005.723639392277,8394.969808279628
5005.749671752068,7891.095257036647
5005.77570424724,7683.356260566316
5005.8017368777955,7628.318092333975
5005.8277696437335,7678.766189980356
5005.853802545055,7851.113195108766
5005.879835581762,8177.19830555003
5005.905868753854,8563.933369581175
5005.931902061331,8771.131281298238
5005.957935504196,8941.00124937298
5005.983969082448,8873.971205925769
5006.010002796088,8690.116250445035
5006.036036645117,8378.371028150294
5006.062070629536,7970.190603894874
5006.088104749344,7542.411519270048
5006.114139004544,7102.69657450905
5006.140173395135,6937.057135144348
5006.166207921118,6830.795399687988
5006.192242582495,7011.274465743178
5006.218277379266,7416.952446737461
5006.244312311431,8230.365969089957
5006.270347378991,9263.077826867511
5006.296382581946,10455.114351403603
5006.322417920299,11764.60364913223
5006.348453394048,12858.113369718789
5006.374489003196,14036.964248236503
5006.400524747743,14982.91438705217
5006.426560627688,15839.668858644205
5006.452596643034,16523.689770559875
5006.47863279378,17024.456405092616
5006.504669079928,17305.780888480764
5006.530705501478,17415.356763289576
5006.556742058431,17475.339503814346
5006.582778750788,17563.916309692533
5006.608815578549,17562.35591149992
5006.634852541715,17483.198273888924
5006.660889640287,17520.491389024006
5006.686926874265,17486.774158850923
5006.71296424365,17402.939979543695
5006.739001748444,17424.57188729576
5006.765039388645,17595.760247360155
5006.791077164256,17461.363764189588
5006.817115075277,17100.116405111814
5006.843153121708,17089.033906004744
5006.869191303552,16678.932573314807
5006.895229620806,16434.440559664123
5006.921268073474,16107.106712693412
5006.947306661555,15837.491394334487
5006.97334538505,15293.87910894621
5006.999384243961,14615.672832390133
5007.025423238286,13810.892252349899
5007.051462368028,13118.614788609571
5007.077501633187,12382.872833417816
5007.103541033764,11641.009172181297
5007.129580569759,10903.064164220217
5007.155620241173,10051.923864035254
5007.181660048007,9265.58211125983
5007.207699990262,8502.208997999747
5007.233740067937,7994.801199310081
5007.259780281035,7676.490730437887
5007.285820629555,7513.913999289474
5007.311861113499,7547.874169653736
5007.337901732866,7984.484993263125
5007.363942487658,8663.339426686063
5007.389983377876,9556.202879172944
5007.41602440352,10604.468451500092
5007.442065564591,11745.653693899432
5007.468106861089,12903.198272933694
5007.494148293015,13907.191744668868
5007.520189860371,14765.09664127442
5007.546231563156,15528.115339182561
5007.572273401372,16169.494603341127
5007.598315375018,16483.882254940443
5007.624357484096,16626.16358853026
5007.650399728607,16635.54734383836
5007.676442108551,16674.792534779725
5007.702484623929,16733.56694705148
5007.728527274741,16644.48773553134
5007.754570060989,16630.314448424655
5007.780612982673,16604.957769814984
5007.806656039793,16585.398426741373
5007.832699232351,16602.898914657937
5007.858742560347,16998.99797540348
5007.884786023782,17446.219094740194
5007.910829622656,17660.31563872998
5007.936873356971,18082.264108101575
5007.962917226726,18274.21758287395
5007.988961231923,18396.63063662969
5008.015005372563,18704.6643982895
5008.041049648646,18812.573568491945
5008.067094060171,18742.54989651124
5008.0931386071425,18796.842592018584
5008.119183289558,18778.839343354513
5008.14522810742,18742.82504305807
5008.171273060728,18748.109699257162
5008.197318149483,18866.618501537152
5008.223363373687,18959.873303037075
5008.249408733339,19035.354791944865
5008.27545422844,19021.88784085832
5008.301499858992,18952.187260796683
5008.327545624995,19116.244647262352
5008.353591526448,19170.884665567435
5008.379637563355,19003.4802369359
5008.405683735714,18848.98257554435
5008.431730043527,18780.6203690826
5008.457776486794,18770.202459915206
5008.483823065515,18702.96157362914
5008.509869779693,18396.004662513238
5008.535916629327,18482.365229133713
5008.561963614418,18372.902252231594
5008.588010734968,18108.66058778143
5008.614057990975,18120.70689907695
5008.640105382442,18091.85883158837
5008.666152909369,18039.348054620612
5008.692200571756,17917.371181800525
5008.718248369605,17864.9171241122
5008.744296302916,17951.504445712315
5008.77034437169,18002.298850601
5008.796392575927,18219.611445621813
5008.822440915628,18543.142477155157
5008.848489390794,18730.155608111778
5008.874538001426,18725.740655748494
5008.900586747524,18720.511365410515
5008.926635629089,18867.951903740406
5008.952684646122,18931.952785099373
5008.978733798623,18908.257458871813
5009.004783086593,18870.715367431058
5009.030832510033,19021.925940405992
5009.056882068944,18893.59878049563
5009.082931763326,18750.65663386673
5009.108981593179,18944.485643912423
5009.135031558506,18800.260428873946
5009.161081659306,18952.976699079976
5009.187131895579,18787.314671948436
5009.213182267327,18914.023308321008
5009.239232774552,18793.548282164
5009.265283417251,18933.74043911402
5009.291334195428,18690.244573835706
5009.317385109083,18626.384011639046
5009.343436158216,18581.258332545145
5009.369487342828,18427.301572393946
5009.395538662919,18369.102824061905
5009.421590118491,18200.615439155692
5009.447641709544,17990.023463797897
5009.473693436078,17840.446581912638
5009.499745298095,17614.364941027747
5009.525797295596,17328.983047097186
5009.55184942858,17131.461530126246
5009.577901697049,17087.990649505657
5009.603954101003,16934.84872547761
5009.630006640443,16614.58193054654
5009.65605931537,16404.51388058667
5009.682112125784,16411.235336894675
5009.708165071686,16244.370333908111
5009.7342181530785,16125.679005108073
5009.760271369959,16148.292149528213
5009.78632472233,16384.81119594141
5009.812378210192,16565.802894775123
5009.838431833546,16395.028027561995
5009.864485592391,16465.182485061003
5009.890539486731,16275.649438590288
5009.916593516564,15915.366435502581
5009.942647681891,15600.366681586784
5009.968701982713,15234.884710510014
5009.994756419032,14736.714407466317
5010.020810990847,14225.967183219007
5010.046865698159,13617.342305407356
5010.072920540969,13034.45558744658
5010.098975519279,12600.257702579895
5010.125030633087,12155.347155780035
5010.151085882395,11974.717944923423
5010.177141267204,12051.633960517922
5010.2031967875155,12004.767795190664
5010.229252443328,12050.917639724463
5010.255308234644,12178.454893639779
5010.281364161464,12417.033268314834
5010.307420223788,12947.61998524262
5010.333476421617,13360.425463359406
5010.359532754951,13934.207116863274
5010.3855892237925,14790.525761678948
5010.4116458281405,15540.909901113495
5010.437702567997,16308.067955172033
5010.463759443362,17077.280913506424
5010.489816454236,17559.22503461332
5010.51587360062,18217.331386214522
5010.541930882514,18298.334051749647
5010.56798829992,18457.08279919503
5010.5940458528385,18505.164176059843
5010.62010354127,18470.855757947473
5010.646161365214,18335.1321349816
5010.672219324672,18299.308329184736
5010.698277419646,18110.317002512307
5010.724335650135,17728.125452564513
5010.7503940161405,17358.710470522485
5010.7764525176635,16904.67912310394
5010.802511154703,16491.809041769204
5010.828569927262,16126.487969063486
5010.85462883534,15685.046600365384
5010.880687878937,15292.390350767206
5010.906747058056,14922.50161557427
5010.932806372695,14692.819317174588
5010.958865822856,14580.48637426277
5010.98492540854,14291.769842140382
5011.0109851297475,14227.464642073748
5011.0370449864795,14482.475574675726
5011.063104978735,14907.399207762875
5011.089165106517,15537.112793641189
5011.115225369825,16215.553369983541
5011.14128576866,16868.200382680738
5011.167346303022,17470.271243950603
5011.193406972913,17921.303383621773
5011.219467778333,18282.588452337935
5011.2455287192815,18507.09265655051
5011.271589795761,18586.30951991645
5011.297651007772,18661.27734442344
5011.323712355315,18784.74256265442
5011.34977383839,18713.524268358597
5011.375835456999,18750.597599996978
5011.401897211142,18851.442597553436
5011.427959100819,18832.73086277027
5011.454021126031,18746.116555579873
5011.4800832867795,18528.02213236783
5011.506145583065,18366.223714817774
5011.532208014888,18290.579030781886
5011.558270582248,18092.564804189133
5011.584333285148,17845.554644922515
5011.610396123588,17563.562685040066
5011.636459097567,17200.429642645544
5011.662522207088,16772.39493360973
5011.68858545215,16262.541510743262
5011.714648832754,15791.741846879986
5011.740712348902,15234.59202096681
5011.766776000594,14589.394632649924
5011.79283978783,13969.937608499262
5011.818903710611,13295.849973505043
5011.844967768939,12658.434244068187
5011.871031962813,11893.6023206829
5011.897096292234,11288.89163387035
5011.923160757203,10551.027523716722
5011.949225357721,9852.568855745536
5011.975290093788,9167.838748921207
5012.001354965406,8447.50537812813
5012.027419972574,7754.295123871065
5012.053485115294,7097.8100002329975
5012.079550393566,6550.57385714039
5012.105615807392,6082.402945900087
5012.13168135677,5976.673099774716
5012.157747041703,6078.879076058713
5012.183812862192,6394.596772807018
5012.209878818236,6882.440294451652
5012.235944909837,7639.171085781251
5012.262011136994,8494.488631464956
5012.28807749971,9240.171481117946
5012.3141439979845,10078.10458050143
5012.340210631818,10862.10596783894
5012.366277401212,11411.235041458665
5012.392344306166,11858.563666717739
5012.418411346682,12077.921903065935
5012.44447852276,12129.4726579219
5012.470545834401,12196.785512634942
5012.496613281605,12109.644579010128
5012.522680864374,11968.941426749525
5012.548748582707,12057.58262537663
5012.574816436606,12345.34447961664
5012.600884426071,12837.662623299748
5012.626952551104,13444.090142467763
5012.653020811705,13884.35231464085
5012.679089207873,14473.508331319646
5012.705157739611,14670.437111283609
5012.73122640692,14948.348383425959
5012.757295209798,15303.344389077774
5012.7833641482475,15392.135642262176
5012.80943322227,15777.956017056747
5012.835502431864,16113.327597992655
5012.861571777033,16542.326539920756
5012.887641257775,16947.6738573089
5012.9137108740915,17382.7885751086
5012.939780625984,17669.43606837561
5012.965850513452,17863.855956989657
5012.991920536498,17752.50880204229
5013.017990695121,17773.430609912073
5013.044060989323,17693.4365699549
5013.070131419104,17357.396596076404
5013.096201984464,17053.037618197533
5013.122272685405,16604.442897645054
5013.148343521927,16068.1881175198
5013.17441449403,15629.07483023267
5013.200485601717,15072.120290257144
5013.226556844987,14659.926717651104
5013.2526282238405,14173.916764098447
5013.278699738279,13500.426069453437
5013.304771388303,13152.096536056282
5013.330843173913,12581.60181516745
5013.35691509511,12284.861139886905
5013.382987151894,11865.504410044587
5013.409059344267,11599.782264095355
5013.435131672228,11645.334445405206
5013.46120413578,11673.11247121798
5013.487276734921,11797.549209346516
5013.513349469653,11774.979123190074
5013.539422339977,11825.204666563543
5013.565495345894,11513.187183407437
5013.5915684874035,11167.412331095173
5013.617641764507,10828.080258478773
5013.643715177206,10376.648830710546
5013.6697887254995,9921.423501474748
5013.695862409389,9449.928959426306
5013.721936228875,9195.819369600711
5013.748010183958,8911.677800586887
5013.77408427464,9020.590919203225
5013.800158500921,9547.464292380715
5013.826232862801,9996.852776794538
5013.852307360281,10773.665504646511
5013.8783819933615,11506.967069134666
5013.904456762045,12195.697199340317
5013.930531666329,12764.347839907457
5013.956606706218,13296.195694429622
5013.982681881709,13438.229838620915
5014.008757192805,13241.996584206885
5014.034832639507,12885.74981968502
5014.060908221814,12442.478306726176
5014.086983939728,12056.412193368442
5014.113059793249,11516.653837013286
5014.139135782378,10842.506405800248
5014.165211907116,10178.834309021868
5014.1912881674625,9448.653448080175
