wave,flux
4450.003811362098,10157.190704170238
4450.026953690486,10196.132762054343
4450.050096139227,10358.167388670963
4450.073238708321,10079.330812601005
4450.096381397769,10195.822581920087
4450.119524207569,10040.953137552353
4450.142667137726,9912.848596105207
4450.165810188237,9790.92430554811
4450.188953359103,9251.768226781343
4450.212096650326,8775.597647668
4450.2352400619075,8306.852974267993
4450.258383593846,7833.059920536043
4450.281527246142,7376.0904739494135
4450.304671018797,6767.000101780439
4450.327814911813,6282.414694645148
4450.350958925188,5720.013018633885
4450.374103058924,5096.918445909111
4450.3972473130225,4575.618672141509
4450.420391687483,4118.701415430563
4450.443536182305,3710.1393124547335
4450.466680797492,3455.37146255685
4450.489825533042,3261.7867590523056
4450.512970388957,3082.561399671661
4450.536115365237,3006.519395049414
4450.559260461882,2988.194408581761
4450.582405678895,3089.9916343775126
4450.605551016274,3238.9246592540303
4450.628696474022,3317.6436425700476
4450.651842052138,3597.978123358557
4450.674987750623,3972.7625802799967
4450.698133569476,4362.988546885186
4450.721279508702,4913.2433275668645
4450.744425568297,5313.782946611034
4450.767571748264,5778.84996307324
4450.790718048604,6136.5609635561495
4450.813864469315,6336.6447510253365
4450.837011010401,6546.126417011815
4450.86015767186,6758.139720161264
4450.883304453694,7129.0012312242025
4450.906451355903,7327.889809499171
4450.929598378489,7897.94291359934
4450.95274552145,8212.273976639253
4450.975892784789,8535.026868475512
4450.999040168505,8816.046404548533
4451.022187672601,9265.842672276305
4451.045335297074,9813.465377612109
4451.068483041929,10368.145847234839
4451.091630907163,10777.103835191429
4451.114778892777,11178.964407588452
4451.137926998774,11564.422310186868
4451.161075225153,11890.260649635684
4451.184223571914,12164.147372647625
4451.207372039059,12149.48871671293
4451.230520626587,12129.65952495212
4451.253669334501,12026.786150920456
4451.2768181628,11869.87749546295
4451.299967111485,11663.591804370262
4451.323116180556,11315.224042617065
4451.346265370014,10934.04315604489
4451.369414679861,10499.112934381812
4451.392564110095,10148.886629880326
4451.415713660719,9831.523170252656
4451.438863331732,9316.485765645732
4451.462013123136,8806.943413849232
4451.48516303493,8424.297139368337
4451.508313067117,7878.540084036102
4451.531463219695,7424.06309395503
4451.554613492666,7099.102807139478
4451.577763886031,6797.589108808388
4451.60091439979,6470.976478055976
4451.624065033943,6140.967956432233
4451.647215788492,5957.132053447554
4451.670366663436,5973.737341555003
4451.693517658777,6153.727909955826
4451.716668774516,6502.192353331704
4451.739820010652,7128.921239187229
4451.762971367186,7663.853936566865
4451.78612284412,8209.81192648026
4451.8092744414525,8647.978086378163
4451.832426159187,9208.312916611374
4451.855577997321,9570.697765842877
4451.878729955857,9796.10606786207
4451.901882034796,10023.86113196362
4451.925034234137,9898.823465373951
4451.948186553881,9784.724349254659
4451.97133899403,9843.844047202836
4451.994491554583,9794.221176021543
4452.017644235542,9473.450664119318
4452.040797036907,9280.439495725173
4452.063949958678,9087.822659205163
4452.087103000857,9217.619794451528
4452.1102561634425,9238.911407603358
4452.133409446437,9387.745814527101
4452.156562849841,9727.71672393305
4452.179716373655,10148.875141630218
4452.202870017878,10661.658621700817
4452.226023782513,11022.69077015064
4452.24917766756,11372.430132286916
4452.272331673018,11757.856663345341
4452.29548579889,12025.163704362227
4452.318640045174,12154.772413342447
4452.341794411874,12145.720580629126
4452.364948898987,12056.916091146535
4452.388103506516,11999.988362792797
4452.4112582344615,11764.124659548257
4452.434413082823,11706.307296142659
4452.457568051602,11659.092292751448
4452.480723140799,11397.260654724158
4452.503878350413,11152.004322476992
4452.527033680448,11047.735188622562
4452.550189130902,10615.241768512284
4452.5733447017765,10534.314369220494
4452.596500393071,10131.454436157295
4452.619656204789,9680.433769621623
4452.642812136928,9322.465896069814
4452.66596818949,9022.503948102714
4452.689124362475,8796.348432254263
4452.7122806558855,8506.062199866115
4452.735437069719,8512.125275687826
4452.7585936039795,8235.668948460363
4452.781750258665,8257.351815683627
4452.804907033777,8122.762466157581
4452.828063929317,8177.932595543261
4452.851220945285,8336.268074907963
4452.87437808168,8362.136680656547
4452.897535338506,8503.024150590569
4452.92069271576,8749.953848664183
4452.943850213445,8838.526826955122
4452.967007831562,8876.624265374121
4452.99016557011,9048.857239895693
4453.01332342909,8920.83037257906
4453.036481408502,8756.17451541027
4453.059639508349,8723.103530996988
4453.08279772863,8569.945302439204
4453.105956069345,8423.040058586863
4453.129114530496,8428.345577291702
4453.152273112083,8436.896135292238
4453.175431814107,8437.442240107324
4453.198590636567,8455.817044746032
4453.221749579466,8576.447542207665
4453.244908642802,8608.64131251098
4453.268067826579,8452.439210552619
4453.291227130795,8361.868488707476
4453.314386555451,8238.017305179912
4453.337546100549,8217.993119060295
4453.360705766087,8155.180870169222
4453.3838655520685,7921.089941812489
4453.407025458493,8069.319803054245
4453.430185485361,8218.754589003536
4453.453345632673,8401.19138434062
4453.476505900429,8795.842556437748
4453.4996662886315,9246.580113913411
4453.52282679728,9547.361557168599
4453.545987426375,9893.58167734565
4453.569148175917,10219.18521968562
4453.592309045907,10377.683432048096
4453.615470036346,10577.193602473068
4453.638631147233,10468.593940426315
4453.661792378571,10451.782316040779
4453.684953730359,10339.995602805788
4453.708115202598,10274.341082198256
4453.731276795288,10235.540805396718
4453.754438508431,9978.745575639274
4453.777600342027,10089.574994325758
4453.800762296077,10044.16492205077
4453.82392437058,10136.203690557864
4453.847086565538,10227.271306024215
4453.870248880952,10593.512212146657
4453.8934113168225,10829.89117888491
4453.916573873149,11296.736653083106
4453.939736549933,11430.709781126337
4453.962899347174,11695.462906028557
4453.986062264875,11854.513137532007
4454.009225303034,11712.233082611445
4454.032388461654,11755.282641549227
4454.055551740734,11775.821586887381
4454.078715140275,11676.954120422306
4454.101878660277,11387.289642494585
4454.125042300742,11225.335122404229
4454.14820606167,10811.353303279417
4454.171369943061,10430.402087876555
4454.194533944917,10021.579375492527
4454.2176980672375,9732.310618555526
4454.240862310024,9043.48577443361
4454.264026673275,8631.04501124752
4454.287191156994,8277.830710854589
4454.31035576118,7760.1128715894965
4454.333520485834,7105.111300830443
4454.356685330957,6602.559866169258
4454.379850296548,6206.272667506275
4454.40301538261,5656.685170237791
4454.426180589142,5273.30920180695
4454.449345916145,4940.1412913551685
4454.4725113636205,4651.275153926527
4454.495676931568,4522.441330023398
4454.5188426199875,4481.702329773047
4454.542008428882,4494.552940223199
4454.565174358249,4537.337416756427
4454.588340408092,4700.160418159644
4454.611506578411,4874.730350587889
4454.634672869205,4913.246989874078
4454.657839280476,4723.566312139058
4454.681005812225,4554.507177881107
4454.704172464451,4422.6767927065175
4454.727339237156,4140.116618850487
4454.750506130341,3830.393313634799
4454.773673144005,3522.0117322317637
4454.79684027815,3305.391173743774
4454.820007532776,3113.579041343268
4454.843174907884,2974.8892026170793
4454.866342403473,2890.3964096543295
4454.889510019546,2963.2335504803245
4454.912677756102,3087.077812312265
4454.935845613144,3354.843067233139
4454.959013590669,3605.838803369364
4454.982181688681,3938.772846539188
4455.005349907178,4317.907446972565
4455.028518246162,4722.348851839552
4455.051686705633,5022.284607031313
4455.074855285593,5268.1690136715615
4455.098023986041,5450.026075016758
4455.121192806979,5693.086636726581
4455.144361748406,5836.099861435105
4455.167530810323,5983.981327641108
4455.190699992732,6342.442288649202
4455.213869295633,6627.425359851496
4455.237038719026,6812.219176969365
4455.260208262912,6998.479149734994
4455.283377927292,7213.102752006248
4455.306547712166,7091.630428704952
4455.329717617535,7066.595210844551
4455.352887643399,7045.777891791197
4455.37605778976,6895.341328312148
4455.399228056617,7073.872830929201
4455.422398443972,7394.298065579442
4455.445568951825,7663.25741582065
4455.468739580177,8100.423991899267
4455.491910329028,8341.232460814046
4455.515081198378,8841.006699479116
4455.538252188229,9273.687813332146
4455.561423298582,9468.714529726072
4455.584594529436,9497.728645559504
4455.607765880793,9628.599244423429
4455.630937352652,9512.881630593802
4455.654108945016,9190.789663773357
4455.677280657883,8717.15410722805
4455.700452491255,8395.126547265134
4455.723624445134,7909.0674654031545
4455.746796519518,7389.141206991741
4455.7699687144095,6987.914310137504
4455.793141029808,6504.627337273241
4455.816313465714,6110.909716413741
4455.83948602213,5648.115969393452
4455.862658699055,5356.258386645715
4455.885831496489,5130.679474006218
4455.909004414434,4882.275674424836
4455.932177452891,4707.0298215029325
4455.955350611858,4740.023487392446
4455.978523891339,4932.578415347338
4456.001697291333,5215.435694584791
4456.024870811841,5524.315438773292
4456.048044452862,5998.655051306604
4456.071218214399,6547.665509199523
4456.094392096451,7207.053790362323
4456.117566099019,7774.074275992717
4456.140740222105,8362.719961045845
4456.163914465707,8815.56126067076
4456.187088829828,9036.659826381421
4456.210263314468,9124.128499473303
4456.233437919626,9047.478266622678
4456.256612645306,8868.987367610636
4456.279787491505,8714.468676095285
4456.302962458226,8482.941047854034
4456.326137545469,8164.179925545733
4456.349312753233,7839.252144471185
4456.372488081522,7464.166208820366
4456.395663530333,7159.655780416578
4456.41883909967,6715.5319081354855
4456.442014789531,6383.814640537126
4456.465190599917,6347.594128331992
4456.488366530831,6353.272159010551
4456.5115425822705,6261.5316639511275
4456.5347187542375,6331.902748158292
4456.557895046733,6631.48927463532
4456.581071459757,6799.751433100157
4456.604247993311,6879.00924811607
4456.627424647395,7025.7051419483205
4456.650601422009,7129.715834381424
4456.673778317154,7092.313523115889
4456.696955332832,7190.185151026328
4456.720132469041,7301.957118358498
4456.7433097257845,7413.444314928441
4456.766487103061,7811.600888333727
4456.789664600872,8127.865648641652
4456.8128422192185,8596.092621389065
4456.8360199581,9097.20287960542
4456.859197817518,9419.665457251365
4456.882375797473,9958.471458290445
4456.905553897966,10171.366451568803
4456.928732118997,10235.315999269926
4456.951910460566,10335.28659319726
4456.975088922674,10304.532151271822
4456.998267505323,10248.524782218776
4457.021446208513,10160.824855850458
4457.044625032244,9909.531019226079
4457.067803976516,10034.452388803395
4457.090983041332,9856.606751923931
4457.1141622266905,9649.853946100066
4457.1373415325925,9485.68002341548
4457.160520959039,9494.63698628144
4457.183700506031,9476.277132596564
4457.206880173568,9726.677444081855
4457.230059961651,9450.646211401376
4457.2532398702815,9405.187128854963
4457.27641989946,9360.767986795852
4457.299600049186,9182.635735513122
4457.322780319461,8853.829242069496
4457.345960710286,8444.661051676496
4457.36914122166,8061.352976050805
4457.392321853586,7689.9221084776245
4457.415502606062,7435.960928548362
4457.43868347909,6765.261965551205
4457.461864472672,6555.7027140087885
4457.485045586805,6121.726831592996
4457.508226821494,5867.752016062985
4457.5314081767365,5681.2740104796685
4457.554589652534,5721.099266197192
4457.577771248887,5916.588038499375
4457.600952965797,6210.596001128659
4457.624134803263,6676.482682909526
4457.647316761288,7103.607824582178
4457.67049883987,7717.839141115114
4457.693681039011,8225.075971582899
4457.716863358712,8701.421877551244
4457.7400457989725,9337.290389707283
4457.763228359793,9670.820048835172
4457.7864110411765,10044.045137777124
4457.809593843121,10143.43348745683
4457.832776765628,10250.947353383275
4457.855959808699,10131.839541338832
4457.879142972333,10083.667237432814
4457.902326256532,9775.056441861607
4457.925509661296,9578.054426207764
4457.948693186626,9299.542444823011
4457.971876832522,9270.07500371572
4457.995060598985,8896.314317385477
4458.018244486016,8477.1778265054
4458.041428493615,8061.454048542149
4458.0646126217825,7722.40564167383
4458.08779687052,7240.806823363417
4458.110981239827,6747.75928614977
4458.134165729705,6732.456362680852
4458.157350340155,6185.789640654302
4458.180535071177,6037.911554842576
4458.203719922771,5992.010861924385
4458.226904894938,5970.285029710643
4458.2500899876795,6099.433304629885
4458.273275200995,6160.577247501428
4458.296460534886,6383.27925411015
4458.3196459893525,6534.702635711924
4458.342831564396,6778.95258542156
4458.366017260016,6819.850807438237
4458.389203076214,7151.540108450244
4458.4123890129895,7441.517197000406
4458.435575070344,7592.143995129208
4458.458761248279,7973.391421168631
4458.481947546794,8170.668698501598
4458.505133965889,8258.163686392652
4458.528320505566,8449.925358313434
4458.551507165825,8497.536005744567
4458.574693946666,8583.541784724202
4458.597880848091,8536.419198430052
4458.6210678701,8632.599918130922
4458.644255012693,8901.827552658175
4458.6674422758715,8929.537204203494
4458.690629659636,9164.215764264356
4458.713817163986,9568.8155473276
4458.737004788924,9939.245197181894
4458.76019253445,10053.15346539044
4458.783380400563,10302.457077119618
4458.8065683872655,9979.74681718476
4458.829756494558,9938.419577213603
4458.85294472244,9662.07728057234
4458.876133070914,9077.73688630095
4458.899321539979,8609.36815352561
4458.922510129635,8194.971214722536
4458.945698839884,7796.304126794519
4458.968887670727,7193.782187794843
4458.992076622164,6450.886755136695
4459.015265694195,5930.623354309027
4459.0384548868215,5370.45237534116
4459.061644200044,4921.389817543288
4459.084833633862,4329.988250187955
4459.108023188278,3865.220284238274
4459.131212863292,3514.0284047069226
4459.154402658904,3328.599650323745
4459.177592575114,3123.8031315988787
4459.200782611925,3205.0651598166764
4459.223972769336,3172.1186270898297
4459.247163047347,3424.1496289306106
4459.27035344596,3703.4391527359535
4459.293543965176,4010.127333298245
4459.316734604993,4523.9426879110215
4459.339925365414,5009.654605171462
4459.363116246439,5518.808853044545
4459.386307248069,6052.918012813058
4459.409498370304,6539.1299187639725
4459.432689613145,6948.3207856187355
4459.455880976592,7481.0016757909325
4459.479072460647,7881.695225430782
4459.502264065309,8282.291232488178
4459.52545579058,8735.307132010985
4459.5486476364595,9174.660685234632
4459.571839602949,9668.199952562936
4459.595031690048,10072.435857305636
4459.618223897759,10363.233641779085
4459.641416226081,10354.190417493333
4459.664608675014,10322.769239539542
4459.687801244561,10326.106038209178
4459.710993934721,10260.346576291942
4459.734186745496,10066.949041189007
4459.757379676885,9835.837659320352
4459.780572728889,9773.086519770486
4459.803765901509,9588.595008643111
4459.8269591947455,9358.59241543045
4459.850152608599,9415.97034363605
4459.87334614307,9403.19470452377
4459.89653979816,9606.453489678439
4459.91973357387,9857.363040636146
4459.942927470198,10010.195536125813
4459.966121487147,10110.613482017898
4459.989315624717,10230.828795030628
4460.0125098829085,10291.658342044951
4460.035704261722,10141.776385935837
4460.058898761158,9876.760772013156
4460.082093381218,9558.595985943783
4460.105288121902,9134.594385867162
4460.12848298321,8671.732217305582
4460.151677965145,8302.824632749082
4460.1748730677045,7954.007543410755
4460.198068290891,7332.190299162703
4460.221263634704,6941.628099093829
4460.244459099145,6463.333842978193
4460.267654684215,6214.984621437974
4460.290850389914,5807.7510644283175
4460.314046216243,5654.103304265876
4460.337242163202,5852.966395554572
4460.360438230791,6151.270052645897
4460.383634419013,6616.043110668528
4460.406830727867,6986.454188347789
4460.430027157354,7563.864991933561
4460.453223707474,8217.641499137933
4460.476420378228,9052.026314803888
4460.499617169617,9429.251683187647
4460.522814081641,10229.69038765026
4460.5460111143,10662.127475691883
4460.569208267598,11001.24184710152
4460.592405541532,11536.298561392952
4460.615602936104,11706.219433999619
4460.638800451314,11785.855167671538
4460.661998087163,11853.217726620567
4460.685195843652,12075.407484580746
4460.708393720782,11891.987621478938
4460.731591718552,11776.621664084538
4460.754789836965,11712.57975072029
4460.777988076019,11750.295886092905
4460.801186435716,11514.69881499835
4460.824384916057,11361.898039674365
4460.847583517042,11111.484775887866
4460.870782238671,10885.335761578195
4460.893981080947,10672.875397209258
4460.917180043868,10288.886528661122
4460.940379127435,10024.464214810594
4460.963578331651,9756.136908046388
4460.986777656513,9354.760381955311
4461.009977102025,8879.338987709036
4461.033176668186,8538.27917705298
4461.056376354995,8112.098088137643
4461.079576162457,7494.197192236251
4461.102776090568,6914.611451254807
4461.125976139332,6415.452092449034
4461.149176308748,5895.7836541825045
4461.172376598816,5396.561423522013
4461.195577009538,4987.097539457978
4461.218777540915,4740.603268814094
4461.241978192946,4458.280630500189
4461.265178965633,4385.065679648879
4461.2883798589755,4324.15061705355
4461.311580872974,4213.413613996627
4461.3347820076315,4230.672439560693
4461.357983262946,4416.122083570587
4461.381184638919,4493.242173960372
4461.404386135551,4570.252169615526
4461.4275877528435,4543.451950702766
4461.4507894907965,4447.7463873124425
4461.4739913494095,4406.280663370756
4461.497193328685,4196.542881803953
4461.520395428623,3924.288170108609
4461.543597649224,3856.72974264601
4461.566799990488,3707.3427101867856
4461.590002452416,3610.913432181088
4461.61320503501,3604.070250163805
4461.636407738269,3484.9288751475315
4461.659610562193,3447.7206693735275
4461.682813506784,3366.9713989405795
4461.706016572044,3330.020443123487
4461.729219757971,3342.0942922220897
4461.752423064566,3419.172282798939
4461.775626491831,3556.8972044880843
4461.798830039766,3605.137562858387
4461.82203370837,3829.965676709458
4461.845237497647,4089.604159858545
4461.868441407595,4409.753433707926
4461.891645438215,4721.805104957646
4461.914849589509,5154.396105179512
4461.938053861475,5385.045433146487
4461.961258254117,5592.445684999038
4461.984462767433,5541.624446259094
4462.007667401424,5618.11699928365
4462.030872156092,5637.652186378837
4462.0540770314365,5435.396524193871
4462.077282027459,5372.556183915572
4462.100487144158,5522.512371695907
4462.123692381537,5556.491736594382
4462.146897739594,5881.32487724521
4462.170103218332,6192.190916655547
4462.19330881775,6630.813362522138
4462.21651453785,7050.384542008027
4462.239720378631,7184.355324585054
4462.262926340095,7377.399285056415
4462.286132422241,7681.989519093494
4462.309338625071,7677.998078867544
4462.3325449485865,7875.664430237684
4462.355751392785,7744.513093781915
4462.3789579576705,7653.247966077634
4462.402164643242,7619.052500398549
4462.4253714495,7413.019222778841
4462.448578376446,7357.870341450873
4462.471785424079,7153.54677495822
4462.494992592401,7019.665769919088
4462.518199881412,7027.750756252284
4462.541407291114,7126.642984566428
4462.564614821506,7328.312913929813
4462.587822472589,7843.893920433799
4462.611030244365,8255.74498741692
4462.634238136832,8704.003825170139
4462.657446149992,9158.236277348307
4462.680654283847,9748.153005212282
4462.703862538396,9955.380786242891
4462.727070913639,10135.041976286855
4462.750279409578,10199.182089027316
4462.773488026214,10086.272584702485
