wave,flux
4450.003811362098,11649.586718839993
4450.026953690486,10429.540513303578
4450.050096139227,9518.448016407263
4450.073238708321,8672.280474478572
4450.096381397769,8172.008749218433
4450.119524207569,7921.660248677531
4450.142667137726,8029.024189698341
4450.165810188237,8339.498507598824
4450.188953359103,8967.130995175929
4450.212096650326,9951.246087219546
4450.2352400619075,10889.47425740266
4450.258383593846,12045.688544268538
4450.281527246142,13265.45116239874
4450.304671018797,14442.502747734248
4450.327814911813,15531.730966424526
4450.350958925188,16499.648931103126
4450.374103058924,17574.916965750446
4450.3972473130225,18368.57085195721
4450.420391687483,19091.804243047052
4450.443536182305,19757.191467763998
4450.466680797492,20295.319476340967
4450.489825533042,20946.098867548528
4450.512970388957,21491.228986092872
4450.536115365237,22204.558413437993
4450.559260461882,22791.815187918688
4450.582405678895,23289.84785272579
4450.605551016274,23916.525040616812
4450.628696474022,24786.137654264014
4450.651842052138,25354.195104755887
4450.674987750623,25881.08102605568
4450.698133569476,26790.344042664485
4450.721279508702,27045.552070773756
4450.744425568297,27343.818374612667
4450.767571748264,27613.19266796566
4450.790718048604,27567.932856989846
4450.813864469315,27671.818655710584
4450.837011010401,27847.020531693845
4450.86015767186,27883.312201223147
4450.883304453694,27748.709885528857
4450.906451355903,27404.71813847301
4450.929598378489,27144.381938848084
4450.95274552145,26569.649651097432
4450.975892784789,26188.600738047437
4450.999040168505,25712.135447597244
4451.022187672601,24842.916819887225
4451.045335297074,24123.389254192138
4451.068483041929,22900.283918595327
4451.091630907163,21617.577476326132
4451.114778892777,20202.574742239907
4451.137926998774,18772.439396329934
4451.161075225153,17630.992287475965
4451.184223571914,16712.87637252377
4451.207372039059,16354.19102042481
4451.230520626587,16287.303871698403
4451.253669334501,16555.373098442764
4451.2768181628,17266.80141116006
4451.299967111485,18201.70659664079
4451.323116180556,19346.448372844607
4451.346265370014,20455.827436650517
4451.369414679861,21762.827684300963
4451.392564110095,22662.03051521911
4451.415713660719,23590.697636737106
4451.438863331732,24339.263960687134
4451.462013123136,25113.861561111888
4451.48516303493,25488.78383817783
4451.508313067117,25541.398012397207
4451.531463219695,25376.11339968499
4451.554613492666,25850.97243640672
4451.577763886031,25720.993648988977
4451.60091439979,25657.9710322396
4451.624065033943,25318.05215886025
4451.647215788492,25312.997035793815
4451.670366663436,25196.835699686133
4451.693517658777,25413.205492479246
4451.716668774516,25583.270562526242
4451.739820010652,26143.015181820432
4451.762971367186,26652.420190896282
4451.78612284412,26579.441172731906
4451.8092744414525,26945.205172159604
4451.832426159187,27168.248316343626
4451.855577997321,27521.179681552032
4451.878729955857,27675.184092935462
4451.901882034796,27852.949995629115
4451.925034234137,27980.123179774266
4451.948186553881,27852.94389036866
4451.97133899403,28047.85445382453
4451.994491554583,28199.569995313603
4452.017644235542,28249.038274682844
4452.040797036907,27956.421944127043
4452.063949958678,27706.306018986863
4452.087103000857,27588.06269244149
4452.1102561634425,27349.2743460263
4452.133409446437,27128.44034589829
4452.156562849841,26827.381964625234
4452.179716373655,26364.059559990335
4452.202870017878,25864.875511514274
4452.226023782513,25592.674500378766
4452.24917766756,25266.143808154982
4452.272331673018,25098.593694967083
4452.29548579889,24854.749656577427
4452.318640045174,24499.672219721535
4452.341794411874,24473.64314242129
4452.364948898987,24602.220762907542
4452.388103506516,24437.081468131193
4452.4112582344615,24084.907240747387
4452.434413082823,24310.656864192613
4452.457568051602,24717.915483346507
4452.480723140799,24991.755285137457
4452.503878350413,24704.222953767796
4452.527033680448,24920.474854416825
4452.550189130902,24897.437255996898
4452.5733447017765,24787.40345040927
4452.596500393071,24589.59354445757
4452.619656204789,24435.721889194396
4452.642812136928,24040.842803950378
4452.66596818949,24000.850719970556
4452.689124362475,24252.212396486782
4452.7122806558855,24328.37935785651
4452.735437069719,24251.604592472544
4452.7585936039795,24614.696324361452
4452.781750258665,24353.81576782733
4452.804907033777,24477.9962231249
4452.828063929317,24351.533990769094
4452.851220945285,23812.18495199777
4452.87437808168,23342.973604370014
4452.897535338506,22907.69715071733
4452.92069271576,22283.490384189867
4452.943850213445,21983.49541424491
4452.967007831562,22085.631365526864
4452.99016557011,22402.102860835443
4453.01332342909,22721.596621760986
4453.036481408502,23242.193165715034
4453.059639508349,23960.265369874935
4453.08279772863,24468.020841763628
4453.105956069345,24887.495647154552
4453.129114530496,25287.306219631846
4453.152273112083,25705.453571709597
4453.175431814107,26143.94310113648
4453.198590636567,26224.24506294848
4453.221749579466,26162.39029618589
4453.244908642802,26204.528812662193
4453.268067826579,26049.76653251784
4453.291227130795,25739.396364766057
4453.314386555451,25584.570010424177
4453.337546100549,25670.5090732413
4453.360705766087,25744.21205682183
4453.3838655520685,25860.046857299305
4453.407025458493,26031.44085820581
4453.430185485361,26165.351896090877
4453.453345632673,26405.613822667034
4453.476505900429,26787.39936574013
4453.4996662886315,26908.191602529456
4453.52282679728,27119.782756965837
4453.545987426375,27296.993436531247
4453.569148175917,27524.795087724444
4453.592309045907,27552.747047232235
4453.615470036346,27869.023689594036
4453.638631147233,27776.896004403847
4453.661792378571,27748.972948232342
4453.684953730359,27868.346129392467
4453.708115202598,27629.209513929665
4453.731276795288,26976.099492994876
4453.754438508431,26830.737481661003
4453.777600342027,26199.810364488487
4453.800762296077,25970.59846893177
4453.82392437058,25118.02039391621
4453.847086565538,24261.749367335095
4453.870248880952,23058.021951644667
4453.8934113168225,21498.119668029318
4453.916573873149,20109.708434215805
4453.939736549933,18754.311739359135
4453.962899347174,17317.103316535162
4453.986062264875,16086.965373818064
4454.009225303034,15209.077576050051
4454.032388461654,14871.026253593664
4454.055551740734,14826.827257190324
4454.078715140275,14990.868035791344
4454.101878660277,15288.78145387185
4454.125042300742,15637.864848318595
4454.14820606167,15973.728818466741
4454.171369943061,16258.151932197698
4454.194533944917,16103.405799086395
4454.2176980672375,15698.701901851002
4454.240862310024,14972.460487372098
4454.264026673275,14061.009288084148
4454.287191156994,13116.799095434422
4454.31035576118,11975.52487908241
4454.333520485834,10847.0401547408
4454.356685330957,9902.994178878054
4454.379850296548,9121.21614846596
4454.40301538261,8580.730450165292
4454.426180589142,8506.308079557426
4454.449345916145,8696.95171136841
4454.4725113636205,9083.701414493216
4454.495676931568,9795.221881588075
4454.5188426199875,10521.479747621788
4454.542008428882,11214.026038137394
4454.565174358249,11986.727294351153
4454.588340408092,12819.42027576669
4454.611506578411,13419.639146920827
4454.634672869205,13975.872958878308
4454.657839280476,14777.206051843124
4454.681005812225,15735.878102448178
4454.704172464451,16582.90773775683
4454.727339237156,17475.78252881006
4454.750506130341,18206.244181521106
4454.773673144005,18804.612921155203
4454.79684027815,19332.664319259686
4454.820007532776,19320.22425215185
4454.843174907884,19174.45921305088
4454.866342403473,18756.999331847648
4454.889510019546,18489.970439018907
4454.912677756102,18203.65832722312
4454.935845613144,18451.400771256955
4454.959013590669,18489.878740837663
4454.982181688681,19134.690920976733
4455.005349907178,19916.987240456016
4455.028518246162,20628.922196594944
4455.051686705633,21849.923893183422
4455.074855285593,22717.446265088267
4455.098023986041,23465.07292588923
4455.121192806979,24124.618205487186
4455.144361748406,24638.62419206502
4455.167530810323,24828.585903107713
4455.190699992732,25195.387290006034
4455.213869295633,25109.905212112164
4455.237038719026,24834.143284491434
4455.260208262912,24432.63003617166
4455.283377927292,24125.72052589301
4455.306547712166,23148.12363987907
4455.329717617535,22148.82383499284
4455.352887643399,20981.194694744252
4455.37605778976,19597.585333549738
4455.399228056617,18493.635859855785
4455.422398443972,16921.887969751264
4455.445568951825,15384.875546635545
4455.468739580177,14275.61868529697
4455.491910329028,13196.493058373886
4455.515081198378,12887.247278698376
4455.538252188229,12772.957380027916
4455.561423298582,13135.104874847086
4455.584594529436,13864.755741165258
4455.607765880793,14960.751318123019
4455.630937352652,16505.74029617875
4455.654108945016,17970.952341204375
4455.677280657883,19232.18921774463
4455.700452491255,20518.30229146673
4455.723624445134,21377.468137651784
4455.746796519518,22241.162911218013
4455.7699687144095,23215.878911933636
4455.793141029808,23773.390081461977
4455.816313465714,24059.070473948726
4455.83948602213,24190.255605153532
4455.862658699055,24042.86899589522
4455.885831496489,23738.403182356993
4455.909004414434,23385.862708475444
4455.932177452891,22681.763153739186
4455.955350611858,22109.066716597015
4455.978523891339,21920.056595331826
4456.001697291333,21637.727440359547
4456.024870811841,21502.343967030654
4456.048044452862,21450.224520648306
4456.071218214399,21502.221766541606
4456.094392096451,21521.279786078547
4456.117566099019,21338.152983108776
4456.140740222105,21094.643561967092
4456.163914465707,20660.179683836603
4456.187088829828,20011.40978097496
4456.210263314468,19221.12535722364
4456.233437919626,18851.592926631372
4456.256612645306,18530.61100053742
4456.279787491505,18342.63126971456
4456.302962458226,18607.822476700094
4456.326137545469,19181.70352273711
4456.349312753233,19929.83252354166
4456.372488081522,20896.905468491455
4456.395663530333,21868.510646023682
4456.41883909967,22603.499249981505
4456.442014789531,23479.72986810669
4456.465190599917,24292.30599097288
4456.488366530831,24783.798339063622
4456.5115425822705,25073.46609689105
4456.5347187542375,25190.60210098782
4456.557895046733,25269.018807797704
4456.581071459757,25398.066681568667
4456.604247993311,25298.325361547057
4456.627424647395,25154.734377160716
4456.650601422009,25152.648807573147
4456.673778317154,25062.983461504657
4456.696955332832,25112.373001295735
4456.720132469041,25244.53697372946
4456.7433097257845,25463.26842554871
4456.766487103061,25490.82494906476
4456.789664600872,25624.58449191141
4456.8128422192185,26005.528179013843
4456.8360199581,25709.443039348174
4456.859197817518,25297.054395981108
4456.882375797473,24783.11179453299
4456.905553897966,24171.484609950327
4456.928732118997,23600.273342571072
4456.951910460566,22594.508443625986
4456.975088922674,21737.666033547688
4456.998267505323,20386.61646248649
4457.021446208513,19314.211454674318
4457.044625032244,18429.02820777426
4457.067803976516,17662.14603150714
4457.090983041332,17116.67441262342
4457.1141622266905,16925.973418753787
4457.1373415325925,17232.837700778244
4457.160520959039,17371.35647026745
4457.183700506031,18224.027428611458
4457.206880173568,19128.903166821245
4457.230059961651,19939.171564552078
4457.2532398702815,21263.32129787033
4457.27641989946,22153.151712603794
4457.299600049186,22920.266939070985
4457.322780319461,23600.8108650095
4457.345960710286,24278.38522357696
4457.36914122166,24956.46520178615
4457.392321853586,25467.432336501894
4457.415502606062,25748.69636506124
4457.43868347909,25917.925676667444
4457.461864472672,26044.255285844818
4457.485045586805,25938.75087254847
4457.508226821494,25789.41290732548
4457.5314081767365,25578.508617428437
4457.554589652534,25367.40639758141
4457.577771248887,24811.72677840778
4457.600952965797,23854.144351361472
4457.624134803263,23187.548239374686
4457.647316761288,22060.62836589722
4457.67049883987,21323.18889002172
4457.693681039011,20493.964163225126
4457.716863358712,19574.4907954151
4457.7400457989725,19030.554841050274
4457.763228359793,18623.89421611445
4457.7864110411765,18773.714883606302
4457.809593843121,18671.913329350908
4457.832776765628,18501.846194818983
4457.855959808699,18533.487226543268
4457.879142972333,18845.907281490465
4457.902326256532,19124.800221934318
4457.925509661296,19780.596454551163
4457.948693186626,20388.776691687235
4457.971876832522,21232.469200796568
4457.995060598985,21848.71967006342
4458.018244486016,22635.504185574915
4458.041428493615,22922.745927491356
4458.0646126217825,22900.646465788614
4458.08779687052,22988.466935512624
4458.110981239827,22986.658530149256
4458.134165729705,22685.486926919984
4458.157350340155,22992.979572062264
4458.180535071177,22921.10611798024
4458.203719922771,23394.283886303132
4458.226904894938,23708.142352278664
4458.2500899876795,24319.463930669674
4458.273275200995,24686.48367097303
4458.296460534886,25014.38970054318
4458.3196459893525,25506.590981742676
4458.342831564396,25887.17520852335
4458.366017260016,25961.446907756188
4458.389203076214,26133.222740899342
4458.4123890129895,25557.695886612684
4458.435575070344,25307.803313625634
4458.458761248279,24869.10280375098
4458.481947546794,24047.502548878074
4458.505133965889,23150.893579387146
4458.528320505566,21975.782115072594
4458.551507165825,20651.763670017026
4458.574693946666,19099.411952967428
4458.597880848091,17336.56299808209
4458.6210678701,15459.289074780305
4458.644255012693,13940.162473143771
4458.6674422758715,12652.493931127716
4458.690629659636,11390.800934040319
4458.713817163986,10406.640263141662
4458.737004788924,10056.72183829598
4458.76019253445,9951.554587413095
4458.783380400563,10027.13689293134
4458.8065683872655,10688.77066870155
4458.829756494558,11420.826694941943
4458.85294472244,12394.05017731002
4458.876133070914,13113.226222576403
4458.899321539979,13860.537471568321
4458.922510129635,14609.689836604532
4458.945698839884,15336.337729028288
4458.968887670727,16169.835604464193
4458.992076622164,17032.455723979303
4459.015265694195,18061.16017243454
4459.0384548868215,19122.504890856522
4459.061644200044,20080.4985040728
4459.084833633862,21323.55244017345
4459.108023188278,22504.92121613802
4459.131212863292,23327.199035498343
4459.154402658904,24618.82186722617
4459.177592575114,25005.870891906532
4459.200782611925,25315.315971755383
4459.223972769336,25866.115670196003
4459.247163047347,26211.254634565143
4459.27035344596,25944.768903475593
4459.293543965176,26016.82659611397
4459.316734604993,25880.375183307424
4459.339925365414,25568.247051984526
4459.363116246439,25567.90120314896
4459.386307248069,25353.03611247274
4459.409498370304,25485.849281034072
4459.432689613145,25495.64900401607
4459.455880976592,25769.261933965772
4459.479072460647,26202.079742433634
4459.502264065309,26325.384877476703
4459.52545579058,26552.371130223277
4459.5486476364595,26669.34268480015
4459.571839602949,26915.072066680812
4459.595031690048,26694.296691973752
4459.618223897759,26470.47946747745
4459.641416226081,26220.059343014203
4459.664608675014,25739.204739751938
4459.687801244561,25381.35512378231
4459.710993934721,24444.518075223736
4459.734186745496,23645.483366128523
4459.757379676885,22469.744030887647
4459.780572728889,21143.175739607635
4459.803765901509,19935.365932396136
4459.8269591947455,19155.692907488534
4459.850152608599,18439.709396453425
4459.87334614307,18150.006808262344
4459.89653979816,18301.717148649233
4459.91973357387,18496.83075612592
4459.942927470198,19169.309945799483
4459.966121487147,19865.038861014644
4459.989315624717,20828.52980617942
4460.0125098829085,21829.82300575188
4460.035704261722,22487.16420846472
4460.058898761158,23480.423795079732
4460.082093381218,24425.43793697878
4460.105288121902,24823.454358136154
4460.12848298321,25616.43961689329
4460.151677965145,26280.938745906242
4460.1748730677045,26723.03221276292
4460.198068290891,27035.1312092003
4460.221263634704,27275.054874997546
4460.244459099145,27611.37724010158
4460.267654684215,27778.41653921777
4460.290850389914,27358.506762756348
4460.314046216243,27839.034036572026
4460.337242163202,27355.1548394997
4460.360438230791,27618.75875953801
4460.383634419013,27391.0927261281
4460.406830727867,27263.278016774497
4460.430027157354,27430.157036674955
4460.453223707474,27049.31231679159
4460.476420378228,27032.627716097177
4460.499617169617,26865.97253463413
4460.522814081641,26428.669350446107
4460.5460111143,26284.46363742603
4460.569208267598,25499.791122370203
4460.592405541532,25134.939950801534
4460.615602936104,24026.169404705466
4460.638800451314,23095.223375126283
4460.661998087163,21755.89818201068
4460.685195843652,20721.466982691178
4460.708393720782,19661.63479618765
4460.731591718552,18500.834805059756
4460.754789836965,17480.154667273655
4460.777988076019,16417.204375998448
4460.801186435716,16055.667621934386
4460.824384916057,15409.40724675245
4460.847583517042,15130.861616556098
4460.870782238671,15027.659480068725
4460.893981080947,15328.527433086416
4460.917180043868,15211.445107436855
4460.940379127435,15111.854975119371
4460.963578331651,15107.93784245831
4460.986777656513,14582.628473610292
4461.009977102025,14126.526007505328
4461.033176668186,13788.561456907668
4461.056376354995,13473.260135974459
4461.079576162457,13118.006656254978
4461.102776090568,13001.728745962942
4461.125976139332,12715.68854202881
4461.149176308748,12426.943741691752
4461.172376598816,12107.854149711677
4461.195577009538,11681.294283848849
4461.218777540915,11211.818310092276
4461.241978192946,10696.507854594414
4461.265178965633,10295.767823021968
4461.2883798589755,10259.640875587307
4461.311580872974,10553.309384294966
4461.3347820076315,11121.473265840537
4461.357983262946,11899.860320697144
4461.381184638919,12775.47938531943
4461.404386135551,13916.937536479705
4461.4275877528435,14888.314942960136
4461.4507894907965,15567.046329438814
4461.4739913494095,16274.62749400877
4461.497193328685,16458.563063694615
4461.520395428623,16489.77757204444
4461.543597649224,16212.308946195973
4461.566799990488,15690.074775650837
4461.590002452416,15433.758303554267
4461.61320503501,15130.2345376932
4461.636407738269,15097.175655756195
4461.659610562193,15390.039830243559
4461.682813506784,15876.190806702116
4461.706016572044,16790.48600042863
4461.729219757971,17700.816838382096
4461.752423064566,18586.738102369618
4461.775626491831,19709.832228626416
4461.798830039766,20517.278220372933
4461.82203370837,21244.216835738025
4461.845237497647,22033.77133070731
4461.868441407595,22622.120660150296
4461.891645438215,22878.16762063253
4461.914849589509,22984.34799116028
4461.938053861475,22855.786278039108
4461.961258254117,22567.71444083684
4461.984462767433,22282.588494657677
4462.007667401424,21507.407999901912
4462.030872156092,21047.096153795123
4462.0540770314365,20591.098398324768
4462.077282027459,19955.326549571386
4462.100487144158,20142.29311594961
4462.123692381537,20511.416528495287
4462.146897739594,20920.885141948787
4462.170103218332,21601.291186080773
4462.19330881775,22307.43658672982
4462.21651453785,23214.785902994743
4462.239720378631,23874.674349453526
4462.262926340095,24309.13023415361
4462.286132422241,25063.53237469083
4462.309338625071,25810.3097480128
4462.3325449485865,25682.03650993971
4462.355751392785,25648.608571197263
4462.3789579576705,25958.365858859812
4462.402164643242,26164.42711756964
4462.4253714495,25931.56130731344
4462.448578376446,25651.145515373308
4462.471785424079,25747.506189551677
4462.494992592401,25169.792642255285
4462.518199881412,24732.390259332857
4462.541407291114,23947.255835488926
4462.564614821506,23551.492854258573
4462.587822472589,22694.56809290401
4462.611030244365,22433.4411019249
