wave,flux
4450.003811362098,8608.287834289931
4450.026953690486,8486.927656909053
4450.050096139227,8864.475378172743
4450.073238708321,9801.215330929143
4450.096381397769,11165.77602054875
4450.119524207569,12634.077567869303
4450.142667137726,14409.566726266863
4450.165810188237,16050.968096655406
4450.188953359103,17384.68822853662
4450.212096650326,18270.39240237784
4450.2352400619075,19024.645718629294
4450.258383593846,20002.35316492638
4450.281527246142,21075.9084956573
4450.304671018797,21590.260924941624
4450.327814911813,22799.599080482112
4450.350958925188,23590.831899840825
4450.374103058924,24227.634720982427
4450.3972473130225,24814.034580248135
4450.420391687483,25408.051051552
4450.443536182305,26185.541161610337
4450.466680797492,27201.976552808872
4450.489825533042,28292.399254376065
4450.512970388957,29548.21957777591
4450.536115365237,30680.44391839605
4450.559260461882,31589.48862047485
4450.582405678895,32168.42663497481
4450.605551016274,32634.051861793992
4450.628696474022,33241.651380741074
4450.651842052138,33537.880713110804
4450.674987750623,33539.09673115675
4450.698133569476,33703.09404330435
4450.721279508702,33893.99271560016
4450.744425568297,33761.67329255409
4450.767571748264,33474.05242833411
4450.790718048604,33249.901079283474
4450.813864469315,32804.3553915376
4450.837011010401,32441.02709862404
4450.86015767186,32038.63705019594
4450.883304453694,31412.926978736275
4450.906451355903,30446.055494208897
4450.929598378489,29523.612769206076
4450.95274552145,28182.33616708244
4450.975892784789,26289.074587910625
4450.999040168505,24425.370503228187
4451.022187672601,22408.8462823853
4451.045335297074,20568.79505147212
4451.068483041929,18929.62688739684
4451.091630907163,17894.560528048944
4451.114778892777,17932.329810231688
4451.137926998774,18306.985689052428
4451.161075225153,19787.337131253702
4451.184223571914,21277.302362407056
4451.207372039059,22976.66622866498
4451.230520626587,25044.58522984078
4451.253669334501,26688.916866772375
4451.2768181628,28164.49648008172
4451.299967111485,29315.409450484494
4451.323116180556,30160.991590102425
4451.346265370014,30795.988250341055
4451.369414679861,31243.572405287585
4451.392564110095,31227.365923873676
4451.415713660719,30822.56287569505
4451.438863331732,30322.93312165806
4451.462013123136,29926.203043251324
4451.48516303493,29238.54670030637
4451.508313067117,28565.81710487774
4451.531463219695,28398.17562973202
4451.554613492666,28329.87998474096
4451.577763886031,28888.636499908625
4451.60091439979,29196.337755730023
4451.624065033943,29678.31923385586
4451.647215788492,30495.435081624124
4451.670366663436,31101.76085601582
4451.693517658777,31516.0873189659
4451.716668774516,32204.733928444497
4451.739820010652,32776.38120187573
4451.762971367186,33228.31420667572
4451.78612284412,33306.39615762499
4451.8092744414525,33646.65903576072
4451.832426159187,33885.74644811294
4451.855577997321,34016.83019813994
4451.878729955857,34008.21755771127
4451.901882034796,34088.35346439172
4451.925034234137,33634.111085931516
4451.948186553881,33574.54043772928
4451.97133899403,33092.80796391145
4451.994491554583,33003.60211538756
4452.017644235542,32368.05571529528
4452.040797036907,31660.473216988325
4452.063949958678,30941.543734895906
4452.087103000857,30446.85956246156
4452.1102561634425,29724.821562538265
4452.133409446437,28892.989450059475
4452.156562849841,28441.248479164566
4452.179716373655,28097.715405569845
4452.202870017878,27519.1627770035
4452.226023782513,27132.98883298204
4452.24917766756,26842.542056555383
4452.272331673018,26907.1645814463
4452.29548579889,27593.80281319548
4452.318640045174,28355.319333083968
4452.341794411874,28813.880597871044
4452.364948898987,29248.60536262401
4452.388103506516,29735.129903222554
4452.4112582344615,29812.249317422324
4452.434413082823,29512.568581354342
4452.457568051602,29147.563922297333
4452.480723140799,28672.134333556187
4452.503878350413,28196.167479160024
4452.527033680448,27940.780735016015
4452.550189130902,27936.487661989584
4452.5733447017765,28208.178879012477
4452.596500393071,28643.4965315818
4452.619656204789,29140.77271180462
4452.642812136928,29364.357340361792
4452.66596818949,29252.360267135402
4452.689124362475,28937.72921690989
4452.7122806558855,28766.16556213782
4452.735437069719,28233.15971130003
4452.7585936039795,27332.166696876313
4452.781750258665,26603.45849908645
4452.804907033777,25370.196752480944
4452.828063929317,24754.56188629974
4452.851220945285,24680.57176596438
4452.87437808168,24899.806270142668
4452.897535338506,25883.67913449925
4452.92069271576,26883.096254737477
4452.943850213445,28032.05994967172
4452.967007831562,29108.369400067582
4452.99016557011,30039.97639100582
4453.01332342909,30420.585313259857
4453.036481408502,31117.93954251617
4453.059639508349,31710.66378690274
4453.08279772863,31708.34524101164
4453.105956069345,31735.498766223634
4453.129114530496,31597.858531305264
4453.152273112083,30984.85742288857
4453.175431814107,30934.586900056594
4453.198590636567,30209.8908315586
4453.221749579466,29865.833968509374
4453.244908642802,29810.144658481404
4453.268067826579,29914.22573377214
4453.291227130795,30333.02256839033
4453.314386555451,30968.750099516896
4453.337546100549,31190.130549346955
4453.360705766087,31548.059757212945
4453.3838655520685,31978.391291960208
4453.407025458493,32319.936537816277
4453.430185485361,32825.04727245542
4453.453345632673,33070.9741074599
4453.476505900429,33338.928731981156
4453.4996662886315,33314.223660596996
4453.52282679728,33205.4262721943
4453.545987426375,33366.54757333705
4453.569148175917,33371.087369294924
4453.592309045907,33125.905255733756
4453.615470036346,32959.9196784096
4453.638631147233,32856.776923721874
4453.661792378571,32482.081906052517
4453.684953730359,31913.107921012397
4453.708115202598,30823.208091492714
4453.731276795288,29927.894918673916
4453.754438508431,28566.598174826555
4453.777600342027,27373.829080251748
4453.800762296077,25575.268410235505
4453.82392437058,23353.029859772952
4453.847086565538,20926.392351741604
4453.870248880952,19366.13096187801
4453.8934113168225,17647.567813683014
4453.916573873149,16953.729492171067
4453.939736549933,16935.126029774437
4453.962899347174,17817.382443549013
4453.986062264875,18585.489231310872
4454.009225303034,19767.42709731508
4454.032388461654,20438.45949401181
4454.055551740734,21198.990920114706
4454.078715140275,20990.44444046322
4454.101878660277,20479.31353180568
4454.125042300742,19603.087577944447
4454.14820606167,18071.22697187795
4454.171369943061,16727.78383758167
4454.194533944917,15101.170565891733
4454.2176980672375,13498.837884475928
4454.240862310024,12032.855976488156
4454.264026673275,11038.488735465973
4454.287191156994,10302.606333403344
4454.31035576118,9700.197178060926
4454.333520485834,9897.800025783861
4454.356685330957,10654.116221771197
4454.379850296548,11819.90620482547
4454.40301538261,13173.133962305918
4454.426180589142,14411.938262300237
4454.449345916145,15339.108718587006
4454.4725113636205,16063.571382807018
4454.495676931568,16418.796338736774
4454.5188426199875,16904.45622675205
4454.542008428882,17577.986132101927
4454.565174358249,18513.728278622097
4454.588340408092,19789.602457031815
4454.611506578411,21153.33005655221
4454.634672869205,22482.72226208179
4454.657839280476,23438.709953340956
4454.681005812225,23894.1014501623
4454.704172464451,23905.871950183737
4454.727339237156,23442.897225714085
4454.750506130341,22600.306027476858
4454.773673144005,21656.382943775796
4454.79684027815,20901.721568193647
4454.820007532776,20548.89173751299
4454.843174907884,20853.049134249843
4454.866342403473,21607.242697846366
4454.889510019546,22737.91240129255
4454.912677756102,24342.33029739986
4454.935845613144,25845.623054549076
4454.959013590669,27253.78298712098
4454.982181688681,28503.38362513178
4455.005349907178,29305.110603624842
4455.028518246162,30127.883448788652
4455.051686705633,30474.612493111035
4455.074855285593,30471.74709313791
4455.098023986041,30473.447968381155
4455.121192806979,29985.196827855038
4455.144361748406,29688.629489380546
4455.167530810323,28994.304885720336
4455.190699992732,27904.91764492469
4455.213869295633,26800.35128928964
4455.237038719026,25658.16726260258
4455.260208262912,24235.113461487483
4455.283377927292,22237.716398226607
4455.306547712166,20330.93809785841
4455.329717617535,18456.935980539223
4455.352887643399,16610.69874582952
4455.37605778976,15241.829961505355
4455.399228056617,14422.641594803112
4455.422398443972,14480.16885357773
4455.445568951825,15168.199244246436
4455.468739580177,16247.921403697454
4455.491910329028,18145.024562518687
4455.515081198378,20145.374809047782
4455.538252188229,22224.64905871901
4455.561423298582,24019.78050240784
4455.584594529436,25615.416920855172
4455.607765880793,27013.08275417031
4455.630937352652,28281.787313783265
4455.654108945016,28987.92167046357
4455.677280657883,29777.36407103644
4455.700452491255,30020.949084448497
4455.723624445134,29926.62572493056
4455.746796519518,29313.169582218776
4455.7699687144095,28483.29726667414
4455.793141029808,27104.95936111604
4455.816313465714,26219.777176026244
4455.83948602213,24932.11239070076
4455.862658699055,24186.181800729395
4455.885831496489,23753.58172789855
4455.909004414434,23359.203573136296
4455.932177452891,23865.375552296056
4455.955350611858,24424.528374773803
4455.978523891339,24667.218804374006
4456.001697291333,24699.55670437283
4456.024870811841,24695.79661550134
4456.048044452862,24464.405467694352
4456.071218214399,23839.350672219865
4456.094392096451,22648.570882061606
4456.117566099019,21591.51649912625
4456.140740222105,20693.12568907281
4456.163914465707,20398.886371275396
4456.187088829828,20762.45817522543
4456.210263314468,21580.574502667438
4456.233437919626,22829.022073749205
4456.256612645306,24366.486745605638
4456.279787491505,25778.77172558334
4456.302962458226,26911.697337643298
4456.326137545469,28170.597333701746
4456.349312753233,29055.817493829058
4456.372488081522,29736.18161140033
4456.395663530333,29877.407060982576
4456.41883909967,30113.24247877786
4456.442014789531,30356.160154372268
4456.465190599917,30315.219070069168
4456.488366530831,29977.712500025158
4456.5115425822705,29530.050271749977
4456.5347187542375,29219.832777037584
4456.557895046733,29117.73445885463
4456.581071459757,29241.47588655175
4456.604247993311,29359.347066904593
4456.627424647395,29671.191241396155
4456.650601422009,30182.920794957474
4456.673778317154,30556.940319012712
4456.696955332832,30669.227098098105
4456.720132469041,30830.26934756928
4456.7433097257845,30798.633818264283
4456.766487103061,30320.953136888915
4456.789664600872,29548.907200322777
4456.8128422192185,28633.1910934124
4456.8360199581,27429.73290397568
4456.859197817518,25837.21218208842
4456.882375797473,23956.446288309744
4456.905553897966,21981.771506965917
4456.928732118997,20522.474630736408
4456.951910460566,19173.78428292406
4456.975088922674,18425.023969054575
4456.998267505323,18333.254097789453
4457.021446208513,18552.917197408304
4457.044625032244,19072.770500105307
4457.067803976516,19945.05352776864
4457.090983041332,21164.2766055286
4457.1141622266905,22854.682646314846
4457.1373415325925,24729.95411987659
4457.160520959039,26337.98815931293
4457.183700506031,27525.924606617995
4457.206880173568,28654.19792286712
4457.230059961651,29845.09049425717
4457.2532398702815,30293.50185500752
4457.27641989946,30651.74980394244
4457.299600049186,30874.12586583818
4457.322780319461,31130.854322546053
4457.345960710286,31372.595449823413
4457.36914122166,31406.97876126107
4457.392321853586,31285.772742717156
4457.415502606062,30765.44810343409
4457.43868347909,30247.31342302157
4457.461864472672,29482.838834354392
4457.485045586805,28416.28344338753
4457.508226821494,27567.028096332328
4457.5314081767365,26126.84490089946
4457.554589652534,24618.519328519626
4457.577771248887,23268.687471587746
4457.600952965797,22595.4210221326
4457.624134803263,21948.395904223726
4457.647316761288,21561.436183735204
4457.67049883987,21609.981209079193
4457.693681039011,21487.799233682676
4457.716863358712,21640.475190539866
4457.7400457989725,21306.96886031273
4457.763228359793,20988.48273560608
4457.7864110411765,21595.318795374835
4457.809593843121,22689.462357557928
4457.832776765628,23850.625211473616
4457.855959808699,25033.741177860084
4457.879142972333,26108.60279241852
4457.902326256532,26824.96571106693
4457.925509661296,27491.177164254248
4457.948693186626,27488.89862983813
4457.971876832522,26956.5284321424
4457.995060598985,26611.076182085704
4458.018244486016,26081.774498731425
4458.041428493615,25693.83998183863
4458.0646126217825,26007.832730711416
4458.08779687052,26500.49306081034
4458.110981239827,27403.378578434735
4458.134165729705,28354.633007204186
4458.157350340155,28958.919721374987
4458.180535071177,29729.041359726045
4458.203719922771,30457.168251736344
4458.226904894938,30992.064530948606
4458.2500899876795,31275.35184253203
4458.273275200995,31471.592776357244
4458.296460534886,31737.310575500243
4458.3196459893525,31098.63086864388
4458.342831564396,30660.11610943014
4458.366017260016,29720.074497309928
4458.389203076214,28609.62198393034
4458.4123890129895,27317.985874969905
4458.435575070344,25934.51534350501
4458.458761248279,24032.35752642594
4458.481947546794,21865.806852757174
4458.505133965889,19411.216573676455
4458.528320505566,17201.104966673414
4458.551507165825,14899.209562529777
4458.574693946666,13092.584300351873
4458.597880848091,11840.925535350372
4458.6210678701,10889.024741766685
4458.644255012693,10542.661551380155
4458.6674422758715,10986.391275450173
4458.690629659636,11835.142009792697
4458.713817163986,13062.980218034843
4458.737004788924,14481.091683529
4458.76019253445,15979.132720460306
4458.783380400563,17248.84924744982
4458.8065683872655,18006.78351300117
4458.829756494558,18528.66301724184
4458.85294472244,19141.11543845542
4458.876133070914,19830.025076934482
4458.899321539979,21135.001993078087
4458.922510129635,22415.997434346722
4458.945698839884,24023.197078064313
4458.968887670727,25902.20725632801
4458.992076622164,27217.83955922323
4459.015265694195,28726.19572101722
4459.0384548868215,29786.243624174505
4459.061644200044,30528.26900630523
4459.084833633862,30981.843109665864
4459.108023188278,31588.952256582434
4459.131212863292,31693.17015768243
4459.154402658904,31784.453302098314
4459.177592575114,31008.784582853517
4459.200782611925,30506.369705412035
4459.223972769336,30122.153220300275
4459.247163047347,29860.684613044483
4459.27035344596,29475.6958483401
4459.293543965176,29357.2570458917
4459.316734604993,29713.258136761793
4459.339925365414,30013.53550538159
4459.363116246439,30752.023387940535
4459.386307248069,31359.46363252332
4459.409498370304,31590.94601453411
4459.432689613145,32145.197350943938
4459.455880976592,32010.723351947763
4459.479072460647,32041.673527813553
4459.502264065309,32014.88340928766
4459.52545579058,31592.394751924232
4459.5486476364595,31072.57102552602
4459.571839602949,30278.48591361427
4459.595031690048,29144.411134428356
4459.618223897759,28034.20116802319
4459.641416226081,26274.68095773438
4459.664608675014,24525.123967610893
4459.687801244561,22583.118978483035
4459.710993934721,20566.337120627908
4459.734186745496,19509.706582314167
4459.757379676885,18884.930090706654
4459.780572728889,19057.110189940788
4459.803765901509,19673.72696905042
4459.8269591947455,20561.634776041752
4459.850152608599,22000.181870137734
4459.87334614307,23408.79481827403
4459.89653979816,24868.294232221426
4459.91973357387,26406.42581765764
4459.942927470198,27726.04137159272
4459.966121487147,29358.876380424026
4459.989315624717,30436.031889186124
4460.0125098829085,31100.871278986073
4460.035704261722,31704.42664593404
4460.058898761158,32372.23399146018
4460.082093381218,32776.30144881011
4460.105288121902,32758.14487365601
4460.12848298321,33089.22390562672
4460.151677965145,33519.13694242724
4460.1748730677045,33299.232760550294
4460.198068290891,33268.635806850885
4460.221263634704,33362.4123751719
4460.244459099145,33219.54560105567
4460.267654684215,32876.90275022359
4460.290850389914,32621.614272488514
4460.314046216243,32543.17995335859
4460.337242163202,32379.630320619755
4460.360438230791,32101.38935664186
4460.383634419013,32143.090798706635
4460.406830727867,31904.263944685168
4460.430027157354,31496.546714824202
4460.453223707474,30918.816883368505
4460.476420378228,30264.290319301046
4460.499617169617,29339.154944942395
4460.522814081641,27726.803907188518
4460.5460111143,25970.018960761638
4460.569208267598,24058.122993252397
4460.592405541532,22338.51865108835
4460.615602936104,20326.624194282795
4460.638800451314,18884.86382675034
4460.661998087163,17716.66682441282
4460.685195843652,16759.01398304352
4460.708393720782,16017.246013377737
4460.731591718552,15723.231064356418
4460.754789836965,15774.964430874663
4460.777988076019,16333.338219576855
4460.801186435716,16741.62350182866
4460.824384916057,16898.802536391646
4460.847583517042,16984.875595093567
4460.870782238671,16677.820313779743
4460.893981080947,16064.7857137611
4460.917180043868,15312.566356522013
4460.940379127435,14795.33709965981
4460.963578331651,14530.878109908183
4460.986777656513,14329.839289955667
4461.009977102025,14415.6123984989
4461.033176668186,14527.042547680123
4461.056376354995,14290.570291637814
4461.079576162457,13855.402243828796
4461.102776090568,13160.07502452445
4461.125976139332,12283.299054949854
4461.149176308748,11696.296832820235
4461.172376598816,11299.377624536697
4461.195577009538,11353.666110131699
4461.218777540915,11982.904729218495
4461.241978192946,13291.12794378572
4461.265178965633,14835.672578623225
4461.2883798589755,16577.081035409705
4461.311580872974,18433.974555085213
4461.3347820076315,19909.511586375924
4461.357983262946,20766.42231625921
4461.381184638919,21137.9466507804
4461.404386135551,21233.51143164487
4461.4275877528435,20614.55195298637
4461.4507894907965,19532.19496565777
4461.4739913494095,18484.0029064561
4461.497193328685,17505.250821187663
4461.520395428623,17053.846522349
4461.543597649224,17196.299608215213
4461.566799990488,18083.238667835136
4461.590002452416,19421.30130501836
4461.61320503501,21025.36380303785
4461.636407738269,22457.30545412726
4461.659610562193,23651.545200393044
4461.682813506784,25035.193324039807
4461.706016572044,25973.29107344914
4461.729219757971,26801.834030667425
4461.752423064566,27202.48566166614
4461.775626491831,27726.646371752224
4461.798830039766,28024.48296826216
4461.82203370837,27793.08542861619
4461.845237497647,27396.88839932576
4461.868441407595,26537.643425027218
4461.891645438215,25204.4291130723
4461.914849589509,24051.768737096427
4461.938053861475,23194.842753546596
4461.961258254117,22570.200740849246
4461.984462767433,22256.833069454082
4462.007667401424,22806.80917172788
4462.030872156092,23962.43120007766
4462.0540770314365,25244.784482805455
4462.077282027459,26527.94383669775
4462.100487144158,28163.92336725661
4462.123692381537,28792.76616339416
4462.146897739594,29500.982685741106
4462.170103218332,30260.15870898493
4462.19330881775,30699.933257445347
4462.21651453785,30838.175509041343
4462.239720378631,31119.866354077105
4462.262926340095,31000.728250782453
4462.286132422241,31240.289863756643
4462.309338625071,30930.33534668201
4462.3325449485865,30901.642226524993
4462.355751392785,30438.666932252825
4462.3789579576705,29574.98069610109
4462.402164643242,28679.970254565513
4462.4253714495,27545.873128494517
4462.448578376446,26460.333344765397
4462.471785424079,25061.883363923993
4462.494992592401,24004.166688889854
4462.518199881412,23863.962181030736
4462.541407291114,23603.633838207305
4462.564614821506,24302.04030158119
4462.587822472589,25049.7271774795
4462.611030244365,25776.937247028265
4462.634238136832,26708.58914253406
4462.657446149992,27514.493546651796
