wave,flux
4450.003811362098,4003.0995510069156
4450.026953690486,3896.8331550758644
4450.050096139227,3939.9571269756593
4450.073238708321,4167.8428405294
4450.096381397769,4727.248497445862
4450.119524207569,5488.527207994428
4450.142667137726,6211.914002308093
4450.165810188237,6967.7130641098565
4450.188953359103,7750.618789628258
4450.212096650326,8068.458738297248
4450.2352400619075,8681.062513185585
4450.258383593846,9065.165544617637
4450.281527246142,9500.630619158479
4450.304671018797,9850.64531082867
4450.327814911813,10276.591232959307
4450.350958925188,10755.76091776996
4450.374103058924,10979.228645126665
4450.3972473130225,11082.534351627877
4450.420391687483,11426.443646311693
4450.443536182305,11908.949170530821
4450.466680797492,12300.137113332099
4450.489825533042,12790.621132241302
4450.512970388957,13416.621097817422
4450.536115365237,14064.419651409984
4450.559260461882,14611.728889219386
4450.582405678895,14687.25773733989
4450.605551016274,14952.411858721176
4450.628696474022,15384.287496011326
4450.651842052138,15501.663429140019
4450.674987750623,15472.411407869624
4450.698133569476,15532.691721576737
4450.721279508702,15777.43574583005
4450.744425568297,15812.900917613451
4450.767571748264,15504.08904885473
4450.790718048604,15390.28673792577
4450.813864469315,15485.599417677315
4450.837011010401,15301.450874988537
4450.86015767186,15042.22041229551
4450.883304453694,14889.10940206743
4450.906451355903,14440.111444864551
4450.929598378489,13871.157230295556
4450.95274552145,13336.072879904328
4450.975892784789,12613.09060018569
4450.999040168505,11690.729983782287
4451.022187672601,10905.641139230078
4451.045335297074,9910.553038160268
4451.068483041929,8756.171764864912
4451.091630907163,8246.107909641329
4451.114778892777,8100.130697407723
4451.137926998774,8074.259436236606
4451.161075225153,8672.116308633116
4451.184223571914,9433.369614748794
4451.207372039059,10130.06356952748
4451.230520626587,10999.492201826426
4451.253669334501,11939.359497860698
4451.2768181628,12927.654787811007
4451.299967111485,13426.987550553993
4451.323116180556,13710.208721543067
4451.346265370014,14072.383981134177
4451.369414679861,14496.249375605477
4451.392564110095,14481.279903636263
4451.415713660719,14290.095289947261
4451.438863331732,14206.763406316893
4451.462013123136,13935.349540869065
4451.48516303493,13592.283456986326
4451.508313067117,13324.734696799793
4451.531463219695,13193.97678025011
4451.554613492666,13100.721746645235
4451.577763886031,13129.360636916166
4451.60091439979,13404.902146658147
4451.624065033943,13547.657411986163
4451.647215788492,13780.239176143468
4451.670366663436,14089.251700669814
4451.693517658777,14487.955373423922
4451.716668774516,14770.676100414836
4451.739820010652,15080.837852004797
4451.762971367186,15316.567363538845
4451.78612284412,15331.592337736014
4451.8092744414525,15581.690430699298
4451.832426159187,15720.202720092817
4451.855577997321,15869.503420359024
4451.878729955857,15820.740485772478
4451.901882034796,15699.00008273071
4451.925034234137,15624.496887120476
4451.948186553881,15727.460307004305
4451.97133899403,15475.542468430705
4451.994491554583,15188.587560594844
4452.017644235542,15069.355834440246
4452.040797036907,14651.501708395079
4452.063949958678,14434.815056653666
4452.087103000857,14157.080075318783
4452.1102561634425,13850.236251908114
4452.133409446437,13445.740534664943
4452.156562849841,13256.184627914177
4452.179716373655,12958.8621560116
4452.202870017878,12681.044502704199
4452.226023782513,12437.251673961184
4452.24917766756,12427.382613257021
4452.272331673018,12331.590930883407
4452.29548579889,12510.08273044673
4452.318640045174,12834.595127887642
4452.341794411874,13113.21860755295
4452.364948898987,13318.14880382422
4452.388103506516,13529.049417122915
4452.4112582344615,13695.798933128677
4452.434413082823,13590.236495665436
4452.457568051602,13488.323674692254
4452.480723140799,13275.113485470401
4452.503878350413,13024.316277380107
4452.527033680448,12943.582630160723
4452.550189130902,12730.668193659745
4452.5733447017765,12790.07181152311
4452.596500393071,13029.765314872138
4452.619656204789,13266.847336414916
4452.642812136928,13494.922469219442
4452.66596818949,13413.059440184448
4452.689124362475,13454.901601377063
4452.7122806558855,13456.33191540133
4452.735437069719,13056.58115511992
4452.7585936039795,12800.58982822696
4452.781750258665,12358.39594848555
4452.804907033777,11991.876304448622
4452.828063929317,11486.326585223005
4452.851220945285,11303.228896743107
4452.87437808168,11487.25009749723
4452.897535338506,11747.30714650107
4452.92069271576,12098.174690342057
4452.943850213445,12712.777335935607
4452.967007831562,13293.766023413278
4452.99016557011,13733.523273927345
4453.01332342909,14103.24824307609
4453.036481408502,14382.615964900959
4453.059639508349,14621.8757288763
4453.08279772863,14842.063694582432
4453.105956069345,14831.165401814766
4453.129114530496,14716.099478847473
4453.152273112083,14520.903653521837
4453.175431814107,14325.448809091617
4453.198590636567,14034.984675533147
4453.221749579466,13730.73389271702
4453.244908642802,13595.329210766622
4453.268067826579,13773.012701927912
4453.291227130795,14119.84212119612
4453.314386555451,14348.947729567557
4453.337546100549,14373.274722955433
4453.360705766087,14439.979960348775
4453.3838655520685,14719.265577256447
4453.407025458493,14997.93218048488
4453.430185485361,15144.775121959878
4453.453345632673,15232.715250409483
4453.476505900429,15332.146294434853
4453.4996662886315,15388.971375825578
4453.52282679728,15570.025027201124
4453.545987426375,15613.913326995113
4453.569148175917,15530.003164473881
4453.592309045907,15614.070521303356
4453.615470036346,15431.276696763935
4453.638631147233,15308.680391780577
4453.661792378571,15149.139343603092
4453.684953730359,14844.989484719405
4453.708115202598,14473.997360075815
4453.731276795288,13996.6067374835
4453.754438508431,13635.123801741678
4453.777600342027,12934.248581516145
4453.800762296077,12071.689908712
4453.82392437058,11172.587265506038
4453.847086565538,10299.948356629906
4453.870248880952,9264.308292465226
4453.8934113168225,8337.95908390635
4453.916573873149,7836.875680788351
4453.939736549933,7688.426265715649
4453.962899347174,7961.451163682287
4453.986062264875,8359.320210143818
4454.009225303034,8734.61132177926
4454.032388461654,9223.97742103894
4454.055551740734,9757.185416437494
4454.078715140275,9673.426485503986
4454.101878660277,9528.982854170212
4454.125042300742,9207.87377613863
4454.14820606167,8710.96613033383
4454.171369943061,8119.006372177902
4454.194533944917,7330.682715298172
4454.2176980672375,6450.890573045264
4454.240862310024,5753.297035870581
4454.264026673275,5241.677084944502
4454.287191156994,4721.8285020594385
4454.31035576118,4460.258406789695
4454.333520485834,4561.845047197955
4454.356685330957,4761.528939587686
4454.379850296548,5071.968088112783
4454.40301538261,5576.741617890962
4454.426180589142,6371.914598424972
4454.449345916145,6885.515948376226
4454.4725113636205,7288.469934987194
4454.495676931568,7448.877073510475
4454.5188426199875,7694.851399763279
4454.542008428882,7986.305228843967
4454.565174358249,8161.719969945128
4454.588340408092,8696.729888134341
4454.611506578411,9362.127682165363
4454.634672869205,10024.079084706436
4454.657839280476,10593.798576402933
4454.681005812225,10965.85469636848
4454.704172464451,11156.680032870092
4454.727339237156,11114.189867267012
4454.750506130341,10740.473763658669
4454.773673144005,10236.383646075532
4454.79684027815,9742.024553591013
4454.820007532776,9338.816321504248
4454.843174907884,9456.480834949672
4454.866342403473,9800.36430050194
4454.889510019546,10187.830240393685
4454.912677756102,10839.405281595631
4454.935845613144,11483.167699928117
4454.959013590669,12100.677002864244
4454.982181688681,12772.415204208917
4455.005349907178,13472.947741289883
4455.028518246162,13814.837230230969
4455.051686705633,14009.621991166781
4455.074855285593,14277.188251007381
4455.098023986041,14243.622522981406
4455.121192806979,14074.973962287173
4455.144361748406,13789.562439655178
4455.167530810323,13424.692614263042
4455.190699992732,13179.548658088303
4455.213869295633,12668.350070492846
4455.237038719026,12119.538136027128
4455.260208262912,11483.670533762785
4455.283377927292,10615.197109158942
4455.306547712166,9829.027994327178
4455.329717617535,8867.251645808275
4455.352887643399,7897.33985002248
4455.37605778976,7187.517476640767
4455.399228056617,6714.517697350892
4455.422398443972,6560.026350578627
4455.445568951825,6628.444370421785
4455.468739580177,7138.185021910835
4455.491910329028,8039.401030320189
4455.515081198378,8961.749431698841
4455.538252188229,9790.669255630655
4455.561423298582,10809.866661298574
4455.584594529436,11615.543410606593
4455.607765880793,12293.936423720726
4455.630937352652,12865.868779742834
4455.654108945016,13362.826263720004
4455.677280657883,13672.823719795037
4455.700452491255,13709.399131927761
4455.723624445134,13908.160229204424
4455.746796519518,13823.589039832425
4455.7699687144095,13417.183258175213
4455.793141029808,12829.574637528844
4455.816313465714,12522.628989868203
4455.83948602213,11749.79467596476
4455.862658699055,11114.67577683037
4455.885831496489,10986.528061598208
4455.909004414434,10773.024682044072
4455.932177452891,10732.764444425093
4455.955350611858,10873.015589073455
4455.978523891339,11167.993389474335
4456.001697291333,11440.651880176729
4456.024870811841,11421.419371120119
4456.048044452862,11375.952485073483
4456.071218214399,11109.449736766583
4456.094392096451,10558.316942925405
4456.117566099019,10087.866338740472
4456.140740222105,9601.958891888515
4456.163914465707,9325.00413528677
4456.187088829828,9376.729166183839
4456.210263314468,9619.261349157343
4456.233437919626,10150.345034737873
4456.256612645306,10785.163619952431
4456.279787491505,11524.867395681003
4456.302962458226,12115.92241886061
4456.326137545469,12827.506972205447
4456.349312753233,13338.494598549743
4456.372488081522,13666.181557931899
4456.395663530333,13886.994155826182
4456.41883909967,14012.36989064174
4456.442014789531,14037.719594771745
4456.465190599917,14029.637591131568
4456.488366530831,13896.800247170593
4456.5115425822705,13652.465987242274
4456.5347187542375,13516.772062122813
4456.557895046733,13525.96786552161
4456.581071459757,13464.272775991003
4456.604247993311,13407.654725479471
4456.627424647395,13652.674592239015
4456.650601422009,13934.351395005235
4456.673778317154,14089.238773538513
4456.696955332832,14183.762906421856
4456.720132469041,14220.429075019993
4456.7433097257845,14273.324431796937
4456.766487103061,14220.414997199097
4456.789664600872,13950.66551374726
4456.8128422192185,13502.330546190708
4456.8360199581,12993.396868977432
4456.859197817518,12236.750832696367
4456.882375797473,11396.776900240622
4456.905553897966,10497.018220213104
4456.928732118997,9578.009350404605
4456.951910460566,8969.767224094974
4456.975088922674,8362.430748824981
4456.998267505323,8140.536444668234
4457.021446208513,8250.994441870342
4457.044625032244,8341.863654603942
4457.067803976516,8841.568252404268
4457.090983041332,9493.536524300089
4457.1141622266905,10049.90688822268
4457.1373415325925,10787.005353205073
4457.160520959039,11779.200411723745
4457.183700506031,12684.465820495212
4457.206880173568,13130.626528991019
4457.230059961651,13545.390939990748
4457.2532398702815,13954.544583925039
4457.27641989946,14090.062488128688
4457.299600049186,14138.752405451904
4457.322780319461,14343.868235260597
4457.345960710286,14398.7497110845
4457.36914122166,14509.376503498615
4457.392321853586,14432.512965091886
4457.415502606062,14205.040196190977
4457.43868347909,14115.31534488842
4457.461864472672,13953.941854637642
4457.485045586805,13416.919346534542
4457.508226821494,12794.550332773411
4457.5314081767365,12302.22307244152
4457.554589652534,11725.899744094117
4457.577771248887,10931.757995483667
4457.600952965797,10337.054215193011
4457.624134803263,10041.286045735109
4457.647316761288,9861.575601875946
4457.67049883987,9813.718308707996
4457.693681039011,9879.28381254622
4457.716863358712,9773.622781356828
4457.7400457989725,9817.076239324804
4457.763228359793,9607.416422112527
4457.7864110411765,9809.068751814266
4457.809593843121,10177.33015363929
4457.832776765628,10817.036256836804
4457.855959808699,11386.738496270016
4457.879142972333,11765.4725158473
4457.902326256532,12234.048287929716
4457.925509661296,12577.21480311135
4457.948693186626,12732.142907654288
4457.971876832522,12668.855146810474
4457.995060598985,12454.384777794025
4458.018244486016,12092.897260175521
4458.041428493615,11807.79900820926
4458.0646126217825,11807.875848973621
4458.08779687052,11976.249873540351
4458.110981239827,12282.799854742507
4458.134165729705,12557.2785351769
4458.157350340155,13149.589033514247
4458.180535071177,13501.4179398935
4458.203719922771,13950.82653460423
4458.226904894938,14334.607004689622
4458.2500899876795,14540.928950710293
4458.273275200995,14759.121820115697
4458.296460534886,14535.28755649909
4458.3196459893525,14513.083988889815
4458.342831564396,14436.953317815705
4458.366017260016,13988.028255558449
4458.389203076214,13507.684521936548
4458.4123890129895,12941.943935868303
4458.435575070344,12406.08249522123
4458.458761248279,11516.795474655222
4458.481947546794,10536.993321380876
4458.505133965889,9413.484299191337
4458.528320505566,8467.555498450922
4458.551507165825,7214.867330969828
4458.574693946666,6213.322367647067
4458.597880848091,5633.22236786367
4458.6210678701,5000.092724231411
4458.644255012693,4812.490215522317
4458.6674422758715,4857.838819186978
4458.690629659636,5126.323452595689
4458.713817163986,5747.042790115868
4458.737004788924,6331.562035191477
4458.76019253445,7044.2021998279415
4458.783380400563,7710.144729321959
4458.8065683872655,7993.721410533574
4458.829756494558,8378.257374015511
4458.85294472244,8793.770990451314
4458.876133070914,8903.315068100297
4458.899321539979,9543.266168583574
4458.922510129635,9996.682972699442
4458.945698839884,10824.143130116268
4458.968887670727,11535.156563267054
4458.992076622164,12325.118994977596
4459.015265694195,13059.700909683317
4459.0384548868215,13594.77583172005
4459.061644200044,14096.633112327914
4459.084833633862,14264.992154542095
4459.108023188278,14584.538531712442
4459.131212863292,14557.518825543397
4459.154402658904,14737.021287426154
4459.177592575114,14480.92225039922
4459.200782611925,14376.305821649505
4459.223972769336,14044.18298550106
4459.247163047347,13860.43463079351
4459.27035344596,13684.49731281796
4459.293543965176,13673.902175811872
4459.316734604993,13586.970596851199
4459.339925365414,13849.8161628129
4459.363116246439,14177.400968040887
4459.386307248069,14394.82934692133
4459.409498370304,14461.740291188653
4459.432689613145,14621.813902350237
4459.455880976592,14686.856409627933
4459.479072460647,14842.830917796326
4459.502264065309,14927.24639791433
4459.52545579058,14689.283886251762
4459.5486476364595,14564.749375559275
4459.571839602949,14150.473868443982
4459.595031690048,13711.11367608148
4459.618223897759,13106.417266178574
4459.641416226081,12461.829854646234
4459.664608675014,11590.1474304818
4459.687801244561,10722.64784444803
4459.710993934721,9824.738606463572
4459.734186745496,9046.98322298946
4459.757379676885,8609.875905195395
4459.780572728889,8573.7801416189
4459.803765901509,8570.526502301487
4459.8269591947455,9108.972576608512
4459.850152608599,9701.305526090771
4459.87334614307,10353.005783645078
4459.89653979816,11050.019796027069
4459.91973357387,11945.031243922265
4459.942927470198,12622.873073773228
4459.966121487147,13244.507070179721
4459.989315624717,13702.25592562382
4460.0125098829085,14216.940347788903
4460.035704261722,14790.22678336765
4460.058898761158,14884.139055219306
4460.082093381218,15154.298606511216
4460.105288121902,15175.062137244133
4460.12848298321,15474.303106083367
4460.151677965145,15497.475127203334
4460.1748730677045,15521.58053325599
4460.198068290891,15333.176266774057
4460.221263634704,15215.777509076923
4460.244459099145,15510.243796133802
4460.267654684215,15362.263032980782
4460.290850389914,15234.383176015923
4460.314046216243,15014.930458695746
4460.337242163202,14818.384552292568
4460.360438230791,14968.132528383905
4460.383634419013,14936.973038851222
4460.406830727867,14948.351733265517
4460.430027157354,14773.427424228377
4460.453223707474,14548.712521826135
4460.476420378228,14116.75171224308
4460.499617169617,13637.42491642278
4460.522814081641,13148.954114317043
4460.5460111143,12317.171690980404
4460.569208267598,11404.673405937692
4460.592405541532,10609.42674984105
4460.615602936104,9782.61887429329
4460.638800451314,9075.485128251605
4460.661998087163,8266.888385235752
4460.685195843652,7676.592217876149
4460.708393720782,7443.416967182533
4460.731591718552,7131.847753363719
4460.754789836965,7161.330063967996
4460.777988076019,7375.510872238244
4460.801186435716,7556.071446449862
4460.824384916057,7663.239747152129
4460.847583517042,7758.9669865518035
4460.870782238671,7755.6611233001395
4460.893981080947,7449.453057365214
4460.917180043868,7235.183455155123
4460.940379127435,6939.325998893584
4460.963578331651,6643.440630164388
4460.986777656513,6563.049291153164
4461.009977102025,6522.039701900598
4461.033176668186,6598.668890095118
4461.056376354995,6728.717289057512
4461.079576162457,6427.900466256642
4461.102776090568,6060.436599774937
4461.125976139332,5801.839613301631
4461.149176308748,5403.692043595532
4461.172376598816,5128.331957672432
4461.195577009538,5026.573950362945
4461.218777540915,5254.949165720441
4461.241978192946,5824.60140135467
4461.265178965633,6495.598293502676
4461.2883798589755,7246.826155877661
4461.311580872974,8111.566834820518
4461.3347820076315,8840.0217579665
4461.357983262946,9645.268306873773
4461.381184638919,9994.039937224235
4461.404386135551,9970.292791508977
4461.4275877528435,9666.833762592234
4461.4507894907965,9252.922770841551
4461.4739913494095,8646.534480469596
4461.497193328685,8192.5776934269
4461.520395428623,7915.745768434157
4461.543597649224,7833.074001150153
4461.566799990488,8038.048070810349
4461.590002452416,8487.457081172563
4461.61320503501,9152.839074501962
4461.636407738269,9917.287487197018
4461.659610562193,10598.68041643251
4461.682813506784,11362.04116362282
4461.706016572044,11771.77040288824
4461.729219757971,12193.078031120349
4461.752423064566,12583.127309782674
4461.775626491831,12922.260014910307
4461.798830039766,13029.732239996627
4461.82203370837,12967.086186732562
4461.845237497647,12628.708067931262
4461.868441407595,12264.973498455964
4461.891645438215,11898.327177118816
4461.914849589509,11393.14215800348
4461.938053861475,10632.391461828069
4461.961258254117,10258.752287400193
4461.984462767433,10088.753607230537
4462.007667401424,10357.216423182907
4462.030872156092,10818.096312392672
4462.0540770314365,11330.794911308956
4462.077282027459,12003.73767693253
4462.100487144158,12636.378526164697
4462.123692381537,13192.795848437341
4462.146897739594,13479.34763582687
4462.170103218332,14044.099321694086
4462.19330881775,14152.949498611026
4462.21651453785,14264.653650255712
4462.239720378631,14383.142382437814
4462.262926340095,14417.530914193685
4462.286132422241,14482.406514590832
4462.309338625071,14534.73495205752
4462.3325449485865,14284.247341810527
4462.355751392785,14115.24119663769
4462.3789579576705,13717.827784146708
4462.402164643242,13596.34127877056
4462.4253714495,12990.283992819468
4462.448578376446,12391.13780391122
4462.471785424079,11686.750366880411
4462.494992592401,11157.77022326115
4462.518199881412,10826.539494446473
4462.541407291114,10807.139626935908
4462.564614821506,10896.843549820214
4462.587822472589,11238.613164198568
4462.611030244365,11672.961795424164
4462.634238136832,12149.327384116797
4462.657446149992,12445.303211519853
