wave,flux
5000.025812696027,16771.587012957218
5000.051815424163,18391.141997316565
5000.0778182875265,20398.250527713477
5000.103821286119,21971.239529896466
5000.12982441994,23481.14178926054
5000.155827688991,24737.29979115484
5000.181831093272,25291.69674843882
5000.207834632784,25524.8106945858
5000.2338383075285,25148.233434174548
5000.259842117506,24307.549762802686
5000.285846062716,22768.552180761788
5000.311850143161,20963.078860740694
5000.33785435884,19577.6115474881
5000.363858709754,18902.29349285327
5000.389863195905,18896.01993414973
5000.415867817292,19520.4970676647
5000.441872573917,20492.964823617524
5000.4678774657805,21367.495353809914
5000.493882492882,22053.106981116878
5000.519887655224,22361.550487002
5000.545892952806,22580.994030608123
5000.571898385629,22377.164325627607
5000.597903953694,22551.702148242246
5000.623909657001,22521.973025654665
5000.649915495552,23184.859891526572
5000.675921469346,24435.427759701404
5000.701927578384,25385.40858831911
5000.727933822669,26190.9629356255
5000.7539402021985,26746.86772708377
5000.779946716975,26930.485990622154
5000.805953366999,26795.22784158549
5000.831960152272,26525.311291606016
5000.857967072792,26555.28360980078
5000.883974128563,26733.079964097404
5000.9099813195835,26709.61543237836
5000.935988645855,26339.03835124306
5000.961996107378,26121.412423036538
5000.988003704153,25232.658393772963
5001.014011436181,24225.983980493525
5001.040019303464,22895.875285974358
5001.066027306,21626.78261384248
5001.092035443791,20675.808718767563
5001.118043716839,20061.55387473935
5001.1440521251425,20454.426875174944
5001.170060668704,21448.14139852263
5001.196069347523,22484.775370175543
5001.222078161601,23388.98202132015
5001.248087110937,23992.485639975963
5001.274096195534,24054.163674331303
5001.300105415392,23148.29389265925
5001.326114770512,22309.36505692543
5001.352124260892,20567.27685538855
5001.3781338865365,18502.380083725253
5001.4041436474445,16098.868700647734
5001.430153543616,13884.387782533257
5001.456163575053,11958.27030820185
5001.482173741756,10823.157624821137
5001.508184043724,10591.70931390322
5001.534194480961,11464.790848389339
5001.560205053464,13319.79364696474
5001.586215761236,15557.201271075335
5001.612226604278,17919.746407287785
5001.638237582589,20224.407765937976
5001.664248696171,22260.665565984134
5001.690259945024,24002.99641155247
5001.716271329149,25222.70616945312
5001.742282848547,26242.980315275097
5001.768294503218,26829.249596838814
5001.794306293164,27490.361488664355
5001.820318218383,27787.023881332385
5001.84633027888,27947.939571118335
5001.872342474651,27962.65991563973
5001.8983548056995,27876.340092972358
5001.924367272026,27847.389121825363
5001.9503798736305,27880.339750404004
5001.976392610514,27764.56600820183
5002.002405482678,27654.519553533915
5002.028418490122,27434.37802762436
5002.054431632847,27051.81951167248
5002.080444910854,26811.055238414185
5002.106458324142,26524.643841303452
5002.1324718727155,26162.42062144466
5002.158485556572,26048.748885389523
5002.184499375713,25728.545801513603
5002.210513330139,25604.015114564554
5002.236527419852,24970.721449312707
5002.262541644852,24476.98938832933
5002.288556005138,23706.05189945424
5002.314570500714,22241.701161448025
5002.340585131577,20302.1892174441
5002.36659989773,18191.422911833233
5002.392614799174,16636.40471263728
5002.418629835909,16046.58656290247
5002.444645007936,16446.378590706256
5002.4706603152545,17635.943171358176
5002.496675757866,19486.07987094335
5002.522691335772,21663.940790100136
5002.548707048972,23508.598479750657
5002.574722897468,25075.717921491454
5002.600738881259,26278.008041753066
5002.626755000347,27016.572304944264
5002.652771254732,27448.843324419995
5002.678787644415,27708.396920466563
5002.704804169397,28087.860841544087
5002.730820829678,28038.189595339452
5002.75683762526,28124.34611111296
5002.782854556142,28308.108931101957
5002.8088716223265,28251.107781509476
5002.834888823812,28174.40488945853
5002.860906160601,28141.995159394563
5002.886923632695,28233.88966722618
5002.912941240092,28211.256090622905
5002.938958982793,27994.582101797976
5002.9649768608015,27970.74361468097
5002.990994874116,27892.96686084572
5003.017013022737,27679.671729088343
5003.043031306666,27439.80519202203
5003.069049725905,27482.147787571652
5003.095068280452,27342.260614453317
5003.121086970309,27413.42709680678
5003.147105795477,27619.73057482939
5003.173124755956,27517.11503863356
5003.199143851748,27697.135892012036
5003.225163082852,27680.038347218975
5003.251182449269,27102.35958349667
5003.277201951001,26332.979096490173
5003.3032215880485,25396.024321044028
5003.32924136041,24164.145057453043
5003.35526126809,23256.64327540701
5003.381281311085,23065.63301158034
5003.407301489398,23502.7830354073
5003.433321803031,24307.635690272415
5003.459342251982,24706.40988666394
5003.4853628362525,25250.699783273692
5003.511383555844,25670.578073798304
5003.537404410757,25580.65618604599
5003.563425400991,25075.703035899638
5003.589446526548,23852.44746974823
5003.615467787429,22574.72335627842
5003.641489183634,21487.28369084399
5003.667510715163,20765.34727034289
5003.693532382018,20716.626722944075
5003.719554184199,21525.120393469762
5003.745576121707,22597.9864509742
5003.771598194542,23611.080472357076
5003.797620402706,24438.397999143315
5003.823642746199,24976.729253416743
5003.849665225021,25388.903427824764
5003.875687839174,25710.01990455548
5003.901710588658,25933.48754550952
5003.927733473473,25958.43358710482
5003.953756493622,25698.558945965087
5003.979779649103,25631.949179745105
5004.005802939919,25578.7130210781
5004.031826366068,26260.2596807865
5004.057849927553,26596.606809099285
5004.083873624375,27150.131596346124
5004.109897456533,27570.734701164394
5004.135921424028,27781.179935935044
5004.161945526862,27960.785363312134
5004.187969765035,28066.047904379695
5004.213994138547,28008.002663637726
5004.240018647399,27983.102436207042
5004.266043291592,28078.030656148385
5004.292068071127,28184.031179593196
5004.318092986004,28269.643034542398
5004.344118036223,28238.634553655334
5004.370143221788,28042.59621090343
5004.396168542696,27807.814431608684
5004.422193998949,27447.19593041388
5004.448219590549,27099.808913011813
5004.474245317495,26706.560892506055
5004.500271179789,26474.3593428989
5004.52629717743,26154.008807434242
5004.5523233104195,26005.344847624612
5004.578349578759,25873.375784567437
5004.604375982449,25703.114447431213
5004.630402521489,25123.00579197935
5004.656429195881,24230.705211368913
5004.682456005625,22704.073650557508
5004.708482950721,20604.017567097988
5004.734510031172,18506.718881807752
5004.760537246977,16728.90486434532
5004.7865645981365,15470.200891676588
5004.812592084652,15386.568281480762
5004.838619706525,16636.99961367546
5004.8646474637535,18187.17448941971
5004.890675356341,20136.470331172
5004.916703384286,22065.49817909323
5004.942731547591,23783.88645221056
5004.968759846256,24874.595482908368
5004.994788280281,25569.6298024135
5005.020816849668,25971.792536155896
5005.046845554417,25977.313396653655
5005.072874394528,25674.756186145012
5005.098903370003,25357.93174718066
5005.124932480842,24540.251116071755
5005.150961727047,23656.76397974037
5005.176991108617,22561.913783718093
5005.203020625552,20852.671831365744
5005.229050277856,18715.0126492782
5005.255080065526,16426.373419879717
5005.281109988566,14178.22528642956
5005.3071400469735,12330.793843584199
5005.333170240751,11330.107475221166
5005.3592005699,11258.999639365886
5005.38523103442,12168.118452419885
5005.411261634312,13625.332491253272
5005.4372923695755,15440.497155116322
5005.463323240213,17319.65987591489
5005.489354246225,18891.93747293922
5005.515385387611,19610.134810173255
5005.541416664373,19936.480458923645
5005.567448076511,19359.927262339967
5005.593479624025,18139.458290838957
5005.619511306918,16396.302780322705
5005.645543125189,14298.986876087323
5005.671575078838,12348.194803325176
5005.697607167867,10623.457234764117
5005.723639392277,9418.765165698765
5005.749671752068,9051.857326440097
5005.77570424724,9522.304426008006
5005.8017368777955,10904.299211660593
5005.8277696437335,12859.15835231901
5005.853802545055,15088.34438715981
5005.879835581762,17648.798777159132
5005.905868753854,20100.44431873227
5005.931902061331,22249.192316324792
5005.957935504196,23646.752684716033
5005.983969082448,25143.85955556629
5006.010002796088,26052.63828921742
5006.036036645117,26837.89316278873
5006.062070629536,27317.58124430987
5006.088104749344,27536.754920906144
5006.114139004544,27538.172904363284
5006.140173395135,27432.213589722807
5006.166207921118,27534.28057111843
5006.192242582495,27528.567978913085
5006.218277379266,27427.77231217436
5006.244312311431,27267.537693180017
5006.270347378991,27217.94578866924
5006.296382581946,27335.20638042456
5006.322417920299,27291.989522361007
5006.348453394048,27258.150017860768
5006.374489003196,27070.27310243852
5006.400524747743,27063.99791881954
5006.426560627688,27053.496151244013
5006.452596643034,26994.02254617764
5006.47863279378,26832.16083476666
5006.504669079928,26834.43828515766
5006.530705501478,26413.48590785904
5006.556742058431,26378.13335088228
5006.582778750788,25982.84850212322
5006.608815578549,25436.01287185276
5006.634852541715,24775.56792007706
5006.660889640287,24071.434763347417
5006.686926874265,22772.752611963984
5006.71296424365,20913.922152013496
5006.739001748444,18750.09171402345
5006.765039388645,16395.656839136675
5006.791077164256,13980.534394347602
5006.817115075277,11849.573282103875
5006.843153121708,10435.780766318776
5006.869191303552,9792.756297158114
5006.895229620806,9981.872089477161
5006.921268073474,11081.179833777263
5006.947306661555,13004.233929808219
5006.97334538505,15298.19471922993
5006.999384243961,17749.907598844842
5007.025423238286,20333.01217082343
5007.051462368028,22326.32014833598
5007.077501633187,23953.78184409065
5007.103541033764,25471.54037415672
5007.129580569759,26311.396187765742
5007.155620241173,26843.020240463025
5007.181660048007,27441.492191039746
5007.207699990262,27720.7582113263
5007.233740067937,27398.78498200599
5007.259780281035,26988.266330599265
5007.285820629555,26335.647857597698
5007.311861113499,25422.439657175604
5007.337901732866,24709.081811087148
5007.363942487658,24536.341485315003
5007.389983377876,24926.231900063918
5007.41602440352,25540.75936315955
5007.442065564591,26305.24357630814
5007.468106861089,27086.66072446559
5007.494148293015,27964.98575228985
5007.520189860371,28198.15248658491
5007.546231563156,28546.841205644232
5007.572273401372,28672.617806034887
5007.598315375018,28829.634144570984
5007.624357484096,28700.763263769975
5007.650399728607,28578.932371633542
5007.676442108551,28583.148861757185
5007.702484623929,28488.241974691726
5007.728527274741,28544.446230102574
5007.754570060989,28694.97855546998
5007.780612982673,28976.84546656027
5007.806656039793,29013.111009100227
5007.832699232351,29001.067979238127
5007.858742560347,29159.885970446463
5007.884786023782,29171.91932250846
5007.910829622656,29163.032968425374
5007.936873356971,29355.322132039844
5007.962917226726,29287.44059232896
5007.988961231923,29049.26673007963
5008.015005372563,29241.86383978349
5008.041049648646,29283.56840179156
5008.067094060171,29108.25172792572
5008.0931386071425,29100.835751724433
5008.119183289558,28853.450493630702
5008.14522810742,28643.481398785192
5008.171273060728,28351.03520108188
5008.197318149483,27933.62729351303
5008.223363373687,27207.023985581152
5008.249408733339,26984.78982055385
5008.27545422844,26682.859795477198
5008.301499858992,26954.105836634546
5008.327545624995,27286.73171182975
5008.353591526448,27718.442019211816
5008.379637563355,28244.33558181324
5008.405683735714,28533.227702142067
5008.431730043527,28808.18936432579
5008.457776486794,28993.475171981052
5008.483823065515,28928.621964014932
5008.509869779693,29020.189927955453
5008.535916629327,29002.962794433795
5008.561963614418,28686.449449949592
5008.588010734968,28667.87352895925
5008.614057990975,28728.286676390206
5008.640105382442,28826.15722169052
5008.666152909369,28794.44532368637
5008.692200571756,29144.73322959168
5008.718248369605,28988.877274754228
5008.744296302916,29041.441795026378
5008.77034437169,28765.003696201664
5008.796392575927,28903.315647308482
5008.822440915628,28886.50358491763
5008.848489390794,29057.32505675769
5008.874538001426,29060.304478232207
5008.900586747524,28997.0838239241
5008.926635629089,29161.67350273134
5008.952684646122,29123.822086019045
5008.978733798623,28963.0252779706
5009.004783086593,28669.59782734887
5009.030832510033,28458.97587153556
5009.056882068944,28356.833103870114
5009.082931763326,28318.055475563368
5009.108981593179,28272.297618848046
5009.135031558506,28172.69559819979
5009.161081659306,27927.72156748997
5009.187131895579,27517.781503512233
5009.213182267327,27153.422483008806
5009.239232774552,26427.181999608765
5009.265283417251,26136.649693271644
5009.291334195428,26065.29240856584
5009.317385109083,26383.12233074031
5009.343436158216,26565.86079923781
5009.369487342828,27193.81434624947
5009.395538662919,27329.559551193553
5009.421590118491,27616.07364985272
5009.447641709544,27543.112583869057
5009.473693436078,27621.138354953473
5009.499745298095,27651.03823822602
5009.525797295596,27078.540150347977
5009.55184942858,26275.514312418316
5009.577901697049,25215.260235124828
5009.603954101003,23780.980983663936
5009.630006640443,22529.096996333275
5009.65605931537,21671.495251501572
5009.682112125784,21145.446221665097
5009.708165071686,20739.09474036717
5009.7342181530785,20079.510343846963
5009.760271369959,19026.957507612526
5009.78632472233,17679.199745054262
5009.812378210192,16487.367153781175
5009.838431833546,16016.123199165859
5009.864485592391,16431.147470126423
5009.890539486731,17658.61412654153
5009.916593516564,19316.023401301456
5009.942647681891,21324.443057258428
5009.968701982713,23180.503170287226
5009.994756419032,24917.159887358554
5010.020810990847,26252.162950959988
5010.046865698159,27274.98263095676
5010.072920540969,27984.9789940397
5010.098975519279,28148.24872443658
5010.125030633087,28524.903097272687
5010.151085882395,28802.115349016796
5010.177141267204,28847.451988654993
5010.2031967875155,28786.577494533736
5010.229252443328,28949.214628223806
5010.255308234644,29046.984934852364
5010.281364161464,28898.529801834713
5010.307420223788,28756.095625667305
5010.333476421617,28569.60022205333
5010.359532754951,28354.727186624958
5010.3855892237925,28005.71339768556
5010.4116458281405,27373.394152371733
5010.437702567997,26591.698694993258
5010.463759443362,25375.78786936162
5010.489816454236,23758.028073887475
5010.51587360062,22252.779424532517
5010.541930882514,20883.30298571943
5010.56798829992,20439.64432619148
5010.5940458528385,21098.34869931518
5010.62010354127,22250.046557909594
5010.646161365214,23813.456326270385
5010.672219324672,25158.71399883943
5010.698277419646,26486.41307630183
5010.724335650135,27434.334099172815
5010.7503940161405,28132.923615950913
5010.7764525176635,28560.80014749272
5010.802511154703,28594.626077364846
5010.828569927262,28676.243065501123
5010.85462883534,28917.048816693412
5010.880687878937,28995.549914953415
5010.906747058056,28897.765135372367
5010.932806372695,29019.63295528869
5010.958865822856,29135.738691889313
5010.98492540854,29061.628561178648
5011.0109851297475,29109.91815864166
5011.0370449864795,29162.65990185844
5011.063104978735,29098.374811706577
5011.089165106517,29089.536869487878
5011.115225369825,28959.271919363742
5011.14128576866,28775.019193142918
5011.167346303022,28642.787967864195
5011.193406972913,28308.50395943245
5011.219467778333,27821.2267782015
5011.2455287192815,27169.78909260392
5011.271589795761,26486.789441015022
5011.297651007772,25640.228200116428
5011.323712355315,24704.52683174495
5011.34977383839,23965.79995839271
5011.375835456999,23546.42276578205
5011.401897211142,23232.138859593095
5011.427959100819,23334.18423855499
5011.454021126031,23075.05562669575
5011.4800832867795,22612.727799648634
5011.506145583065,21711.433961303606
5011.532208014888,20386.407129577536
5011.558270582248,18528.89825731599
5011.584333285148,16208.846866041087
5011.610396123588,13790.33564658964
5011.636459097567,11609.562340406683
5011.662522207088,9949.504567081949
5011.68858545215,8797.934630066347
5011.714648832754,8414.25224466449
5011.740712348902,8798.593886196088
5011.766776000594,9870.699246598915
5011.79283978783,11553.673190819212
5011.818903710611,13792.90439351918
5011.844967768939,16188.425437711267
5011.871031962813,18434.306571475987
5011.897096292234,20431.7749158322
5011.923160757203,21771.475767619646
5011.949225357721,22244.46355894137
5011.975290093788,21826.230852552893
5012.001354965406,20755.987595707706
5012.027419972574,19538.05070157181
5012.053485115294,18546.828153653456
5012.079550393566,18319.369293914162
5012.105615807392,18926.02240500645
5012.13168135677,20205.33067763389
5012.157747041703,21763.929598386152
5012.183812862192,23259.59768112013
5012.209878818236,23819.704570477144
5012.235944909837,24113.582080829798
5012.262011136994,23829.419511189593
5012.28807749971,23202.752136174055
5012.3141439979845,22554.278435403427
5012.340210631818,22772.906569204104
5012.366277401212,23486.73226281492
5012.392344306166,24334.342877959134
5012.418411346682,25348.440560811967
5012.44447852276,26245.844033158526
5012.470545834401,27049.49857304698
5012.496613281605,27559.96407191387
5012.522680864374,27839.684253649553
5012.548748582707,27970.30409000927
5012.574816436606,28188.0887626432
5012.600884426071,28288.468115558728
5012.626952551104,28174.772719989815
5012.653020811705,28275.864241920484
5012.679089207873,28265.537105743166
5012.705157739611,28076.786390982455
5012.73122640692,27787.357328241265
5012.757295209798,27273.35750316811
5012.7833641482475,26704.403627998912
5012.80943322227,25453.612062679214
5012.835502431864,23988.40577363654
5012.861571777033,21978.86793635088
5012.887641257775,19962.867769728622
5012.9137108740915,18484.69763006561
5012.939780625984,17858.61357224622
5012.965850513452,17928.01229845634
5012.991920536498,18802.335550513955
5013.017990695121,20296.694979214106
5013.044060989323,21471.136624459563
5013.070131419104,22573.648492482884
5013.096201984464,23177.409327865895
5013.122272685405,23131.7147676022
5013.148343521927,22421.183142074024
5013.17441449403,21267.840686228858
5013.200485601717,19265.340549050055
5013.226556844987,17112.477475990898
5013.2526282238405,14939.525340317245
5013.278699738279,13197.815449072315
5013.304771388303,11958.899968881364
5013.330843173913,11900.477014618238
5013.35691509511,12889.265563309558
5013.382987151894,14556.484503544527
5013.409059344267,16600.798504669143
5013.435131672228,18619.78997457778
5013.46120413578,20473.18382701017
5013.487276734921,21792.48747606972
5013.513349469653,22648.071661439135
5013.539422339977,23400.49612659295
5013.565495345894,24108.84475761812
5013.5915684874035,24534.281302510724
5013.617641764507,24687.526735385753
5013.643715177206,24922.72401463185
5013.6697887254995,24567.644996037976
5013.695862409389,23407.304043035787
5013.721936228875,21706.185062691668
5013.748010183958,19467.799915503307
5013.77408427464,16778.42866018411
5013.800158500921,14433.521797479847
5013.826232862801,12430.036826552743
5013.852307360281,11193.044021128671
5013.8783819933615,10822.921849038568
5013.904456762045,11330.264858512139
5013.930531666329,12784.194573666979
5013.956606706218,15130.16129322916
5013.982681881709,17597.681079757305
5014.008757192805,19903.713641924503
5014.034832639507,22118.10157795354
5014.060908221814,23816.50608980295
5014.086983939728,25089.60247468543
5014.113059793249,25705.15347957881
5014.139135782378,26123.18551294274
5014.165211907116,26521.44550381822
5014.1912881674625,26457.449680163365
5014.21736456342,26420.796654118854
