wave,flux
4450.003811362098,10519.44485883008
4450.026953690486,9239.222932358198
4450.050096139227,8290.281891767781
4450.073238708321,7471.724820035191
4450.096381397769,6548.393108889072
4450.119524207569,5807.749344490525
4450.142667137726,5448.74486455027
4450.165810188237,5448.552654412245
4450.188953359103,6162.891697782084
4450.212096650326,7375.369545735995
4450.2352400619075,8718.771671545697
4450.258383593846,10639.488047082741
4450.281527246142,12144.311238103233
4450.304671018797,13413.70146937274
4450.327814911813,13887.006645823163
4450.350958925188,14060.205580976142
4450.374103058924,14002.600190699579
4450.3972473130225,13977.769133366159
4450.420391687483,14402.486876547575
4450.443536182305,15097.733006485141
4450.466680797492,16116.062668155122
4450.489825533042,16783.176951371745
4450.512970388957,16707.438199524695
4450.536115365237,16695.62103369733
4450.559260461882,17068.68429803415
4450.582405678895,17936.617068438925
4450.605551016274,19552.84024015282
4450.628696474022,21377.35336473769
4450.651842052138,23150.057183170215
4450.674987750623,24624.17401038263
4450.698133569476,25538.94144229325
4450.721279508702,26214.95278704412
4450.744425568297,26804.059941509593
4450.767571748264,27274.999819630862
4450.790718048604,27420.960035955733
4450.813864469315,27415.205213759567
4450.837011010401,27360.268739072315
4450.86015767186,27222.87716086088
4450.883304453694,27010.087667314387
4450.906451355903,27017.54267630865
4450.929598378489,26697.423449384085
4450.95274552145,26390.625843246693
4450.975892784789,26190.199974892217
4450.999040168505,25881.20427670118
4451.022187672601,25297.76109630387
4451.045335297074,24574.935321622554
4451.068483041929,23766.33574811418
4451.091630907163,22573.079308470315
4451.114778892777,20678.14104155617
4451.137926998774,18630.49112620722
4451.161075225153,16043.710787458158
4451.184223571914,13614.765378495411
4451.207372039059,11664.69273669476
4451.230520626587,10660.660465945686
4451.253669334501,10476.014363548864
4451.2768181628,11396.936136077937
4451.299967111485,13025.635720945651
4451.323116180556,15417.443019784223
4451.346265370014,17748.51479924164
4451.369414679861,19908.60039842434
4451.392564110095,21736.775042579397
4451.415713660719,23222.852438342416
4451.438863331732,24446.659379023942
4451.462013123136,25060.74512151717
4451.48516303493,25359.995543989196
4451.508313067117,25401.648151494974
4451.531463219695,24868.126300004325
4451.554613492666,23906.17005037405
4451.577763886031,22590.4623130355
4451.60091439979,21011.343702618185
4451.624065033943,19536.210864324912
4451.647215788492,18510.774951223746
4451.670366663436,18121.804637594378
4451.693517658777,18768.62403791177
4451.716668774516,19643.69991260465
4451.739820010652,20685.760613188704
4451.762971367186,21677.886561444626
4451.78612284412,22737.22954738535
4451.8092744414525,23952.37526414773
4451.832426159187,24944.61873569596
4451.855577997321,25860.60376881688
4451.878729955857,26313.421211796212
4451.901882034796,26815.780514295762
4451.925034234137,27217.72825682008
4451.948186553881,27270.818357375607
4451.97133899403,27333.88370343132
4451.994491554583,27479.481622359275
4452.017644235542,27510.208502275822
4452.040797036907,27460.746183849755
4452.063949958678,27357.35031218308
4452.087103000857,26967.581800807122
4452.1102561634425,26648.530254808895
4452.133409446437,26064.266118174815
4452.156562849841,25554.477652887013
4452.179716373655,24473.926678992044
4452.202870017878,23507.7217263938
4452.226023782513,22316.120167048757
4452.24917766756,21356.73127113884
4452.272331673018,20474.06077629961
4452.29548579889,19541.353235100625
4452.318640045174,18848.26082850366
4452.341794411874,18279.365973396514
4452.364948898987,17635.58561075344
4452.388103506516,17351.071210081107
4452.4112582344615,17783.75568083587
4452.434413082823,18697.61405138316
4452.457568051602,19969.059164581802
4452.480723140799,21270.87938636135
4452.503878350413,22401.542425113636
4452.527033680448,23264.160391438458
4452.550189130902,23508.06990417426
4452.5733447017765,23033.53381394537
4452.596500393071,21799.55875983602
4452.619656204789,20549.76709287221
4452.642812136928,19547.607017046157
4452.66596818949,18812.326736624702
4452.689124362475,19128.80775393097
4452.7122806558855,19863.157431140135
4452.735437069719,21041.468165417053
4452.7585936039795,21971.475300616406
4452.781750258665,22413.63402126613
4452.804907033777,22800.91332519211
4452.828063929317,22706.814828297207
4452.851220945285,22504.921209278113
4452.87437808168,21618.903160111036
4452.897535338506,20227.572387612337
4452.92069271576,18639.434117865072
4452.943850213445,16918.290952022762
4452.967007831562,15546.116143412655
4452.99016557011,15545.605589618073
4453.01332342909,16241.45962581428
4453.036481408502,18000.77040878213
4453.059639508349,19998.058399581118
4453.08279772863,21932.276105224635
4453.105956069345,23508.098513946752
4453.129114530496,24457.237723395378
4453.152273112083,25180.82142534432
4453.175431814107,25454.608843777092
4453.198590636567,25649.375304116096
4453.221749579466,25654.333836071448
4453.244908642802,25385.060701889233
4453.268067826579,24973.800875516612
4453.291227130795,23835.906895547418
4453.314386555451,22518.8034809859
4453.337546100549,21204.20527650761
4453.360705766087,20498.229958440945
4453.3838655520685,20513.254770147483
4453.407025458493,21154.229218343102
4453.430185485361,22303.335584003013
4453.453345632673,23478.043003269297
4453.476505900429,24176.186370873533
4453.4996662886315,24912.9567488466
4453.52282679728,25796.793295370266
4453.545987426375,26064.986460757587
4453.569148175917,26228.879494743393
4453.592309045907,26595.528218754058
4453.615470036346,26904.07409565869
4453.638631147233,26873.309561991766
4453.661792378571,26934.659965286475
4453.684953730359,26864.404808046143
4453.708115202598,26882.37738537439
4453.731276795288,26719.854807347983
4453.754438508431,26614.638572671578
4453.777600342027,26077.40871540757
4453.800762296077,25934.718877513784
4453.82392437058,25380.13585099603
4453.847086565538,24854.642147316437
4453.870248880952,24127.507795281228
4453.8934113168225,22878.53625116941
4453.916573873149,21146.100725211738
4453.939736549933,19144.09811677871
4453.962899347174,16388.98917304549
4453.986062264875,13971.78694795918
4454.009225303034,11832.371503409731
4454.032388461654,10195.69338064862
4454.055551740734,9660.913828791328
4454.078715140275,10149.021965522303
4454.101878660277,11477.509370502552
4454.125042300742,13185.439348180988
4454.14820606167,14836.612167957815
4454.171369943061,16346.366780117749
4454.194533944917,17139.335282721942
4454.2176980672375,16962.685520289357
4454.240862310024,16215.62943043011
4454.264026673275,14628.289457858315
4454.287191156994,12732.059778103197
4454.31035576118,11175.663718313224
4454.333520485834,9631.85598461456
4454.356685330957,8269.999471682537
4454.379850296548,6938.518088182378
4454.40301538261,5975.229273654568
4454.426180589142,5630.314650962428
4454.449345916145,5638.254878891826
4454.4725113636205,6039.226943906943
4454.495676931568,7110.32559464074
4454.5188426199875,8576.84814635831
4454.542008428882,10080.986611846814
4454.565174358249,11398.327066487835
4454.588340408092,12199.890032042154
4454.611506578411,12256.45193626035
4454.634672869205,11903.723077654562
4454.657839280476,11530.599083061712
4454.681005812225,11617.3706874985
4454.704172464451,12461.918835859111
4454.727339237156,13905.981459954372
4454.750506130341,15751.840387365299
4454.773673144005,17662.977684421545
4454.79684027815,19087.68485575215
4454.820007532776,19766.643750401752
4454.843174907884,19909.07343833322
4454.866342403473,19212.64897259657
4454.889510019546,17758.05962975699
4454.912677756102,16048.258263489737
4454.935845613144,14277.336782023163
4454.959013590669,13282.806600119107
4454.982181688681,13233.551399074062
4455.005349907178,14214.585136033633
4455.028518246162,16016.898350838377
4455.051686705633,18108.085666810453
4455.074855285593,20186.23554121662
4455.098023986041,21873.290657384052
4455.121192806979,23279.401627272262
4455.144361748406,24265.908878697297
4455.167530810323,25007.711112942496
4455.190699992732,25001.348526527105
4455.213869295633,24852.642421551387
4455.237038719026,23940.002925531444
4455.260208262912,23327.130498831648
4455.283377927292,22196.37529919355
4455.306547712166,21047.47132952141
4455.329717617535,20539.6521414058
4455.352887643399,19835.850642137917
4455.37605778976,18543.621232679077
4455.399228056617,17277.722341716526
4455.422398443972,15796.481915678776
4455.445568951825,13783.431196104058
4455.468739580177,11665.249320951629
4455.491910329028,9877.447860512497
4455.515081198378,8497.025491242708
4455.538252188229,7862.548709004737
4455.561423298582,8159.907675944936
4455.584594529436,9099.71300407722
4455.607765880793,10941.788531875458
4455.630937352652,13377.182407314647
4455.654108945016,15959.65229866474
4455.677280657883,18262.78716608892
4455.700452491255,20095.69089317708
4455.723624445134,21483.848550599345
4455.746796519518,22742.533617339952
4455.7699687144095,23384.248219942674
4455.793141029808,23861.771299128835
4455.816313465714,24369.561486127568
4455.83948602213,24011.91945940673
4455.862658699055,23923.427848588493
4455.885831496489,22960.129528907935
4455.909004414434,21580.39511130771
4455.932177452891,19650.988531129187
4455.955350611858,17681.117804463334
4455.978523891339,15795.584312457244
4456.001697291333,14219.44707473153
4456.024870811841,13643.328148273427
4456.048044452862,13905.567486297032
4456.071218214399,14781.982203174364
4456.094392096451,16143.182077245247
4456.117566099019,17569.698365644203
4456.140740222105,18553.026433042403
4456.163914465707,19210.728725126763
4456.187088829828,18996.63421523353
4456.210263314468,17716.49435411144
4456.233437919626,16192.616607402353
4456.256612645306,14556.866721166085
4456.279787491505,13291.742784514532
4456.302962458226,12946.174887538922
4456.326137545469,13689.795429932621
4456.349312753233,15213.805854075381
4456.372488081522,17309.095711674494
4456.395663530333,19445.663843978196
4456.41883909967,21353.999003055025
4456.442014789531,22927.51215536882
4456.465190599917,24064.813925811104
4456.488366530831,24319.42028385443
4456.5115425822705,24555.197424757414
4456.5347187542375,24685.706853321633
4456.557895046733,24580.50056905492
4456.581071459757,24254.700294720467
4456.604247993311,23713.499895755147
4456.627424647395,22901.146413574614
4456.650601422009,21865.48949597456
4456.673778317154,20928.17466934026
4456.696955332832,20335.16585691675
4456.720132469041,20352.035237198776
4456.7433097257845,21056.501386684493
4456.766487103061,22160.365051402623
4456.789664600872,23079.558244577274
4456.8128422192185,23741.121916063734
4456.8360199581,24316.024330683627
4456.859197817518,24741.404362216283
4456.882375797473,24706.86587696309
4456.905553897966,24442.323694362432
4456.928732118997,23881.33560297078
4456.951910460566,22877.43401597576
4456.975088922674,21555.738763134104
4456.998267505323,19558.12320873782
4457.021446208513,17227.28024759642
4457.044625032244,14896.433496414413
4457.067803976516,12992.71619124387
4457.090983041332,11639.461224681445
4457.1141622266905,10841.305485454186
4457.1373415325925,10574.438437309722
4457.160520959039,10917.476889775353
4457.183700506031,11689.015554720816
4457.206880173568,12783.584459076323
4457.230059961651,14486.244083863116
4457.2532398702815,16771.934173508467
4457.27641989946,19205.510227749044
4457.299600049186,21387.56260604167
4457.322780319461,22881.089936918033
4457.345960710286,23796.64712368737
4457.36914122166,24366.794867272067
4457.392321853586,24414.10686366026
4457.415502606062,24116.854195059044
4457.43868347909,24012.83049228457
4457.461864472672,24017.886701651
4457.485045586805,24348.21171188442
4457.508226821494,24591.815211879883
4457.5314081767365,24417.28484190065
4457.554589652534,24082.954911122895
4457.577771248887,23606.96862228367
4457.600952965797,22742.509285989538
4457.624134803263,21701.431079186437
4457.647316761288,20262.726125434023
4457.67049883987,18714.073939373928
4457.693681039011,16965.403500119523
4457.716863358712,15092.261245519907
4457.7400457989725,13914.805605034071
4457.763228359793,13642.425238477153
4457.7864110411765,14071.731135921367
4457.809593843121,14572.803895604353
4457.832776765628,14949.353040139724
4457.855959808699,14733.639042790366
4457.879142972333,14132.821253278114
4457.902326256532,13749.18572754815
4457.925509661296,14255.002675128664
4457.948693186626,15679.655765366735
4457.971876832522,17296.08914656106
4457.995060598985,19136.060431565988
4458.018244486016,20830.344244201802
4458.041428493615,21644.14613180539
4458.0646126217825,22112.516330389906
4458.08779687052,21600.995422323864
4458.110981239827,20527.95204503827
4458.134165729705,19059.730586451413
4458.157350340155,17426.263914607098
4458.180535071177,16804.400885903673
4458.203719922771,16765.66293682596
4458.226904894938,17574.241440508715
4458.2500899876795,19339.366715191
4458.273275200995,21092.54756646806
4458.296460534886,22531.790569069843
4458.3196459893525,23674.38677904039
4458.342831564396,24519.657430263236
4458.366017260016,25060.64524623608
4458.389203076214,25613.105029843955
4458.4123890129895,25626.006787732247
4458.435575070344,25075.491014062038
4458.458761248279,25007.89517445061
4458.481947546794,24401.443987225142
4458.505133965889,23334.83257795097
4458.528320505566,22577.09870147107
4458.551507165825,21244.026768399835
4458.574693946666,19891.022921372838
4458.597880848091,17809.231073222752
4458.6210678701,15700.394211852552
4458.644255012693,13335.124295225296
4458.6674422758715,10888.602284820136
4458.690629659636,8845.162015640924
4458.713817163986,7341.578465401173
4458.737004788924,6211.338715792373
4458.76019253445,5770.425970910608
4458.783380400563,5760.99539822466
4458.8065683872655,6344.349877200578
4458.829756494558,7417.720663088147
4458.85294472244,8907.200453766858
4458.876133070914,10548.379442260375
4458.899321539979,12071.057383052063
4458.922510129635,13256.426872344955
4458.945698839884,13698.132746640154
4458.968887670727,13708.29839074371
4458.992076622164,13502.376973323258
4459.015265694195,13569.622054778545
4459.0384548868215,14582.477055701665
4459.061644200044,16327.095130288419
4459.084833633862,18195.710317612647
4459.108023188278,20170.67705397756
4459.131212863292,22375.42590567581
4459.154402658904,24083.293331651286
4459.177592575114,24715.600272575128
4459.200782611925,25302.44137328647
4459.223972769336,25770.36727588688
4459.247163047347,25756.73515691477
4459.27035344596,25649.951778668685
4459.293543965176,25152.26567854771
4459.316734604993,24270.084246772414
4459.339925365414,23135.28518635314
4459.363116246439,21771.841930257488
4459.386307248069,20399.957142766016
4459.409498370304,19714.83551491136
4459.432689613145,19861.291094294724
4459.455880976592,20601.562310856538
4459.479072460647,21523.23825451385
4459.502264065309,23124.853779118523
4459.52545579058,24030.30914900352
4459.5486476364595,24591.93137235874
4459.571839602949,25404.06650535985
4459.595031690048,25433.218723906255
4459.618223897759,25587.0975002602
4459.641416226081,25760.003828144163
4459.664608675014,25509.374766612153
4459.687801244561,24933.472622901376
4459.710993934721,23996.609225320808
4459.734186745496,22890.68384008181
4459.757379676885,21281.504319031515
4459.780572728889,19260.302891960026
4459.803765901509,16725.48546637892
4459.8269591947455,14391.813289106833
4459.850152608599,12395.193778145791
4459.87334614307,10973.92090082314
4459.89653979816,10331.100420518464
4459.91973357387,10568.304771460871
4459.942927470198,11266.460617904864
4459.966121487147,12617.54541154957
4459.989315624717,13955.473477521278
4460.0125098829085,15678.64519685963
4460.035704261722,17703.053627632242
4460.058898761158,19798.65459047326
4460.082093381218,21611.081229881725
4460.105288121902,23270.5049897779
4460.12848298321,24542.49337102692
4460.151677965145,25400.46558375178
4460.1748730677045,25957.423301669864
4460.198068290891,26580.920021573205
4460.221263634704,26802.687433735526
4460.244459099145,26862.685799973962
4460.267654684215,27036.42227288453
4460.290850389914,27140.305247906745
4460.314046216243,27018.26525852974
4460.337242163202,26950.290160800178
4460.360438230791,26484.332090667915
4460.383634419013,26084.940736393706
4460.406830727867,25549.86827028495
4460.430027157354,25155.490179666598
4460.453223707474,25020.812593323077
4460.476420378228,25177.253897816634
4460.499617169617,25358.404690543433
4460.522814081641,25339.056169063635
4460.5460111143,25300.79466806314
4460.569208267598,25185.64079646408
4460.592405541532,24729.15001780545
4460.615602936104,23962.221393178985
4460.638800451314,22748.078863405877
4460.661998087163,21092.25811725463
4460.685195843652,18949.33434514156
4460.708393720782,16471.869168199206
4460.731591718552,14317.446134985863
4460.754789836965,12337.394642588102
4460.777988076019,10841.071187123913
4460.801186435716,10126.14829012798
4460.824384916057,9312.657342896673
4460.847583517042,8995.149846879633
4460.870782238671,9443.655532971205
4460.893981080947,10210.769778569442
4460.917180043868,11153.936413349713
4460.940379127435,12274.328979198317
4460.963578331651,12958.857176024612
4460.986777656513,13084.636822630748
4461.009977102025,12729.211443032511
4461.033176668186,11671.628743279041
4461.056376354995,10653.330302819026
4461.079576162457,9991.49739402158
4461.102776090568,9666.67187146345
4461.125976139332,10085.097516123922
4461.149176308748,10558.513659442156
4461.172376598816,10966.5278653394
4461.195577009538,10924.596269198079
4461.218777540915,10217.454906001734
4461.241978192946,9257.040498225277
4461.265178965633,8222.342197541542
4461.2883798589755,7197.435053110477
4461.311580872974,6557.9114312485835
4461.3347820076315,6600.931433593305
4461.357983262946,7276.509813934893
4461.381184638919,8654.613037333615
4461.404386135551,10584.082979003322
4461.4275877528435,12733.004508851478
4461.4507894907965,14678.335199385298
4461.4739913494095,16494.174759868285
4461.497193328685,17743.38291398102
4461.520395428623,18041.901558808866
4461.543597649224,17629.77411242355
4461.566799990488,16328.805707144997
4461.590002452416,14272.949237712804
4461.61320503501,12421.856954969167
4461.636407738269,10841.887805594502
4461.659610562193,10041.317321648468
4461.682813506784,10357.27013056267
4461.706016572044,11341.999124642314
4461.729219757971,13070.201514097998
4461.752423064566,14995.863152438007
4461.775626491831,16991.4196751961
4461.798830039766,18510.27590109307
4461.82203370837,19141.482800807466
4461.845237497647,19490.668319500382
4461.868441407595,20358.520038270915
4461.891645438215,20556.941139607407
4461.914849589509,20878.534907694415
4461.938053861475,21741.973998891994
4461.961258254117,21461.023753661208
4461.984462767433,20458.376739187155
4462.007667401424,18895.874568955503
4462.030872156092,17200.071129920638
4462.0540770314365,15548.93150707607
4462.077282027459,13915.495030643491
4462.100487144158,13087.712757888668
4462.123692381537,13114.46128562508
4462.146897739594,14657.705349017437
4462.170103218332,16938.871836410723
4462.19330881775,18920.7756593525
4462.21651453785,21021.42537524385
4462.239720378631,22659.02652195539
4462.262926340095,23833.93662061857
4462.286132422241,24359.58882307451
4462.309338625071,24656.265885543537
4462.3325449485865,24321.07867942549
4462.355751392785,23980.821873050918
4462.3789579576705,23838.35050686427
4462.402164643242,23813.00996342959
4462.4253714495,23944.043805239926
4462.448578376446,23778.10120281451
4462.471785424079,23997.93661880113
4462.494992592401,23556.4776986854
4462.518199881412,22915.83513282673
4462.541407291114,21710.70735871814
4462.564614821506,19952.36097743644
4462.587822472589,17670.43214734658
4462.611030244365,15629.833273545355
4462.634238136832,14376.217699608611
