wave,flux
5000.025812696027,20538.892441150976
5000.051815424163,20987.27769093922
5000.0778182875265,21144.898822201685
5000.103821286119,21066.058667653837
5000.12982441994,20756.184276744167
5000.155827688991,20136.90602221723
5000.181831093272,19192.262809986987
5000.207834632784,18492.39000153189
5000.2338383075285,17949.423522274872
5000.259842117506,17667.337733957997
5000.285846062716,17811.731545465405
5000.311850143161,18042.071021479056
5000.33785435884,18583.61521377401
5000.363858709754,19179.58413907615
5000.389863195905,19552.727319941954
5000.415867817292,19830.01243089753
5000.441872573917,20210.640256893945
5000.4678774657805,20614.987617245264
5000.493882492882,20936.979997472867
5000.519887655224,21216.475128778315
5000.545892952806,21504.888689313855
5000.571898385629,22017.545861227547
5000.597903953694,22480.853460264065
5000.623909657001,22725.15526585791
5000.649915495552,23058.340699094406
5000.675921469346,23103.262703420758
5000.701927578384,22949.267164772802
5000.727933822669,22895.385708373968
5000.7539402021985,22902.176085597803
5000.779946716975,22767.21768625959
5000.805953366999,22470.448782577747
5000.831960152272,22057.5332839966
5000.857967072792,21489.07934093254
5000.883974128563,20705.118926449086
5000.9099813195835,19793.479893913376
5000.935988645855,18894.42762398273
5000.961996107378,18102.038726080827
5000.988003704153,17846.66441414306
5001.014011436181,17843.104311392202
5001.040019303464,18135.363816655245
5001.066027306,18509.11870345711
5001.092035443791,18891.032687900723
5001.118043716839,19221.851270722505
5001.1440521251425,19381.924363273127
5001.170060668704,19213.632998282148
5001.196069347523,18718.170744874664
5001.222078161601,17875.36189680305
5001.248087110937,16833.183726679326
5001.274096195534,15606.143562472438
5001.300105415392,14120.203099903294
5001.326114770512,12756.191300286482
5001.352124260892,11850.886915991552
5001.3781338865365,11434.32911641925
5001.4041436474445,11633.40270277023
5001.430153543616,12243.785407391857
5001.456163575053,13370.28715888577
5001.482173741756,14669.447624593018
5001.508184043724,16076.240780032762
5001.534194480961,17611.202745704228
5001.560205053464,19032.70293255425
5001.586215761236,20265.432347858663
5001.612226604278,21273.835190594957
5001.638237582589,22047.71236726458
5001.664248696171,22574.66553201241
5001.690259945024,23164.719936063946
5001.716271329149,23662.129554505307
5001.742282848547,23702.909641600465
5001.768294503218,23950.919250621366
5001.794306293164,24164.87307388817
5001.820318218383,24101.184626643244
5001.84633027888,23953.92539712594
5001.872342474651,23919.479738685877
5001.8983548056995,24018.533240468518
5001.924367272026,23844.900177090534
5001.9503798736305,23761.45190795617
5001.976392610514,23547.767347751487
5002.002405482678,23287.305311590524
5002.028418490122,23070.51650978166
5002.054431632847,22953.227092909798
5002.080444910854,22677.09980695556
5002.106458324142,22263.0576484656
5002.1324718727155,21835.128169636286
5002.158485556572,21144.93375973558
5002.184499375713,20320.73454763716
5002.210513330139,19385.509926052877
5002.236527419852,18266.4207072733
5002.262541644852,17284.12806722399
5002.288556005138,16804.697630333983
5002.314570500714,16850.3950918616
5002.340585131577,17142.690698492974
5002.36659989773,17863.709958822605
5002.392614799174,18978.389754917618
5002.418629835909,19891.851510732366
5002.444645007936,20826.928117370913
5002.4706603152545,21778.2143835954
5002.496675757866,22442.31272897406
5002.522691335772,22980.99064965702
5002.548707048972,23340.997365450057
5002.574722897468,23556.353023577925
5002.600738881259,23988.020922411306
5002.626755000347,24226.20850718437
5002.652771254732,24278.468005250168
5002.678787644415,24227.902285417895
5002.704804169397,24171.392787036377
5002.730820829678,24264.194920032474
5002.75683762526,24391.178502346607
5002.782854556142,24262.361920846393
5002.8088716223265,24402.905774805513
5002.834888823812,24397.900924434056
5002.860906160601,24098.464028018843
5002.886923632695,24144.68158897739
5002.912941240092,24190.603516472333
5002.938958982793,23907.72921473088
5002.9649768608015,23852.838978372896
5002.990994874116,24025.628164814974
5003.017013022737,24046.144400992427
5003.043031306666,24039.1016603887
5003.069049725905,23937.177901469197
5003.095068280452,23796.12122678337
5003.121086970309,23607.780969752737
5003.147105795477,23428.844022273755
5003.173124755956,23006.383596847452
5003.199143851748,22903.63096405976
5003.225163082852,22438.060644670055
5003.251182449269,22291.88809149511
5003.277201951001,22154.56727446474
5003.3032215880485,22168.774858448764
5003.32924136041,22351.23473424756
5003.35526126809,22402.99218993751
5003.381281311085,22316.416682604624
5003.407301489398,22272.580921578814
5003.433321803031,21982.9561048842
5003.459342251982,21449.185658337425
5003.4853628362525,21017.17739611059
5003.511383555844,20397.959754507505
5003.537404410757,19965.72982930533
5003.563425400991,19941.72509376592
5003.589446526548,19945.206538172748
5003.615467787429,20065.564251718228
5003.641489183634,20495.718533260566
5003.667510715163,20862.60546710283
5003.693532382018,21240.445541718283
5003.719554184199,21576.05896220509
5003.745576121707,21850.61522807318
5003.771598194542,22350.745176629895
5003.797620402706,22678.348048284923
5003.823642746199,22802.256614866143
5003.849665225021,22901.436132063573
5003.875687839174,22944.6185016225
5003.901710588658,23129.77948041019
5003.927733473473,23348.26702676235
5003.953756493622,23479.327014125312
5003.979779649103,23844.472575775486
5004.005802939919,23874.921059203
5004.031826366068,24079.171300392172
5004.057849927553,24203.199872208013
5004.083873624375,24199.045387595477
5004.109897456533,24509.619626649725
5004.135921424028,24366.177345721004
5004.161945526862,24252.3478655086
5004.187969765035,24120.806772923774
5004.213994138547,24140.154921555215
5004.240018647399,24286.16612739249
5004.266043291592,24262.118381674583
5004.292068071127,23878.682606288454
5004.318092986004,23668.454773195983
5004.344118036223,23677.97845688079
5004.370143221788,23486.220125747277
5004.396168542696,23259.01641273976
5004.422193998949,23100.454040580116
5004.448219590549,22929.350551996617
5004.474245317495,22477.687575392138
5004.500271179789,21829.815098572497
5004.52629717743,21213.473254931538
5004.5523233104195,20075.37341842008
5004.578349578759,19134.785253465987
5004.604375982449,17873.764867712554
5004.630402521489,16565.848064766556
5004.656429195881,15788.527748895513
5004.682456005625,15457.601180717751
5004.708482950721,15664.055068828458
5004.734510031172,16417.53133129699
5004.760537246977,17198.83936980435
5004.7865645981365,18231.19046395405
5004.812592084652,19352.11378067095
5004.838619706525,20318.10414384323
5004.8646474637535,21047.537273119866
5004.890675356341,21363.089309984123
5004.916703384286,21826.590846003593
5004.942731547591,21759.85427456188
5004.968759846256,21754.493364744547
5004.994788280281,21485.124078002857
5005.020816849668,20794.663118526776
5005.046845554417,19877.764162233394
5005.072874394528,18708.81276170951
5005.098903370003,17668.46397479038
5005.124932480842,16189.819154815561
5005.150961727047,14725.312104802522
5005.176991108617,13461.62937309378
5005.203020625552,12515.607880397423
5005.229050277856,12029.498994416714
5005.255080065526,12220.12023401466
5005.281109988566,12831.152053508395
5005.3071400469735,13578.229249224962
5005.333170240751,14435.688090560367
5005.3592005699,15298.41312183306
5005.38523103442,16090.29450887972
5005.411261634312,16407.183308281954
5005.4372923695755,16042.833682039869
5005.463323240213,15710.81525939562
5005.489354246225,14845.958728267902
5005.515385387611,13729.67160740197
5005.541416664373,12685.482342529547
5005.567448076511,11363.308847520271
5005.593479624025,10758.502436915502
5005.619511306918,10153.510173314537
5005.645543125189,10233.309968055413
5005.671575078838,10775.945342854639
5005.697607167867,11707.0357997828
5005.723639392277,13167.594444482247
5005.749671752068,14698.545107374495
5005.77570424724,16216.505444633374
5005.8017368777955,17629.58559724289
5005.8277696437335,19024.056494838194
5005.853802545055,20428.02475720387
5005.879835581762,21265.147541169263
5005.905868753854,21925.003147294286
5005.931902061331,22703.283451502633
5005.957935504196,22951.532365972107
5005.983969082448,23355.794528459384
5006.010002796088,23651.986621623873
5006.036036645117,23932.435249541726
5006.062070629536,23991.212346458906
5006.088104749344,23919.43330871826
5006.114139004544,23712.186547866066
5006.140173395135,23781.945740421903
5006.166207921118,23851.6809308281
5006.192242582495,23726.24889861414
5006.218277379266,23647.84532999035
5006.244312311431,23733.67656369586
5006.270347378991,23589.961475966866
5006.296382581946,23403.998305596724
5006.322417920299,23315.301832250803
5006.348453394048,23232.441034545875
5006.374489003196,23276.58152494744
5006.400524747743,23198.42209996648
5006.426560627688,22894.904977065755
5006.452596643034,22659.298807483636
5006.47863279378,22437.187077184753
5006.504669079928,21864.536010002794
5006.530705501478,21405.978408597475
5006.556742058431,20177.005859767887
5006.582778750788,19428.86766345342
5006.608815578549,18116.54532835272
5006.634852541715,16545.327615430153
5006.660889640287,15026.953087859474
5006.686926874265,13391.29292885804
5006.71296424365,12180.889051109276
5006.739001748444,11507.557516967096
5006.765039388645,11235.941377848645
5006.791077164256,11618.664535981336
5006.817115075277,12467.321380868816
5006.843153121708,13661.033309144628
5006.869191303552,15138.821743693266
5006.895229620806,16591.136550589476
5006.921268073474,17991.39554467714
5006.947306661555,19268.20984959192
5006.97334538505,20425.131482064327
5006.999384243961,21535.17311271646
5007.025423238286,22061.694076307325
5007.051462368028,22637.269242219405
5007.077501633187,23046.575596038474
5007.103541033764,23355.867810077532
5007.129580569759,23016.228069085126
5007.155620241173,22818.149862443548
5007.181660048007,22901.720337684048
5007.207699990262,22816.06596548888
5007.233740067937,22671.354245577844
5007.259780281035,22525.619670321306
5007.285820629555,22651.1917384738
5007.311861113499,23149.542730033107
5007.337901732866,23524.956178166136
5007.363942487658,23785.948543118924
5007.389983377876,23995.44447551127
5007.41602440352,24162.594820775015
5007.442065564591,24351.094038879488
5007.468106861089,24433.340792176583
5007.494148293015,24498.257387649686
5007.520189860371,24623.454809958606
5007.546231563156,24698.52842225079
5007.572273401372,24572.381085693843
5007.598315375018,24730.1257295265
5007.624357484096,24752.450732688267
5007.650399728607,24699.03784837301
5007.676442108551,24729.298741155904
5007.702484623929,24791.454235485475
5007.728527274741,24994.42253279827
5007.754570060989,24834.82021573874
5007.780612982673,24884.304205417924
5007.806656039793,24986.407353508024
5007.832699232351,24907.944886883764
5007.858742560347,25116.18193215468
5007.884786023782,25095.976206305826
5007.910829622656,24914.635202991612
5007.936873356971,24881.26797006363
5007.962917226726,25028.934700256366
5007.988961231923,24914.45828330051
5008.015005372563,24627.048507768395
5008.041049648646,24603.96622421361
5008.067094060171,24359.846372283097
5008.0931386071425,24094.840520781676
5008.119183289558,23971.90968183388
5008.14522810742,23793.286541082303
5008.171273060728,23794.76359216225
5008.197318149483,23882.60174051207
5008.223363373687,24175.312437132394
5008.249408733339,24351.061414923315
5008.27545422844,24337.02292506125
5008.301499858992,24392.034035694167
5008.327545624995,24577.58658165686
5008.353591526448,24590.369786499075
5008.379637563355,24604.58476838401
5008.405683735714,24615.357939738802
5008.431730043527,24706.45963928529
5008.457776486794,24563.78099644363
5008.483823065515,24637.767664790266
5008.509869779693,24778.74168882824
5008.535916629327,24652.670459281067
5008.561963614418,24563.815269647104
5008.588010734968,24857.191215636
5008.614057990975,25093.71282083918
5008.640105382442,24890.632149323683
5008.666152909369,24781.093098516525
5008.692200571756,24876.585241991917
5008.718248369605,25023.200185647544
5008.744296302916,24880.736434552204
5008.77034437169,25064.469539892405
5008.796392575927,24863.333292153424
5008.822440915628,24897.701016099247
5008.848489390794,24926.866749249097
5008.874538001426,24930.323887139893
5008.900586747524,24946.067353923718
5008.926635629089,24535.378718708642
5008.952684646122,24578.18680180911
5008.978733798623,24673.54888901147
5009.004783086593,24689.787120556804
5009.030832510033,24434.120999358027
5009.056882068944,24260.339287378847
5009.082931763326,24186.592386264376
5009.108981593179,24084.394251664275
5009.135031558506,23958.10981925247
5009.161081659306,23812.683308088355
5009.187131895579,23836.421377161605
5009.213182267327,23976.148543925316
5009.239232774552,24027.808266419237
5009.265283417251,24106.278394871926
5009.291334195428,24150.960665637416
5009.317385109083,23997.60917850022
5009.343436158216,23807.65629281279
5009.369487342828,23769.19882747307
5009.395538662919,23447.020633723056
5009.421590118491,22943.292756173007
5009.447641709544,22290.79998466895
5009.473693436078,21610.67467185814
5009.499745298095,21001.130376728626
5009.525797295596,20349.488509710198
5009.55184942858,19759.870635564337
5009.577901697049,19157.61301295627
5009.603954101003,18510.59600353421
5009.630006640443,17557.481689264678
5009.65605931537,16568.70671967548
5009.682112125784,15832.604404903092
5009.708165071686,15438.421072181283
5009.7342181530785,15380.361599255337
5009.760271369959,15928.825238100579
5009.78632472233,16932.182033500172
5009.812378210192,18015.27936329685
5009.838431833546,19073.671127981917
5009.864485592391,20078.481170895207
5009.890539486731,21078.50975558605
5009.916593516564,22079.279298175785
5009.942647681891,22958.195299778763
5009.968701982713,23487.242749073204
5009.994756419032,23725.787223209165
5010.020810990847,24170.1103666099
5010.046865698159,24436.3757265272
5010.072920540969,24602.410775602697
5010.098975519279,24787.643926745706
5010.125030633087,24771.95852637883
5010.151085882395,24735.284421237102
5010.177141267204,24592.998791801936
5010.2031967875155,24469.31605643466
5010.229252443328,24396.569891365787
5010.255308234644,24183.58743497787
5010.281364161464,23795.47480212193
5010.307420223788,23354.76953660007
5010.333476421617,22867.18104475114
5010.359532754951,22197.20804678564
5010.3855892237925,21319.661519860147
5010.4116458281405,20581.879826333454
5010.437702567997,20224.007108332804
5010.463759443362,20198.001891247826
5010.489816454236,20556.786190225503
5010.51587360062,21169.115540727602
5010.541930882514,21794.613802423697
5010.56798829992,22407.74156486271
5010.5940458528385,22988.123030041712
5010.62010354127,23512.763850018495
5010.646161365214,23896.108451545828
5010.672219324672,24143.430134741648
5010.698277419646,24282.13252504914
5010.724335650135,24498.23536076261
5010.7503940161405,24549.490981624007
5010.7764525176635,24592.586986940736
5010.802511154703,24905.11003356544
5010.828569927262,24908.063072158926
5010.85462883534,24980.576682137693
5010.880687878937,24730.81068348397
5010.906747058056,24923.69316971175
5010.932806372695,24891.688014611504
5010.958865822856,24908.070029783074
5010.98492540854,24737.688715779026
5011.0109851297475,24791.393641024908
5011.0370449864795,24628.336291683794
5011.063104978735,24455.673646600007
5011.089165106517,24225.794217385424
5011.115225369825,24047.28710619404
5011.14128576866,23685.086104183287
5011.167346303022,23241.709286437563
5011.193406972913,22717.847074611633
5011.219467778333,22190.12162523046
5011.2455287192815,21856.292448376887
5011.271589795761,21487.759254469744
5011.297651007772,21020.71331082655
5011.323712355315,20658.706394084842
5011.34977383839,20334.50309712397
5011.375835456999,19335.391073590505
5011.401897211142,18490.684049776264
5011.427959100819,17446.7047388188
5011.454021126031,16072.300620542836
5011.4800832867795,14482.066387928264
5011.506145583065,12856.255648692542
5011.532208014888,11428.6326036385
5011.558270582248,10382.651672118613
5011.584333285148,9772.060818155827
5011.610396123588,9808.732371017662
5011.636459097567,10125.981025048432
5011.662522207088,10971.480662368618
5011.68858545215,12327.41599333082
5011.714648832754,13749.713757148287
5011.740712348902,15150.832658166924
5011.766776000594,16426.151822466596
5011.79283978783,17293.63677209662
5011.818903710611,17952.26623038862
5011.844967768939,18474.96255972477
5011.871031962813,18302.810320256456
5011.897096292234,18048.920318211043
5011.923160757203,17844.408269477408
5011.949225357721,17811.997137171566
5011.975290093788,18191.84755880918
5012.001354965406,18696.312525502086
5012.027419972574,19280.974958281473
5012.053485115294,19870.263392768502
5012.079550393566,20402.77336906383
5012.105615807392,20617.426639081747
5012.13168135677,20725.957087435738
5012.157747041703,20814.794483817812
5012.183812862192,20825.24354246551
5012.209878818236,20927.220468083357
5012.235944909837,21166.47381106167
5012.262011136994,21800.215528187517
5012.28807749971,22382.291798316965
5012.3141439979845,22708.61974471245
5012.340210631818,23056.259646475144
5012.366277401212,23452.371643715433
5012.392344306166,23703.188193195394
5012.418411346682,23827.043741943522
5012.44447852276,24081.69653332606
5012.470545834401,24196.70734793185
5012.496613281605,24201.210844352263
5012.522680864374,24188.092497561163
5012.548748582707,24163.937707201192
5012.574816436606,24199.326304093418
5012.600884426071,23918.455108302554
5012.626952551104,23528.590177907205
5012.653020811705,23154.16902736215
5012.679089207873,22582.351833055407
5012.705157739611,21629.29075548738
5012.73122640692,20669.972603105994
5012.757295209798,19683.499348795864
5012.7833641482475,18719.25544933601
5012.80943322227,18045.69309833118
5012.835502431864,17696.641621575523
5012.861571777033,17838.520684013245
5012.887641257775,18202.65794845282
5012.9137108740915,18616.46107706306
5012.939780625984,18986.187730521022
5012.965850513452,19179.248725863912
5012.991920536498,19249.157117052324
5013.017990695121,18965.04851259915
5013.044060989323,18108.073372716077
5013.070131419104,17184.027026684314
5013.096201984464,15834.001202735082
5013.122272685405,14488.211239247883
5013.148343521927,13398.60238187827
5013.17441449403,12553.342105863441
5013.200485601717,12152.708599154426
5013.226556844987,12277.578285582806
5013.2526282238405,13042.251135403036
5013.278699738279,14104.383941337153
5013.304771388303,15338.509743933
5013.330843173913,16605.243456318112
5013.35691509511,17748.934684833734
5013.382987151894,18700.57199876921
5013.409059344267,19650.64576114621
5013.435131672228,20337.859906392106
5013.46120413578,20876.93292559274
5013.487276734921,21300.427612092357
5013.513349469653,21387.658827790303
5013.539422339977,21197.912183366847
5013.565495345894,20776.42921556095
5013.5915684874035,20022.16156184013
5013.617641764507,18960.374660010148
5013.643715177206,17588.37661975928
5013.6697887254995,16140.744024634889
5013.695862409389,14865.292242614507
5013.721936228875,13875.695009815201
5013.748010183958,13367.41089859754
5013.77408427464,13280.026240892847
5013.800158500921,13727.99618255071
5013.826232862801,14734.077230504292
5013.852307360281,15990.922848815953
5013.8783819933615,17386.362584533395
5013.904456762045,18562.403727662324
5013.930531666329,19687.46636862027
5013.956606706218,20866.804249373283
5013.982681881709,21629.431019895543
5014.008757192805,22239.416018099804
5014.034832639507,22638.472638156934
5014.060908221814,22679.53917438425
5014.086983939728,23061.20191766581
5014.113059793249,23099.187533668668
5014.139135782378,22664.872651024016
5014.165211907116,22612.420508614017
5014.1912881674625,22385.214810888254
