wave,flux
5000.025812696027,16854.55352722578
5000.051815424163,18298.729832117227
5000.0778182875265,20416.985324038164
5000.103821286119,22478.072040612602
5000.12982441994,24450.57599036448
5000.155827688991,25845.388236332645
5000.181831093272,26743.326002555947
5000.207834632784,27654.456599818866
5000.2338383075285,27636.469564460083
5000.259842117506,27024.800556320766
5000.285846062716,25739.43565193053
5000.311850143161,23731.287389164812
5000.33785435884,21826.27933558294
5000.363858709754,20538.932783892003
5000.389863195905,20025.924938227778
5000.415867817292,20377.252364640783
5000.441872573917,21279.550470634822
5000.4678774657805,22339.321108746
5000.493882492882,23309.31465767569
5000.519887655224,23899.887522034547
5000.545892952806,24256.726486020114
5000.571898385629,24141.079404613094
5000.597903953694,23872.551328010886
5000.623909657001,24094.849534254812
5000.649915495552,24405.51578764712
5000.675921469346,25348.787886118036
5000.701927578384,26668.86039854703
5000.727933822669,27647.09804501113
5000.7539402021985,28396.983074040698
5000.779946716975,28933.119164961565
5000.805953366999,29058.714008967225
5000.831960152272,28820.274324147987
5000.857967072792,28562.86625744028
5000.883974128563,28547.348982258798
5000.9099813195835,28632.91238921724
5000.935988645855,28650.750997288516
5000.961996107378,28396.007654660352
5000.988003704153,27939.27200626533
5001.014011436181,27384.141468468766
5001.040019303464,26002.482474995195
5001.066027306,24319.295546941332
5001.092035443791,22618.708386030514
5001.118043716839,21889.18765788076
5001.1440521251425,21968.711625647968
5001.170060668704,22548.543242405292
5001.196069347523,23585.856501726048
5001.222078161601,24687.940981424632
5001.248087110937,25456.04037815208
5001.274096195534,25792.644990077177
5001.300105415392,25556.79308667292
5001.326114770512,24701.09947997444
5001.352124260892,23360.77163066832
5001.3781338865365,21495.00813982516
5001.4041436474445,19140.14604938609
5001.430153543616,16431.20585451465
5001.456163575053,13938.818741876077
5001.482173741756,11874.45981933865
5001.508184043724,11114.330163607065
5001.534194480961,11360.768705180179
5001.560205053464,12740.90645470583
5001.586215761236,14886.520869973641
5001.612226604278,17387.557586745974
5001.638237582589,20209.25305664013
5001.664248696171,22856.658623225503
5001.690259945024,24978.34546797482
5001.716271329149,26696.772792754447
5001.742282848547,27774.387191676524
5001.768294503218,28537.419078205316
5001.794306293164,29306.621606054487
5001.820318218383,29634.32452814218
5001.84633027888,29757.670836793088
5001.872342474651,30197.402914504248
5001.8983548056995,30178.16048441258
5001.924367272026,30174.892579438052
5001.9503798736305,30069.148094664084
5001.976392610514,30002.10945416993
5002.002405482678,29864.534450837957
5002.028418490122,29761.23349719281
5002.054431632847,29519.832379903
5002.080444910854,29137.690874479402
5002.106458324142,28888.458669104573
5002.1324718727155,28673.69981422577
5002.158485556572,28406.189971181935
5002.184499375713,27941.34741029823
5002.210513330139,27543.226248735427
5002.236527419852,27232.106830391225
5002.262541644852,26550.01046161183
5002.288556005138,25998.853011291518
5002.314570500714,24986.37146760951
5002.340585131577,23160.415674805754
5002.36659989773,20861.26949292699
5002.392614799174,18531.824405280982
5002.418629835909,16942.653380102754
5002.444645007936,16685.04151627963
5002.4706603152545,17578.446217740984
5002.496675757866,19387.656681278004
5002.522691335772,21766.517159535826
5002.548707048972,24077.80227889661
5002.574722897468,26090.028798267645
5002.600738881259,27691.32086794141
5002.626755000347,28712.459413676053
5002.652771254732,29418.3085743289
5002.678787644415,29852.710185332773
5002.704804169397,30239.79914874666
5002.730820829678,30481.989964135737
5002.75683762526,30416.372800009554
5002.782854556142,30470.129189124487
5002.8088716223265,30506.633870092686
5002.834888823812,30293.127538916768
5002.860906160601,30236.046002266823
5002.886923632695,30358.916330854066
5002.912941240092,30284.338212552182
5002.938958982793,30251.323820839796
5002.9649768608015,30385.698209401213
5002.990994874116,30230.97876871807
5003.017013022737,29978.969579802648
5003.043031306666,30002.780325159885
5003.069049725905,29820.90513000344
5003.095068280452,29603.79653947483
5003.121086970309,29488.983193942928
5003.147105795477,29661.6871962987
5003.173124755956,29712.429054006003
5003.199143851748,29871.978229490218
5003.225163082852,29849.92178964482
5003.251182449269,29364.342849096494
5003.277201951001,28768.53969598114
5003.3032215880485,28001.275405135755
5003.32924136041,26737.365533383872
5003.35526126809,25479.28061700068
5003.381281311085,24712.90133294541
5003.407301489398,24704.80817349003
5003.433321803031,25307.198833579227
5003.459342251982,25987.361373295378
5003.4853628362525,26815.17794620955
5003.511383555844,27388.672817999428
5003.537404410757,27842.485645331966
5003.563425400991,27549.665674698423
5003.589446526548,26649.169958891067
5003.615467787429,25355.049236893145
5003.641489183634,23657.343308232656
5003.667510715163,22522.337132269164
5003.693532382018,21936.614526211848
5003.719554184199,22313.923268778806
5003.745576121707,23395.87674419461
5003.771598194542,24442.965422904137
5003.797620402706,25571.85824092139
5003.823642746199,26511.38122760756
5003.849665225021,27233.359660394006
5003.875687839174,27757.596429414258
5003.901710588658,27776.15091400808
5003.927733473473,27834.302905212535
5003.953756493622,27758.402963142267
5003.979779649103,27429.98132735791
5004.005802939919,27254.945694840553
5004.031826366068,27460.94058140394
5004.057849927553,28058.642885424102
5004.083873624375,28712.100613489885
5004.109897456533,29312.272510751427
5004.135921424028,29751.268582526267
5004.161945526862,29923.384515703314
5004.187969765035,30223.871763029772
5004.213994138547,30335.730044936114
5004.240018647399,30394.227366382187
5004.266043291592,30450.46673791952
5004.292068071127,30340.102377617237
5004.318092986004,30390.095394237607
5004.344118036223,30484.750095426196
5004.370143221788,30404.09519278267
5004.396168542696,30334.865834301927
5004.422193998949,29874.894815937867
5004.448219590549,29589.82368735644
5004.474245317495,29169.954264851807
5004.500271179789,28378.2848607177
5004.52629717743,28188.213235537638
5004.5523233104195,27939.508121695915
5004.578349578759,28095.84326673078
5004.604375982449,27722.772877313066
5004.630402521489,27377.856715212605
5004.656429195881,26919.866327100095
5004.682456005625,25725.10157051279
5004.708482950721,23860.63222624241
5004.734510031172,21475.54378600418
5004.760537246977,18976.57252549733
5004.7865645981365,17046.246263531535
5004.812592084652,16099.050407151432
5004.838619706525,16449.6349996484
5004.8646474637535,18126.713504884417
5004.890675356341,20380.46124697281
5004.916703384286,22512.151410153067
5004.942731547591,24589.50684582949
5004.968759846256,26398.80534523569
5004.994788280281,27243.37897259589
5005.020816849668,27860.989885179857
5005.046845554417,28009.143416078838
5005.072874394528,27918.93377152064
5005.098903370003,27567.5038247132
5005.124932480842,27068.38669289492
5005.150961727047,26253.816869661834
5005.176991108617,25157.48208785181
5005.203020625552,23656.802832524394
5005.229050277856,21727.095959652288
5005.255080065526,19322.10352819659
5005.281109988566,16659.5109537489
5005.3071400469735,14227.705675047975
5005.333170240751,12443.38448762741
5005.3592005699,11626.989010850926
5005.38523103442,11918.220007247372
5005.411261634312,13393.360131175816
5005.4372923695755,15296.471945988025
5005.463323240213,17621.101182386683
5005.489354246225,19316.01803331237
5005.515385387611,20685.209821727723
5005.541416664373,21547.79216429137
5005.567448076511,21375.108781564737
5005.593479624025,20355.250187454625
5005.619511306918,18927.93878503521
5005.645543125189,16731.838589711107
5005.671575078838,14467.643437919987
5005.697607167867,12323.068949343186
5005.723639392277,10613.078605874201
5005.749671752068,9709.573448084853
5005.77570424724,9627.474696198922
5005.8017368777955,10449.524079054108
5005.8277696437335,12123.145505230465
5005.853802545055,14360.303496778124
5005.879835581762,17041.558733694164
5005.905868753854,19970.00364059887
5005.931902061331,22474.507935223995
5005.957935504196,24604.59375037552
5005.983969082448,26393.805989867942
5006.010002796088,27681.709135066638
5006.036036645117,28609.78184950737
5006.062070629536,29172.572080348626
5006.088104749344,29549.038391643935
5006.114139004544,29754.700710026587
5006.140173395135,29762.65490436169
5006.166207921118,29698.576039769017
5006.192242582495,29554.36841731365
5006.218277379266,29455.928770873645
5006.244312311431,29436.8536202119
5006.270347378991,29344.083981568623
5006.296382581946,29292.8447213715
5006.322417920299,29264.15057939578
5006.348453394048,29235.90357540998
5006.374489003196,29270.889146782458
5006.400524747743,29206.24242922465
5006.426560627688,29267.907003005235
5006.452596643034,28984.065822947716
5006.47863279378,28907.460866585985
5006.504669079928,28860.44396313124
5006.530705501478,28635.89938638158
5006.556742058431,28321.45431138646
5006.582778750788,28452.341516219403
5006.608815578549,27863.887546755075
5006.634852541715,27391.197293467896
5006.660889640287,26594.318736024736
5006.686926874265,25500.639395166767
5006.71296424365,23949.44256012207
5006.739001748444,21807.30322465048
5006.765039388645,19186.262679325573
5006.791077164256,16421.43708844838
5006.817115075277,13850.455386176327
5006.843153121708,11755.615824552573
5006.869191303552,10422.304069599735
5006.895229620806,10083.359030066544
5006.921268073474,10808.992669015677
5006.947306661555,12383.930240402015
5006.97334538505,14642.627364230333
5006.999384243961,17379.907969183656
5007.025423238286,20090.06757001615
5007.051462368028,22700.491950894782
5007.077501633187,24817.318288519236
5007.103541033764,26775.66286885438
5007.129580569759,27878.895278071217
5007.155620241173,28769.622737956393
5007.181660048007,29441.19912408059
5007.207699990262,29805.604159641716
5007.233740067937,29636.07895792608
5007.259780281035,29282.553370948677
5007.285820629555,28763.22540825789
5007.311861113499,27889.63001950142
5007.337901732866,27000.45794879937
5007.363942487658,26430.0205738378
5007.389983377876,26335.47914687665
5007.41602440352,26883.688826006302
5007.442065564591,27840.56069405223
5007.468106861089,28818.905502475212
5007.494148293015,29678.72998989275
5007.520189860371,30312.44172214179
5007.546231563156,30826.605294586763
5007.572273401372,30914.566116562015
5007.598315375018,30921.00883195676
5007.624357484096,31175.78287958172
5007.650399728607,30880.33634619943
5007.676442108551,30860.22385777943
5007.702484623929,30910.664169799133
5007.728527274741,30836.233222360996
5007.754570060989,31109.949844438237
5007.780612982673,31053.031225488714
5007.806656039793,31042.817938223514
5007.832699232351,31111.502525712775
5007.858742560347,31401.671876847817
5007.884786023782,31535.14381992743
5007.910829622656,31515.06569933614
5007.936873356971,31479.502246127948
5007.962917226726,31440.468238439094
5007.988961231923,31479.913168543466
5008.015005372563,31493.5108374465
5008.041049648646,31630.29665709317
5008.067094060171,31647.08333996232
5008.0931386071425,31510.77948611127
5008.119183289558,31572.636377935865
5008.14522810742,31095.5903825895
5008.171273060728,30812.412872940895
5008.197318149483,30350.707791870766
5008.223363373687,29857.057180611147
5008.249408733339,29210.564860464598
5008.27545422844,28826.77432384599
5008.301499858992,28894.617514198137
5008.327545624995,28955.27962978358
5008.353591526448,29626.113776406903
5008.379637563355,30187.490196802144
5008.405683735714,30715.42514301909
5008.431730043527,31165.403641325956
5008.457776486794,31086.336121632892
5008.483823065515,31104.751834938168
5008.509869779693,31243.439528478648
5008.535916629327,31223.14980153516
5008.561963614418,31227.340759482642
5008.588010734968,31117.195329296686
5008.614057990975,30963.795160546153
5008.640105382442,30852.35872255924
5008.666152909369,30883.295993907002
5008.692200571756,31263.0138893103
5008.718248369605,31401.620243336238
5008.744296302916,31220.78817449917
5008.77034437169,31479.86812876312
5008.796392575927,31254.404003043193
5008.822440915628,31264.14661750478
5008.848489390794,31234.833966804395
5008.874538001426,31235.949383759264
5008.900586747524,31383.58849959161
5008.926635629089,31459.091672469098
5008.952684646122,31467.608176192163
5008.978733798623,31276.65485034519
5009.004783086593,31067.65629433178
5009.030832510033,31052.21920676164
5009.056882068944,30876.114047992847
5009.082931763326,30679.273458199983
5009.108981593179,30533.816779897166
5009.135031558506,30418.137100590226
5009.161081659306,30183.067420692798
5009.187131895579,29887.46437247842
5009.213182267327,29574.278452746097
5009.239232774552,28740.575515001143
5009.265283417251,27902.8952597897
5009.291334195428,27603.86164843724
5009.317385109083,27702.870383866462
5009.343436158216,28099.611679537455
5009.369487342828,28592.64145016894
5009.395538662919,29171.490665287765
5009.421590118491,29386.731825915387
5009.447641709544,29755.734764241577
5009.473693436078,29825.67099988614
5009.499745298095,29924.190253540553
5009.525797295596,29786.42445762767
5009.55184942858,29027.866639819407
5009.577901697049,27947.177617961337
5009.603954101003,26522.806466598806
5009.630006640443,24971.684467130042
5009.65605931537,23716.25743980257
5009.682112125784,23179.151649499887
5009.708165071686,22653.425267880895
5009.7342181530785,22129.808911174936
5009.760271369959,21336.8666749709
5009.78632472233,20004.950872689602
5009.812378210192,18474.705436257336
5009.838431833546,17233.79229046769
5009.864485592391,17001.423190255464
5009.890539486731,17897.422800399123
5009.916593516564,19714.883985475422
5009.942647681891,21722.297798001608
5009.968701982713,23898.410792082745
5009.994756419032,25879.186237525235
5010.020810990847,27473.53145968702
5010.046865698159,28780.360359426864
5010.072920540969,29511.27040386752
5010.098975519279,30015.58467200441
5010.125030633087,30892.36512291295
5010.151085882395,31134.789825679363
5010.177141267204,31259.664028895953
5010.2031967875155,31178.635588707704
5010.229252443328,31358.010057454307
5010.255308234644,31348.822373403065
5010.281364161464,31195.52619224229
5010.307420223788,31113.60676288134
5010.333476421617,31012.76518461413
5010.359532754951,30762.97758445197
5010.3855892237925,30458.197795430726
5010.4116458281405,30087.781452311727
5010.437702567997,29350.446885351485
5010.463759443362,28274.73259272405
5010.489816454236,26809.928240295412
5010.51587360062,24986.98730618365
5010.541930882514,23219.68896603786
5010.56798829992,21884.262993018405
5010.5940458528385,21755.473991229355
5010.62010354127,22743.572784855864
5010.646161365214,24276.828182662164
5010.672219324672,25973.69622322248
5010.698277419646,27716.118616967764
5010.724335650135,29075.786542306265
5010.7503940161405,29955.070668820343
5010.7764525176635,30542.827275428866
5010.802511154703,30748.697020140415
5010.828569927262,30787.277966068155
5010.85462883534,30987.800393020494
5010.880687878937,31151.916133930496
5010.906747058056,31060.0447690173
5010.932806372695,31163.97961294828
5010.958865822856,31426.267367563833
5010.98492540854,31433.847153125265
5011.0109851297475,31373.72799521676
5011.0370449864795,31241.125640125352
5011.063104978735,31332.04559907738
5011.089165106517,31353.3592654977
5011.115225369825,31175.657480355643
5011.14128576866,31191.587412373952
5011.167346303022,31185.649899511754
5011.193406972913,30779.604672357276
5011.219467778333,30358.056373105872
5011.2455287192815,29784.193843665707
5011.271589795761,28795.714831959165
5011.297651007772,28039.92178572731
5011.323712355315,27062.713644721345
5011.34977383839,26102.853508756918
5011.375835456999,25433.61056314175
5011.401897211142,25104.071553047477
5011.427959100819,25133.326644618937
5011.454021126031,24978.179261819783
5011.4800832867795,24836.587384026618
5011.506145583065,24146.217716573545
5011.532208014888,23028.69486297635
5011.558270582248,21274.799043699008
5011.584333285148,18888.675677150193
5011.610396123588,16371.207279239265
5011.636459097567,13965.649488078814
5011.662522207088,11626.852947398089
5011.68858545215,9940.188858543715
5011.714648832754,8995.016656087702
5011.740712348902,8786.137901008131
5011.766776000594,9387.456358985568
5011.79283978783,10910.206695122964
5011.818903710611,13038.437215296413
5011.844967768939,15523.329541074278
5011.871031962813,18159.733954887066
5011.897096292234,20720.14134684218
5011.923160757203,22698.464888768896
5011.949225357721,23836.11466210601
5011.975290093788,24061.02679842009
5012.001354965406,23201.302460550385
5012.027419972574,21790.146110681904
5012.053485115294,20379.99597987258
5012.079550393566,19373.01096917318
5012.105615807392,19294.527594865645
5012.13168135677,20529.873962344576
5012.157747041703,22131.77793663405
5012.183812862192,23955.9137797557
5012.209878818236,25110.28053611915
5012.235944909837,26150.41891242989
5012.262011136994,26113.328593252943
5012.28807749971,25150.597285201387
5012.3141439979845,24383.916725237
5012.340210631818,24077.27699369448
5012.366277401212,24560.876040811432
5012.392344306166,25442.356552686444
5012.418411346682,26546.262043787043
5012.44447852276,27723.85929279724
5012.470545834401,29057.65539797125
5012.496613281605,29686.61128438523
5012.522680864374,29922.56868268358
5012.548748582707,30209.409255828272
5012.574816436606,30401.822832623813
5012.600884426071,30475.682082147658
5012.626952551104,30516.159399015134
5012.653020811705,30441.902758564782
5012.679089207873,30475.904615719195
5012.705157739611,30336.332247540966
5012.73122640692,30149.11262190346
5012.757295209798,30047.641512066824
5012.7833641482475,29416.60286220158
5012.80943322227,28389.13097977929
5012.835502431864,26880.46256073969
5012.861571777033,24859.043282181126
5012.887641257775,22845.209445816236
5012.9137108740915,20761.62342672344
5012.939780625984,19222.824135682135
5012.965850513452,18710.406234672366
5012.991920536498,19345.228457932284
5013.017990695121,20680.923374268747
5013.044060989323,22146.63360711167
5013.070131419104,23944.572538718126
5013.096201984464,24988.83150757364
5013.122272685405,25333.91570283044
5013.148343521927,24854.32773904464
5013.17441449403,23893.279327199027
5013.200485601717,22326.77954980427
5013.226556844987,20288.15349166983
5013.2526282238405,17582.43170721508
5013.278699738279,15074.08730540431
5013.304771388303,13352.834953964744
5013.330843173913,12465.514309595996
5013.35691509511,12703.16140926626
5013.382987151894,14098.03643159849
5013.409059344267,16274.947802362058
5013.435131672228,18626.00715438293
5013.46120413578,20943.562900777375
5013.487276734921,22726.561542157564
5013.513349469653,23938.194050096947
5013.539422339977,24732.784712209785
5013.565495345894,25313.973710914484
5013.5915684874035,25995.95800341733
5013.617641764507,26579.719785459645
5013.643715177206,26934.472989727932
5013.6697887254995,26761.14577303806
5013.695862409389,25886.823547522345
5013.721936228875,24510.218888075673
5013.748010183958,22345.4464248366
5013.77408427464,19673.751094303512
5013.800158500921,16771.153699630806
5013.826232862801,14274.117528807687
5013.852307360281,12228.618766433707
5013.8783819933615,11276.520258076624
5013.904456762045,11205.657353242856
5013.930531666329,12185.133493795993
5013.956606706218,14184.965409386863
5013.982681881709,16903.040503352473
5014.008757192805,19767.928280673317
5014.034832639507,22352.63172060663
5014.060908221814,24710.53231641272
5014.086983939728,26453.905607943154
5014.113059793249,27358.437626740444
5014.139135782378,27983.778502586814
5014.165211907116,28226.50234501786
5014.1912881674625,28350.32431943528
5014.21736456342,28414.9543619872
