wave,flux
4450.003811362098,11292.189036582102
4450.026953690486,9752.28850194652
4450.050096139227,8657.765109224636
4450.073238708321,7772.038579662725
4450.096381397769,6897.60436941315
4450.119524207569,6239.517364372158
4450.142667137726,5629.556081469816
4450.165810188237,4930.898026757654
4450.188953359103,4480.774931110249
4450.212096650326,4482.698096610213
4450.2352400619075,4934.920277319063
4450.258383593846,5962.3665118369645
4450.281527246142,7298.449534617219
4450.304671018797,8913.275171606707
4450.327814911813,10573.549330527061
4450.350958925188,11803.096246759382
4450.374103058924,12254.504188685616
4450.3972473130225,12457.552582544682
4450.420391687483,11960.565718107851
4450.443536182305,11850.154712316955
4450.466680797492,12173.355431646407
4450.489825533042,12960.320064960093
4450.512970388957,13516.289586199757
4450.536115365237,14127.425625219312
4450.559260461882,14173.806672586283
4450.582405678895,13984.317249661484
4450.605551016274,14236.574779374921
4450.628696474022,15205.714271129516
4450.651842052138,16628.60345825335
4450.674987750623,18543.02328084378
4450.698133569476,20450.971036579813
4450.721279508702,21758.151027663083
4450.744425568297,22883.240631523382
4450.767571748264,23420.70622555407
4450.790718048604,23587.023556067175
4450.813864469315,23931.91536094037
4450.837011010401,24108.883836806097
4450.86015767186,24088.21795437477
4450.883304453694,24151.901580299334
4450.906451355903,24075.64095778362
4450.929598378489,23805.604178544912
4450.95274552145,23652.364232085034
4450.975892784789,23614.771048383587
4450.999040168505,23443.357295648337
4451.022187672601,22925.298484283336
4451.045335297074,22565.586171285893
4451.068483041929,22235.439873854873
4451.091630907163,21632.421319466754
4451.114778892777,20737.191884343418
4451.137926998774,19836.224580273698
4451.161075225153,17785.404542055745
4451.184223571914,15786.147652278403
4451.207372039059,13732.661415774146
4451.230520626587,11423.469562574386
4451.253669334501,9604.899276007895
4451.2768181628,8401.58001392893
4451.299967111485,8328.490976136807
4451.323116180556,9177.70035167574
4451.346265370014,10884.838570739954
4451.369414679861,12944.354973419318
4451.392564110095,15378.223149992044
4451.415713660719,17517.562157000735
4451.438863331732,19280.877871194698
4451.462013123136,20694.88312123946
4451.48516303493,21688.828243381016
4451.508313067117,22310.89700139724
4451.531463219695,22447.321222887782
4451.554613492666,22315.3633303845
4451.577763886031,21789.294902272268
4451.60091439979,20915.3909895181
4451.624065033943,19621.621919118534
4451.647215788492,17642.21582369631
4451.670366663436,16052.323822712186
4451.693517658777,15360.531973563671
4451.716668774516,15000.583039668038
4451.739820010652,15329.289686659706
4451.762971367186,16383.776666381293
4451.78612284412,17559.156688146264
4451.8092744414525,18748.21682844441
4451.832426159187,19854.83774596734
4451.855577997321,21009.513761339385
4451.878729955857,22116.35513549209
4451.901882034796,22701.847636879913
4451.925034234137,23367.362720190205
4451.948186553881,23696.255824329317
4451.97133899403,23991.022474701967
4451.994491554583,24209.579525318313
4452.017644235542,24167.31841957035
4452.040797036907,24084.549483556162
4452.063949958678,24083.798507663785
4452.087103000857,23960.05516669931
4452.1102561634425,23936.155185897725
4452.133409446437,23599.119611542934
4452.156562849841,23181.124308122155
4452.179716373655,22589.37847351733
4452.202870017878,21953.3199402314
4452.226023782513,21092.70105599149
4452.24917766756,20045.58272258982
4452.272331673018,19134.31401958355
4452.29548579889,17945.961116282295
4452.318640045174,17369.437770595763
4452.341794411874,16624.238233404823
4452.364948898987,15792.785909758593
4452.388103506516,15073.52817953156
4452.4112582344615,14356.054351150153
4452.434413082823,14156.608127702946
4452.457568051602,14770.069162090282
4452.480723140799,15573.112341590477
4452.503878350413,16884.386994817516
4452.527033680448,18333.284045383978
4452.550189130902,19364.033307270834
4452.5733447017765,20108.402958327028
4452.596500393071,20329.740348133742
4452.619656204789,19970.28854894714
4452.642812136928,18896.105068135694
4452.66596818949,17441.56423417658
4452.689124362475,15962.451898782538
4452.7122806558855,15292.301329484217
4452.735437069719,15755.728417934102
4452.7585936039795,16535.105627907094
4452.781750258665,17997.863167478554
4452.804907033777,19195.782531802037
4452.828063929317,19744.07616497922
4452.851220945285,19859.20100827818
4452.87437808168,19637.93391712503
4452.897535338506,19190.929433702175
4452.92069271576,18482.367490069297
4452.943850213445,17394.97934987112
4452.967007831562,15634.640512075623
4452.99016557011,13990.993269079227
4453.01332342909,12709.811796446758
4453.036481408502,12625.966740939233
4453.059639508349,13475.69534708077
4453.08279772863,15389.012881979272
4453.105956069345,17339.301537193216
4453.129114530496,19422.903418586797
4453.152273112083,20831.263250207914
4453.175431814107,21679.4612484222
4453.198590636567,22028.583630453046
4453.221749579466,22419.78247177206
4453.244908642802,22530.41604120181
4453.268067826579,22435.27674562884
4453.291227130795,22150.605613602078
4453.314386555451,21754.014701431555
4453.337546100549,20488.873591610405
4453.360705766087,19222.663657648092
4453.3838655520685,17712.94842746879
4453.407025458493,16960.63341765206
4453.430185485361,17130.82825228322
4453.453345632673,17985.442147849935
4453.476505900429,19156.252559736597
4453.4996662886315,20371.725086988226
4453.52282679728,21209.44475835485
4453.545987426375,21831.829413228985
4453.569148175917,22426.25614525176
4453.592309045907,22762.633957595357
4453.615470036346,22977.879378473277
4453.638631147233,23026.54714099467
4453.661792378571,23512.058372914566
4453.684953730359,23787.11521870141
4453.708115202598,23565.344160085984
4453.731276795288,23586.211341137663
4453.754438508431,23603.14710948621
4453.777600342027,23509.432610861153
4453.800762296077,23171.301434474706
4453.82392437058,22769.285814834584
4453.847086565538,22551.084830976753
4453.870248880952,22181.09399431697
4453.8934113168225,21647.510167007713
4453.916573873149,20829.63079606104
4453.939736549933,19773.88316655245
4453.962899347174,18221.91422356828
4453.986062264875,16171.63936478595
4454.009225303034,14074.22487105204
4454.032388461654,11792.074291121762
4454.055551740734,9591.43472214487
4454.078715140275,8173.753516588143
4454.101878660277,7604.931844395823
4454.125042300742,8011.669579526668
4454.14820606167,9301.457507712903
4454.171369943061,11108.38673839209
4454.194533944917,12860.51794694686
4454.2176980672375,14256.844189507408
4454.240862310024,15112.875495854203
4454.264026673275,14906.8386972064
4454.287191156994,13926.932692527844
4454.31035576118,12589.609021285842
4454.333520485834,10751.259951887714
4454.356685330957,9231.798426517706
4454.379850296548,7705.945248307571
4454.40301538261,6583.689545806255
4454.426180589142,5705.148575095618
4454.449345916145,4984.807365897592
4454.4725113636205,4568.9342566513515
4454.495676931568,4516.190317716661
4454.5188426199875,5033.689799260681
4454.542008428882,5904.8549916914535
4454.565174358249,7281.464058302318
4454.588340408092,8674.90648638167
4454.611506578411,9998.51261286843
4454.634672869205,10800.24887982093
4454.657839280476,10816.368033833598
4454.681005812225,10298.462566103486
4454.704172464451,9744.020261885193
4454.727339237156,9667.803987810463
4454.750506130341,10349.97496873426
4454.773673144005,11572.176759470982
4454.79684027815,13397.221274341407
4454.820007532776,15310.407959782671
4454.843174907884,16667.514624992513
4454.866342403473,17539.763008407892
4454.889510019546,17647.482065919212
4454.912677756102,16826.73579055871
4454.935845613144,15344.586707172593
4454.959013590669,13533.660929296724
4454.982181688681,11864.77060546497
4455.005349907178,10931.655894883585
4455.028518246162,10868.013699641555
4455.051686705633,11643.452100387673
4455.074855285593,13369.056045337615
4455.098023986041,15620.994883008005
4455.121192806979,17643.894604726782
4455.144361748406,19287.578127619043
4455.167530810323,20608.36580199003
4455.190699992732,21324.170795484246
4455.213869295633,21729.181382518775
4455.237038719026,22048.963943829312
4455.260208262912,21932.9490161227
4455.283377927292,21152.007645848127
4455.306547712166,20063.124057670688
4455.329717617535,18981.086935975934
4455.352887643399,18070.333240853004
4455.37605778976,17513.955388176808
4455.399228056617,16765.392795649932
4455.422398443972,16061.60154823446
4455.445568951825,14965.959131504464
4455.468739580177,13396.601704805522
4455.491910329028,11436.24453121575
4455.515081198378,9529.849367463159
4455.538252188229,7945.29878079012
4455.561423298582,6784.056736253302
4455.584594529436,6282.900228244459
4455.607765880793,6531.172045021702
4455.630937352652,7567.51220066758
4455.654108945016,9210.288311036624
4455.677280657883,11348.433375853969
4455.700452491255,13683.162702624533
4455.723624445134,15865.134311315478
4455.746796519518,17677.4893414375
4455.7699687144095,19103.881697235498
4455.793141029808,19856.75005000753
4455.816313465714,20592.926187656896
4455.83948602213,20891.973751742324
4455.862658699055,21073.436086411097
4455.885831496489,21034.01597744851
4455.909004414434,20828.461370364752
4455.932177452891,20269.649562606395
4455.955350611858,18662.15394713188
4455.978523891339,16883.567868424754
4456.001697291333,14896.484615547182
4456.024870811841,12622.375159469571
4456.048044452862,11451.766568499268
4456.071218214399,11013.502413008815
4456.094392096451,11194.395487982236
4456.117566099019,12164.218241674653
4456.140740222105,13698.40702010383
4456.163914465707,15168.237780772719
4456.187088829828,16263.908438909455
4456.210263314468,16839.53690954236
4456.233437919626,16579.363110018825
4456.256612645306,15270.910343853584
4456.279787491505,13814.14468269307
4456.302962458226,12203.56129858401
4456.326137545469,10952.02302061781
4456.349312753233,10637.799279432515
4456.372488081522,11361.808225034105
4456.395663530333,13071.028620953572
4456.41883909967,15149.985289924472
4456.442014789531,17147.22932678194
4456.465190599917,19044.85931237262
4456.488366530831,20666.129489178198
4456.5115425822705,21563.086047037308
4456.5347187542375,21874.136565965804
4456.557895046733,21626.28335602422
4456.581071459757,21580.374937453515
4456.604247993311,21222.29969765599
4456.627424647395,20885.67465701828
4456.650601422009,20571.339293874647
4456.673778317154,19798.009960725263
4456.696955332832,18783.044410433467
4456.720132469041,17758.29928354367
4456.7433097257845,17036.219990900347
4456.766487103061,17162.854452540803
4456.789664600872,18017.6867740703
4456.8128422192185,19077.64887991329
4456.8360199581,20026.20504114405
4456.859197817518,20831.46854189938
4456.882375797473,21105.957306843415
4456.905553897966,21327.64933490971
4456.928732118997,21457.145977688142
4456.951910460566,21255.15624631649
4456.975088922674,20884.498649398953
4456.998267505323,19932.05365091097
4457.021446208513,18567.95007135922
4457.044625032244,16770.776981236526
4457.067803976516,14668.424999898622
4457.090983041332,12495.93438298754
4457.1141622266905,10521.497744401586
4457.1373415325925,9320.98185383819
4457.160520959039,8687.368858960072
4457.183700506031,8540.606836699613
4457.206880173568,8810.150850171485
4457.230059961651,9602.082159166894
4457.2532398702815,10714.719002429807
4457.27641989946,12395.410500975058
4457.299600049186,14509.036148997971
4457.322780319461,16683.183072981967
4457.345960710286,18719.625151608645
4457.36914122166,20385.03154604351
4457.392321853586,20983.606737130776
4457.415502606062,21214.890793274193
4457.43868347909,21357.093020569784
4457.461864472672,20970.162443527053
4457.485045586805,20702.300454904118
4457.508226821494,20784.13666875063
4457.5314081767365,20966.143065274147
4457.554589652534,21370.857192508298
4457.577771248887,21453.33696296669
4457.600952965797,21129.76674002151
4457.624134803263,20396.63897647075
4457.647316761288,19618.905828674855
4457.67049883987,18695.488833977
4457.693681039011,17493.764056823562
4457.716863358712,15986.01221144079
4457.7400457989725,14083.076551200531
4457.763228359793,12472.343722178031
4457.7864110411765,11344.680652253928
4457.809593843121,11155.092283322996
4457.832776765628,11834.284224238909
4457.855959808699,12628.712627657873
4457.879142972333,12867.065107583609
4457.902326256532,12543.55404961772
4457.925509661296,11995.669095857613
4457.948693186626,11633.103547377548
4457.971876832522,11824.358108758996
4457.995060598985,12931.858882777851
4458.018244486016,14675.318813615704
4458.041428493615,16464.24250946498
4458.0646126217825,18211.543422674586
4458.08779687052,19329.498750344046
4458.110981239827,19553.716257803884
4458.134165729705,19061.452084587087
4458.157350340155,17687.99098221643
4458.180535071177,15994.325293692284
4458.203719922771,14632.441996548765
4458.226904894938,13733.228553219948
4458.2500899876795,13835.57122259991
4458.273275200995,14761.4559318267
4458.296460534886,16333.738121972921
4458.3196459893525,18311.449539621186
4458.342831564396,19824.808409553443
4458.366017260016,20984.41440129562
4458.389203076214,21638.21547005343
4458.4123890129895,22093.785664863874
4458.435575070344,22514.498595350884
4458.458761248279,22591.31132745608
4458.481947546794,22284.354178936002
4458.505133965889,21764.375886721806
4458.528320505566,21195.6183869649
4458.551507165825,20502.476054366027
4458.574693946666,19663.770711765075
4458.597880848091,18639.183516417972
4458.6210678701,17171.84185895386
4458.644255012693,15293.308869453936
4458.6674422758715,13316.525900156581
4458.690629659636,11121.826782686494
4458.713817163986,8875.420645073176
4458.737004788924,7027.925748002027
4458.76019253445,5766.569600986312
4458.783380400563,4829.456561301422
4458.8065683872655,4536.774269920386
4458.829756494558,4644.156989567709
4458.85294472244,5026.065044521516
4458.876133070914,5983.794554114212
4458.899321539979,7426.731316551512
4458.922510129635,8935.540372632184
4458.945698839884,10588.276968745771
4458.968887670727,11600.428488357742
4458.992076622164,11941.851473305256
4459.015265694195,11668.735437472227
4459.0384548868215,11131.411791140043
4459.061644200044,11229.995288818833
4459.084833633862,12208.986814010268
4459.108023188278,13899.506376387442
4459.131212863292,15888.97145734137
4459.154402658904,18059.74277249046
4459.177592575114,19837.666155037557
4459.200782611925,21257.290459714004
4459.223972769336,22000.164509421276
4459.247163047347,22184.478415179186
4459.27035344596,22642.39183827356
4459.293543965176,22812.841723895348
4459.316734604993,22408.581754951658
4459.339925365414,21992.501854915634
4459.363116246439,21176.44215694075
4459.386307248069,19735.092016077746
4459.409498370304,18223.400931033826
4459.432689613145,16950.250071420116
4459.455880976592,16225.18939359492
4459.479072460647,16123.234987671833
4459.502264065309,16959.76976686221
4459.52545579058,18349.02663209718
4459.5486476364595,19826.68854922278
4459.571839602949,20981.413662689767
4459.595031690048,21727.182188787425
4459.618223897759,22292.733338047103
4459.641416226081,22593.325992057045
4459.664608675014,22750.774877348318
4459.687801244561,22587.10874527299
4459.710993934721,22202.977527589017
4459.734186745496,21586.774995671603
4459.757379676885,20853.328425133703
4459.780572728889,19821.549245163154
4459.803765901509,18377.566797341155
4459.8269591947455,16579.724039068235
4459.850152608599,14300.14593728824
4459.87334614307,12020.54937580062
4459.89653979816,10118.944748842188
4459.91973357387,8784.081147553006
4459.942927470198,8291.488879540213
4459.966121487147,8367.192327658931
4459.989315624717,9080.013442878388
4460.0125098829085,10152.205373501134
4460.035704261722,11523.343169190326
4460.058898761158,13217.00889946329
4460.082093381218,15076.675231317398
4460.105288121902,16984.254683537878
4460.12848298321,18785.393157807666
4460.151677965145,20515.879570514964
4460.1748730677045,21667.467522265953
4460.198068290891,22275.900950184223
4460.221263634704,22723.091424001057
4460.244459099145,23115.03785523579
4460.267654684215,23478.643574773603
4460.290850389914,23610.38078965137
4460.314046216243,23781.75407191601
4460.337242163202,23892.207351846875
4460.360438230791,23743.41183581348
4460.383634419013,23535.68541815631
4460.406830727867,23269.18336263018
4460.430027157354,22723.815000294908
4460.453223707474,22093.58077057026
4460.476420378228,21778.79943107555
4460.499617169617,21669.069178600563
4460.522814081641,21495.84761173303
4460.5460111143,21715.48036837134
4460.569208267598,22187.057644328874
4460.592405541532,22172.48181719067
4460.615602936104,21979.878897319933
4460.638800451314,21669.49867862864
4460.661998087163,20856.000475717567
4460.685195843652,19767.606828236763
4460.708393720782,18255.33732727386
4460.731591718552,16192.427011497974
4460.754789836965,13791.916909266029
4460.777988076019,11651.179945801447
4460.801186435716,10005.176604699564
4460.824384916057,9027.952742434227
4460.847583517042,8041.326671995046
4460.870782238671,7477.695319746229
4460.893981080947,7505.813419415726
4460.917180043868,7748.688991575465
4460.940379127435,8405.252801179446
4460.963578331651,9430.739305623805
4460.986777656513,10590.05757518011
4461.009977102025,11612.877599955118
4461.033176668186,11624.898226109546
4461.056376354995,10922.275632523622
4461.079576162457,10034.662709440523
4461.102776090568,9085.803655763006
4461.125976139332,8286.511794546994
4461.149176308748,8066.096714303701
4461.172376598816,8373.395949157471
4461.195577009538,9114.829437165568
4461.218777540915,9480.778340054581
4461.241978192946,9593.532933120707
4461.265178965633,9009.722073622454
4461.2883798589755,7810.077075207915
4461.311580872974,6665.384426118518
4461.3347820076315,5749.821986681719
4461.357983262946,5155.788972369006
4461.381184638919,5151.267110437349
4461.404386135551,5696.826742515434
4461.4275877528435,6996.9809684474785
4461.4507894907965,8666.012869834321
4461.4739913494095,10820.651624969809
4461.497193328685,12605.679258503676
4461.520395428623,14382.25443687415
4461.543597649224,15306.194282966899
4461.566799990488,15890.169891456944
4461.590002452416,15171.601839767209
4461.61320503501,13947.3934065202
4461.636407738269,12051.830936040067
4461.659610562193,10024.30892928988
4461.682813506784,8602.6138021976
4461.706016572044,7958.312175514009
4461.729219757971,8284.427483414365
4461.752423064566,9130.99048438105
4461.775626491831,11082.299983513505
4461.798830039766,12878.611371138646
4461.82203370837,14626.723359638856
4461.845237497647,15939.879723292552
4461.868441407595,16771.80401142859
4461.891645438215,16925.515675063692
4461.914849589509,17035.577685800657
4461.938053861475,17497.431290774908
4461.961258254117,17972.393665091207
4461.984462767433,18454.677915685268
4462.007667401424,18408.10251638746
4462.030872156092,17716.02270148663
4462.0540770314365,16150.891805106316
4462.077282027459,14411.080710686709
4462.100487144158,12772.569373002327
4462.123692381537,11199.41767890116
4462.146897739594,10527.059231181047
4462.170103218332,10688.399897522026
4462.19330881775,12043.959297726182
4462.21651453785,14101.133472213718
4462.239720378631,16408.579512012268
4462.262926340095,18481.954026408806
4462.286132422241,20230.308169000135
4462.309338625071,21182.533198022727
4462.3325449485865,21626.235783546803
4462.355751392785,21499.348313110942
4462.3789579576705,21042.95493068167
4462.402164643242,20777.09079198798
4462.4253714495,20542.05379983044
4462.448578376446,20461.603618912195
4462.471785424079,20586.406856184607
4462.494992592401,20763.126111091093
4462.518199881412,20725.06359142666
4462.541407291114,20503.62622377716
4462.564614821506,20080.375550242497
4462.587822472589,19029.081240707324
4462.611030244365,17152.867696161786
4462.634238136832,15006.55728478489
4462.657446149992,12920.29229471553
