wave,flux
5000.025812696027,17235.998655770538
5000.051815424163,18437.929291768978
5000.0778182875265,20398.33992180685
5000.103821286119,22496.60871358607
5000.12982441994,24603.271873836045
5000.155827688991,26510.640918249723
5000.181831093272,28037.094115104144
5000.207834632784,28848.892224449035
5000.2338383075285,29190.705735124066
5000.259842117506,28781.321960735353
5000.285846062716,27860.64680959696
5000.311850143161,25942.63246750846
5000.33785435884,23793.681635925408
5000.363858709754,21821.719348491377
5000.389863195905,21024.28865520672
5000.415867817292,21174.226157189427
5000.441872573917,21948.902856391207
5000.4678774657805,23168.10817291931
5000.493882492882,24155.18724469741
5000.519887655224,24893.608861575387
5000.545892952806,25407.872131339365
5000.571898385629,25482.515995507347
5000.597903953694,24988.246908241028
5000.623909657001,25121.104624756423
5000.649915495552,25214.989789255073
5000.675921469346,25955.82000530002
5000.701927578384,27259.846934393907
5000.727933822669,28720.386039143777
5000.7539402021985,29771.122941373553
5000.779946716975,30092.16836364253
5000.805953366999,30339.827022370308
5000.831960152272,30412.010557840873
5000.857967072792,30309.125696233637
5000.883974128563,30205.896877590018
5000.9099813195835,29972.771018474854
5000.935988645855,30104.211198629164
5000.961996107378,29978.490550702205
5000.988003704153,29617.709150958468
5001.014011436181,29414.812254772347
5001.040019303464,27967.939662932884
5001.066027306,26333.394125807565
5001.092035443791,24393.369847571637
5001.118043716839,23272.848171835685
5001.1440521251425,22864.82026639599
5001.170060668704,23355.02705036536
5001.196069347523,24519.211294115474
5001.222078161601,25795.026390600622
5001.248087110937,26814.242081185475
5001.274096195534,27323.32484162868
5001.300105415392,27192.64754334771
5001.326114770512,26533.209443403768
5001.352124260892,25386.169491876502
5001.3781338865365,23516.441296115005
5001.4041436474445,21048.85765153098
5001.430153543616,18327.786233198956
5001.456163575053,15537.475584022339
5001.482173741756,13085.343503771974
5001.508184043724,11775.068467983212
5001.534194480961,11563.322528788358
5001.560205053464,12522.165705306523
5001.586215761236,14465.60103081787
5001.612226604278,17157.508616456435
5001.638237582589,20147.61474013042
5001.664248696171,23010.967899533745
5001.690259945024,25545.462843435875
5001.716271329149,27406.662353408028
5001.742282848547,28679.547878209574
5001.768294503218,29832.64329232471
5001.794306293164,30430.873204663552
5001.820318218383,30985.307133514576
5001.84633027888,31430.73093632603
5001.872342474651,31536.854913783867
5001.8983548056995,31722.0810442461
5001.924367272026,31845.57963879633
5001.9503798736305,31631.610485192352
5001.976392610514,31461.090911550495
5002.002405482678,31518.55866157202
5002.028418490122,31356.49044037228
5002.054431632847,31084.87952483423
5002.080444910854,30834.791429975397
5002.106458324142,30567.45800726424
5002.1324718727155,30192.984066900244
5002.158485556572,29736.607629508417
5002.184499375713,29546.614705340184
5002.210513330139,29169.475646594354
5002.236527419852,28615.264829438052
5002.262541644852,28242.563978179216
5002.288556005138,27667.71561430482
5002.314570500714,26694.308924079076
5002.340585131577,25152.39960440456
5002.36659989773,23020.11452138622
5002.392614799174,20296.633685797897
5002.418629835909,18136.485253999257
5002.444645007936,17251.617083958703
5002.4706603152545,17764.82488201185
5002.496675757866,19334.068842897945
5002.522691335772,21693.32862265398
5002.548707048972,24273.65240708632
5002.574722897468,26535.194866018803
5002.600738881259,28569.921828624505
5002.626755000347,30005.159466974404
5002.652771254732,30856.298846292786
5002.678787644415,31364.09791925009
5002.704804169397,31598.191269185052
5002.730820829678,31786.316590971455
5002.75683762526,32044.332629468634
5002.782854556142,32075.131894127495
5002.8088716223265,31918.69118633591
5002.834888823812,31688.39644009184
5002.860906160601,32092.51632167733
5002.886923632695,32115.729027309506
5002.912941240092,31945.059044510403
5002.938958982793,31880.476610738377
5002.9649768608015,31823.712199192298
5002.990994874116,31879.910280596472
5003.017013022737,31745.836094229802
5003.043031306666,31560.942895718243
5003.069049725905,31478.708419486597
5003.095068280452,31038.29163100828
5003.121086970309,30888.025640111427
5003.147105795477,31120.97725174596
5003.173124755956,31192.28128915632
5003.199143851748,31331.812129916343
5003.225163082852,31483.93560689888
5003.251182449269,31313.27951063904
5003.277201951001,30561.24649792056
5003.3032215880485,29825.205809405186
5003.32924136041,28715.22636275848
5003.35526126809,27061.239301735473
5003.381281311085,25888.67771226961
5003.407301489398,25523.823445935166
5003.433321803031,26010.800492732385
5003.459342251982,27067.156188317826
5003.4853628362525,27953.899032813366
5003.511383555844,28933.739867073127
5003.537404410757,29193.261014089498
5003.563425400991,29031.04300660029
5003.589446526548,28332.3174500547
5003.615467787429,27312.96735440748
5003.641489183634,25540.747305346402
5003.667510715163,23993.748454076736
5003.693532382018,23063.368329364494
5003.719554184199,22929.363747479718
5003.745576121707,23798.119717885846
5003.771598194542,25221.31963439765
5003.797620402706,26609.63430918655
5003.823642746199,27632.01504773061
5003.849665225021,28527.175282802153
5003.875687839174,29191.74145227589
5003.901710588658,29201.755242816696
5003.927733473473,29110.424510517547
5003.953756493622,29287.353605071523
5003.979779649103,29009.992622284746
5004.005802939919,28672.283316347464
5004.031826366068,28896.80659717017
5004.057849927553,29299.39931701224
5004.083873624375,30102.496900670085
5004.109897456533,30589.661984221235
5004.135921424028,30979.383646779712
5004.161945526862,31340.600420433835
5004.187969765035,31807.90698037825
5004.213994138547,31935.5343646025
5004.240018647399,32061.98621086295
5004.266043291592,32092.484407996937
5004.292068071127,32051.552053671232
5004.318092986004,32149.83814205695
5004.344118036223,32053.491677927086
5004.370143221788,31946.071295260565
5004.396168542696,31990.585176487835
5004.422193998949,31710.90641358693
5004.448219590549,31494.251676525626
5004.474245317495,30956.82155762529
5004.500271179789,30258.753622773547
5004.52629717743,29993.518705670693
5004.5523233104195,29572.377069980623
5004.578349578759,29313.130547501754
5004.604375982449,29289.38725556469
5004.630402521489,29397.2279615785
5004.656429195881,28873.981905664652
5004.682456005625,27658.494712006195
5004.708482950721,25889.19641566219
5004.734510031172,23581.534329933398
5004.760537246977,20873.056887552884
5004.7865645981365,18547.68439691376
5004.812592084652,17071.48738065986
5004.838619706525,16889.48805488512
5004.8646474637535,18127.783540017408
5004.890675356341,20184.25554598446
5004.916703384286,22908.051447374495
5004.942731547591,25328.3577637297
5004.968759846256,27227.459687931234
5004.994788280281,28575.54822469457
5005.020816849668,29204.696993745212
5005.046845554417,29461.489504594214
5005.072874394528,29618.83279727649
5005.098903370003,29079.642257064323
5005.124932480842,28649.86299327544
5005.150961727047,27855.577278511526
5005.176991108617,26965.213058260295
5005.203020625552,25438.56307641501
5005.229050277856,23602.877912607288
5005.255080065526,21301.762561015963
5005.281109988566,18549.395086063454
5005.3071400469735,15833.581812751225
5005.333170240751,13541.168805488802
5005.3592005699,12210.873785061534
5005.38523103442,12054.874886224861
5005.411261634312,13122.925156581616
5005.4372923695755,15122.53816604482
5005.463323240213,17402.96089514245
5005.489354246225,19616.50386101123
5005.515385387611,21351.87536574979
5005.541416664373,22144.71364831325
5005.567448076511,22691.991140958922
5005.593479624025,22140.536703016933
5005.619511306918,20794.303181582534
5005.645543125189,18670.435952125765
5005.671575078838,16175.298544688476
5005.697607167867,13628.412296008233
5005.723639392277,11514.955268265294
5005.749671752068,10182.015423133005
5005.77570424724,9769.237231148376
5005.8017368777955,10242.165709158538
5005.8277696437335,11597.089601398771
5005.853802545055,13934.946664941455
5005.879835581762,16889.814368857587
5005.905868753854,19811.13007169321
5005.931902061331,22526.303515815503
5005.957935504196,25033.64628019497
5005.983969082448,27200.44803854971
5006.010002796088,28550.156068986664
5006.036036645117,29917.885923731836
5006.062070629536,30540.15058726155
5006.088104749344,30904.721753686914
5006.114139004544,30950.34787398002
5006.140173395135,31441.39362719582
5006.166207921118,31200.943012352705
5006.192242582495,31124.91539611768
5006.218277379266,30993.828375677647
5006.244312311431,30941.197094412862
5006.270347378991,30981.420087708946
5006.296382581946,30872.680124186776
5006.322417920299,30796.465675912554
5006.348453394048,30873.343536771583
5006.374489003196,30814.818647018354
5006.400524747743,30641.594847272223
5006.426560627688,30706.349883612587
5006.452596643034,30726.12621090876
5006.47863279378,30832.4332491777
5006.504669079928,30618.5101893676
5006.530705501478,30078.91123987001
5006.556742058431,30143.306198947135
5006.582778750788,29729.411027746
5006.608815578549,29443.26738043243
5006.634852541715,28966.223727104076
5006.660889640287,28373.66916202505
5006.686926874265,27208.78689410622
5006.71296424365,25697.504546418557
5006.739001748444,23829.83238644081
5006.765039388645,21305.249894906865
5006.791077164256,18438.197960624064
5006.817115075277,15549.590868183986
5006.843153121708,12930.482435928954
5006.869191303552,11072.175886644914
5006.895229620806,10346.722182451047
5006.921268073474,10727.349657154984
5006.947306661555,11962.631444870589
5006.97334538505,14110.219395408862
5006.999384243961,16993.72610409798
5007.025423238286,19998.85126472214
5007.051462368028,22889.626121861904
5007.077501633187,25584.215086676602
5007.103541033764,27359.175640068992
5007.129580569759,28942.897381361134
5007.155620241173,30059.50240637877
5007.181660048007,30893.67134890243
5007.207699990262,31188.49668232035
5007.233740067937,31359.835615370648
5007.259780281035,31115.83733714845
5007.285820629555,30671.0410843046
5007.311861113499,29565.999562546644
5007.337901732866,28602.638511810415
5007.363942487658,27909.860760732634
5007.389983377876,27522.881736046136
5007.41602440352,27961.078451384896
5007.442065564591,28899.98841278428
5007.468106861089,29853.622695372236
5007.494148293015,30670.770053667333
5007.520189860371,31445.425610280112
5007.546231563156,32123.86738374042
5007.572273401372,32584.6240613224
5007.598315375018,32685.460750840637
5007.624357484096,32740.11102403588
5007.650399728607,32673.832965540696
5007.676442108551,32609.150147083856
5007.702484623929,32689.066691823366
5007.728527274741,32444.52985839021
5007.754570060989,32473.12960252301
5007.780612982673,32844.26237180945
5007.806656039793,32973.84721236213
5007.832699232351,32829.806463496294
5007.858742560347,32914.20786497278
5007.884786023782,32951.34838050496
5007.910829622656,32954.79365207544
5007.936873356971,33336.92945506617
5007.962917226726,33340.38374875639
5007.988961231923,33005.547385844635
5008.015005372563,33085.15947179255
5008.041049648646,33127.53057461338
5008.067094060171,33125.51036066145
5008.0931386071425,33206.49299124368
5008.119183289558,33033.63738159319
5008.14522810742,32961.85852490709
5008.171273060728,32635.38399354798
5008.197318149483,32396.753169900305
5008.223363373687,31769.134042442092
5008.249408733339,31100.10952274615
5008.27545422844,30428.111078035792
5008.301499858992,30345.904427551854
5008.327545624995,30396.90574743394
5008.353591526448,30942.844552166047
5008.379637563355,31432.226860097016
5008.405683735714,32112.010037136843
5008.431730043527,32522.50974959755
5008.457776486794,32794.997237839634
5008.483823065515,32866.58639823618
5008.509869779693,32911.6628486239
5008.535916629327,32962.40531911412
5008.561963614418,32886.8941716112
5008.588010734968,32760.171820816468
5008.614057990975,32677.108535461768
5008.640105382442,32571.50734548892
5008.666152909369,32545.211851669355
5008.692200571756,32837.29394399426
5008.718248369605,32823.351279168295
5008.744296302916,32986.380495598285
5008.77034437169,32964.09654179608
5008.796392575927,33022.27725003823
5008.822440915628,33138.95990167976
5008.848489390794,33023.40040704224
5008.874538001426,32889.00228934224
5008.900586747524,33129.054718045925
5008.926635629089,33120.344606954335
5008.952684646122,33003.42102470079
5008.978733798623,33040.18172574693
5009.004783086593,32842.60757754346
5009.030832510033,32710.748028844024
5009.056882068944,32310.757955744713
5009.082931763326,32151.058464025915
5009.108981593179,32053.421502474674
5009.135031558506,31961.456350272212
5009.161081659306,31915.72535275549
5009.187131895579,31718.11121412292
5009.213182267327,31221.599766781048
5009.239232774552,30384.042527137233
5009.265283417251,29671.622007217793
5009.291334195428,29223.427129903874
5009.317385109083,29132.898144720082
5009.343436158216,29529.54392580223
5009.369487342828,29938.246956058763
5009.395538662919,30643.33932089766
5009.421590118491,30888.417657710677
5009.447641709544,31279.352841431668
5009.473693436078,31602.95283328168
5009.499745298095,31269.744543623812
5009.525797295596,31169.8727033679
5009.55184942858,30663.657790413006
5009.577901697049,29906.468495066616
5009.603954101003,28644.846068654133
5009.630006640443,26959.997178275116
5009.65605931537,25348.672146586192
5009.682112125784,24210.102967950854
5009.708165071686,23778.23904617524
5009.7342181530785,23474.633943842367
5009.760271369959,22846.847792341614
5009.78632472233,21631.430160784956
5009.812378210192,20102.72227544379
5009.838431833546,18686.347810698644
5009.864485592391,17858.621466359924
5009.890539486731,18262.286554842733
5009.916593516564,19788.60804904376
5009.942647681891,21950.582206507996
5009.968701982713,24157.43409376282
5009.994756419032,26376.04470129884
5010.020810990847,28444.22930632595
5010.046865698159,29787.23094529937
5010.072920540969,31047.118131665153
5010.098975519279,31774.728080177185
5010.125030633087,32077.688575918066
5010.151085882395,32339.026186820654
5010.177141267204,32709.52220027138
5010.2031967875155,33006.93648714605
5010.229252443328,32910.97727848268
5010.255308234644,32983.145423658236
5010.281364161464,32828.87034811857
5010.307420223788,32699.71753341823
5010.333476421617,32601.832900192654
5010.359532754951,32583.40359995813
5010.3855892237925,32310.460730990144
5010.4116458281405,31866.6388161343
5010.437702567997,31202.90605663002
5010.463759443362,30137.27678136162
5010.489816454236,28700.886996900397
5010.51587360062,27008.32679565911
5010.541930882514,25083.51966486681
5010.56798829992,23360.29348103827
5010.5940458528385,22678.05141038398
5010.62010354127,23095.8723451645
5010.646161365214,24509.011940430384
5010.672219324672,26539.079715101223
5010.698277419646,28385.71829685729
5010.724335650135,29978.51752084636
5010.7503940161405,31356.819144717727
5010.7764525176635,31972.875436726317
5010.802511154703,32454.88542219867
5010.828569927262,32526.01542561293
5010.85462883534,32478.10618062798
5010.880687878937,32672.75609547495
5010.906747058056,32656.29276546759
5010.932806372695,32744.064838426664
5010.958865822856,33118.79530709691
5010.98492540854,33019.145293241345
5011.0109851297475,32879.03450651473
5011.0370449864795,33035.65981882152
5011.063104978735,33095.74716376896
5011.089165106517,33142.457190027664
5011.115225369825,33033.66559272494
5011.14128576866,32808.363553943935
5011.167346303022,32813.89136437431
5011.193406972913,32507.892112860096
5011.219467778333,32193.864626464478
5011.2455287192815,31816.640592947355
5011.271589795761,30697.01680821696
5011.297651007772,29819.794448157656
5011.323712355315,29040.05805724819
5011.34977383839,27866.893899003404
5011.375835456999,27064.803560427958
5011.401897211142,26476.763428443042
5011.427959100819,25975.756186547165
5011.454021126031,26184.11678929742
5011.4800832867795,26187.088940279413
5011.506145583065,25641.12466157617
5011.532208014888,24699.692643978215
5011.558270582248,23276.25020393428
5011.584333285148,21021.235366980945
5011.610396123588,18321.5414236225
5011.636459097567,15470.420733849814
5011.662522207088,12889.82440937587
5011.68858545215,10914.666050984737
5011.714648832754,9480.730557853038
5011.740712348902,8999.925903396905
5011.766776000594,9355.307214142105
5011.79283978783,10501.056352582973
5011.818903710611,12513.634559788492
5011.844967768939,15238.779659140371
5011.871031962813,18209.68685523744
5011.897096292234,20932.42794171531
5011.923160757203,23151.208137513106
5011.949225357721,24808.07757264099
5011.975290093788,25523.35717775111
5012.001354965406,25002.485688853012
5012.027419972574,23584.281209302822
5012.053485115294,21823.410817797394
5012.079550393566,20485.03373828339
5012.105615807392,20117.750696246505
5012.13168135677,20777.199962296632
5012.157747041703,22476.94421356273
5012.183812862192,24518.99766763626
5012.209878818236,26170.077351135835
5012.235944909837,27166.84422720224
5012.262011136994,27261.806780981526
5012.28807749971,26937.791635225047
5012.3141439979845,26055.51261880105
5012.340210631818,25350.465653096046
5012.366277401212,25327.399474922284
5012.392344306166,26143.029155381046
5012.418411346682,27432.490926338574
5012.44447852276,28752.82385486496
5012.470545834401,29885.265285616686
5012.496613281605,30791.568067628905
5012.522680864374,31509.461567700455
5012.548748582707,31833.957695652203
5012.574816436606,32130.927616037647
5012.600884426071,32228.775502992077
5012.626952551104,32122.863616392053
5012.653020811705,32092.21550738397
5012.679089207873,32169.505442384347
5012.705157739611,32091.880779413284
5012.73122640692,31860.000614299
5012.757295209798,31573.986856306496
5012.7833641482475,31136.791229567643
5012.80943322227,30463.18742241244
5012.835502431864,29123.85010118754
5012.861571777033,27066.303114541435
5012.887641257775,24840.02541450076
5012.9137108740915,22500.190636953717
5012.939780625984,20572.007848912246
5012.965850513452,19639.365728885034
5012.991920536498,19849.670091059303
5013.017990695121,21201.4774343629
5013.044060989323,22766.572966524804
5013.070131419104,24592.417068619558
5013.096201984464,25878.65734192072
5013.122272685405,26434.094607408297
5013.148343521927,26403.836610220136
5013.17441449403,25731.929897171045
5013.200485601717,24390.03743930193
5013.226556844987,22177.472052469504
5013.2526282238405,19443.275871669317
5013.278699738279,16707.75558689169
5013.304771388303,14484.104630501182
5013.330843173913,13236.91298481913
5013.35691509511,12982.949858281952
5013.382987151894,14056.745512219888
5013.409059344267,15928.76902219612
5013.435131672228,18520.867066825504
5013.46120413578,21043.22822812426
5013.487276734921,23154.162724669863
5013.513349469653,24811.158560779582
5013.539422339977,25955.708245750757
5013.565495345894,26612.945664575767
5013.5915684874035,27052.47248950015
5013.617641764507,27600.710577213235
5013.643715177206,28189.607414733757
5013.6697887254995,28338.62017977825
5013.695862409389,27751.60809502963
5013.721936228875,26537.306811203376
5013.748010183958,24553.491622482736
5013.77408427464,21680.081819681644
5013.800158500921,18508.487029190488
5013.826232862801,15677.959519072987
5013.852307360281,13456.265566078553
5013.8783819933615,12005.254242894707
5013.904456762045,11415.790661642373
5013.930531666329,12108.805064072309
5013.956606706218,13747.901657640155
5013.982681881709,16299.77463782228
5014.008757192805,19460.080579627207
5014.034832639507,22331.366092831435
5014.060908221814,25066.00678026274
5014.086983939728,27054.538361770978
5014.113059793249,28682.778782478003
5014.139135782378,29365.532906185275
5014.165211907116,29907.872808427877
5014.1912881674625,29791.030441806703
5014.21736456342,29758.129150740257
