wave,flux
4450.003811362098,8818.306859129641
4450.026953690486,7552.194175722819
4450.050096139227,6522.3709646165635
4450.073238708321,5790.554325083898
4450.096381397769,5334.220654347544
4450.119524207569,4830.504804838198
4450.142667137726,4165.640113203757
4450.165810188237,3694.7759517209633
4450.188953359103,3363.0178533283774
4450.212096650326,3122.0093318189415
4450.2352400619075,3224.6689440002997
4450.258383593846,3697.3385881128083
4450.281527246142,4525.603988014464
4450.304671018797,5618.275640782436
4450.327814911813,6840.066510384988
4450.350958925188,7968.22221857662
4450.374103058924,8595.73729814824
4450.3972473130225,8937.188081536775
4450.420391687483,8846.54370345299
4450.443536182305,8651.663499495078
4450.466680797492,8497.625790065948
4450.489825533042,8586.01872418332
4450.512970388957,9304.791745396142
4450.536115365237,9691.667569402862
4450.559260461882,10081.807633597327
4450.582405678895,9938.151679197736
4450.605551016274,9828.109361914216
4450.628696474022,10218.271361362808
4450.651842052138,11083.621081069025
4450.674987750623,12343.47270177713
4450.698133569476,13601.777115242083
4450.721279508702,14782.457290285423
4450.744425568297,15729.093471015425
4450.767571748264,16320.940660022514
4450.790718048604,16791.22541188207
4450.813864469315,16999.412875181937
4450.837011010401,17153.554142182587
4450.86015767186,17298.67123333851
4450.883304453694,17365.155104565005
4450.906451355903,17285.13975885186
4450.929598378489,17112.0724759733
4450.95274552145,17151.58721504827
4450.975892784789,17184.1068452543
4450.999040168505,16955.856741356667
4451.022187672601,16605.82138501201
4451.045335297074,16347.902894725703
4451.068483041929,15879.529617723194
4451.091630907163,15524.457340098174
4451.114778892777,15254.634310217256
4451.137926998774,14577.120881066701
4451.161075225153,13511.349975271087
4451.184223571914,12140.8043891285
4451.207372039059,10664.782815893625
4451.230520626587,9047.58235786881
4451.253669334501,7622.38696589898
4451.2768181628,6483.144943522832
4451.299967111485,5965.227034839581
4451.323116180556,6088.982523467622
4451.346265370014,6810.360019868721
4451.369414679861,8234.29008895735
4451.392564110095,9743.529137146177
4451.415713660719,11437.241976310885
4451.438863331732,13120.199339814046
4451.462013123136,14137.11062386439
4451.48516303493,14943.16367604429
4451.508313067117,15666.826391771663
4451.531463219695,16078.860250479931
4451.554613492666,16115.504092050387
4451.577763886031,15881.205052358038
4451.60091439979,15354.497734321412
4451.624065033943,14523.702065132671
4451.647215788492,13508.500345555854
4451.670366663436,12267.162145868328
4451.693517658777,11081.887648408137
4451.716668774516,10568.999932603085
4451.739820010652,10715.331184727362
4451.762971367186,11107.196189538525
4451.78612284412,11829.961323019226
4451.8092744414525,12739.409252731804
4451.832426159187,13608.729797656657
4451.855577997321,14544.511635767074
4451.878729955857,15198.546398054305
4451.901882034796,15870.849571637804
4451.925034234137,16482.743753413957
4451.948186553881,16621.963180827093
4451.97133899403,17018.825050969503
4451.994491554583,17229.1048632155
4452.017644235542,17418.107106591106
4452.040797036907,17479.95272359604
4452.063949958678,17363.397226982972
4452.087103000857,17367.208295023323
4452.1102561634425,17092.21279599419
4452.133409446437,16925.196935413347
4452.156562849841,16720.792050655302
4452.179716373655,16406.491163489667
4452.202870017878,16059.229007146469
4452.226023782513,15539.769406391872
4452.24917766756,14736.655597018536
4452.272331673018,13878.116786564015
4452.29548579889,13248.431638897942
4452.318640045174,12576.57738389616
4452.341794411874,11888.853416493197
4452.364948898987,11514.904560940853
4452.388103506516,11030.717000024091
4452.4112582344615,10587.017195262877
4452.434413082823,10163.234449390886
4452.457568051602,10069.93396744784
4452.480723140799,10559.720284047837
4452.503878350413,11380.293009052828
4452.527033680448,12338.368296135703
4452.550189130902,13434.658819648159
4452.5733447017765,14126.95750693434
4452.596500393071,14487.934141247331
4452.619656204789,14460.72923466533
4452.642812136928,13834.78159885889
4452.66596818949,12965.42328225457
4452.689124362475,12011.996861467669
4452.7122806558855,11126.04723967267
4452.735437069719,10834.905856942787
4452.7585936039795,11281.69617337238
4452.781750258665,12208.012867936348
4452.804907033777,13184.902134654783
4452.828063929317,13755.53109955678
4452.851220945285,14067.947241804512
4452.87437808168,14076.886228734182
4452.897535338506,13858.167844805668
4452.92069271576,13509.127607157277
4452.943850213445,12751.067552615725
4452.967007831562,11863.433968463492
4452.99016557011,10669.210489414125
4453.01332342909,9434.107725855149
4453.036481408502,8898.195224794455
4453.059639508349,8972.984753239738
4453.08279772863,10031.132123120187
4453.105956069345,11299.256869596744
4453.129114530496,12897.171028267881
4453.152273112083,14122.981044880598
4453.175431814107,15187.232914754853
4453.198590636567,15782.2931273032
4453.221749579466,15788.79232227575
4453.244908642802,15931.011615853255
4453.268067826579,16028.065591852333
4453.291227130795,15913.14829895145
4453.314386555451,15736.881027367495
4453.337546100549,15168.391722278273
4453.360705766087,14362.798758377265
4453.3838655520685,13342.238954484294
4453.407025458493,12384.178130490927
4453.430185485361,12068.530619449624
4453.453345632673,12289.119965152795
4453.476505900429,13106.078986838214
4453.4996662886315,13918.256722631053
4453.52282679728,14787.057382488867
4453.545987426375,15371.624268292284
4453.569148175917,15756.566528563568
4453.592309045907,16183.600272040634
4453.615470036346,16457.277886947053
4453.638631147233,16505.744285519766
4453.661792378571,16727.14906195167
4453.684953730359,16849.637626276744
4453.708115202598,16861.458169253692
4453.731276795288,16977.523831118582
4453.754438508431,16949.061422733288
4453.777600342027,16795.217973780083
4453.800762296077,16710.464390220917
4453.82392437058,16532.727444673248
4453.847086565538,16305.418710803111
4453.870248880952,15989.196649039075
4453.8934113168225,15523.777547916248
4453.916573873149,15075.683646640173
4453.939736549933,14533.761185801104
4453.962899347174,13751.957525359949
4453.986062264875,12448.24669196848
4454.009225303034,10944.43340654436
4454.032388461654,9386.55910919167
4454.055551740734,7730.509726887003
4454.078715140275,6293.7505654990755
4454.101878660277,5415.271244934354
4454.125042300742,5353.679490505236
4454.14820606167,6003.330112647062
4454.171369943061,7178.678757600093
4454.194533944917,8378.901943788065
4454.2176980672375,9680.073830702426
4454.240862310024,10470.396352961105
4454.264026673275,10826.613993348932
4454.287191156994,10469.869733833075
4454.31035576118,9606.120050752785
4454.333520485834,8497.05511572398
4454.356685330957,7224.589605393666
4454.379850296548,6248.250063763846
4454.40301538261,5188.503833699661
4454.426180589142,4396.1987633283525
4454.449345916145,3797.903798411085
4454.4725113636205,3321.250875966757
4454.495676931568,3081.7102303822426
4454.5188426199875,3174.9990985227655
4454.542008428882,3695.608993398566
4454.565174358249,4467.469711129151
4454.588340408092,5459.957172954252
4454.611506578411,6576.361399513923
4454.634672869205,7375.142641424369
4454.657839280476,7674.607840367936
4454.681005812225,7494.868124425078
4454.704172464451,7124.479302657342
4454.727339237156,6842.526270098327
4454.750506130341,6970.320385510529
4454.773673144005,7561.375322465889
4454.79684027815,8583.041799691722
4454.820007532776,10020.209568230222
4454.843174907884,11271.32436740499
4454.866342403473,12197.49216273065
4454.889510019546,12550.843267260187
4454.912677756102,12354.21114331929
4454.935845613144,11737.97973440981
4454.959013590669,10623.66253211127
4454.982181688681,9276.728464258267
4455.005349907178,8123.677526004462
4455.028518246162,7477.855685385953
4455.051686705633,7588.248230743349
4455.074855285593,8563.675697126604
4455.098023986041,10070.259775979519
4455.121192806979,11640.766797778764
4455.144361748406,13077.392482564172
4455.167530810323,14111.927879016303
4455.190699992732,14773.724800435575
4455.213869295633,15495.966679867555
4455.237038719026,15817.406837916373
4455.260208262912,15657.351825900434
4455.283377927292,15392.13376978115
4455.306547712166,14813.63952686361
4455.329717617535,14087.160144328343
4455.352887643399,13296.498675554853
4455.37605778976,12563.827814405247
4455.399228056617,12097.750679948806
4455.422398443972,11749.216866534016
4455.445568951825,11193.190417898531
4455.468739580177,10224.360255836837
4455.491910329028,8987.749283103525
4455.515081198378,7568.777310268677
4455.538252188229,6292.623221252513
4455.561423298582,5265.454211087618
4455.584594529436,4558.229879004063
4455.607765880793,4333.56027381546
4455.630937352652,4736.362170570996
4455.654108945016,5626.483304431679
4455.677280657883,6996.855414081126
4455.700452491255,8725.098236701222
4455.723624445134,10457.51706101104
4455.746796519518,11916.962425608208
4455.7699687144095,13023.671804301666
4455.793141029808,13950.63996421229
4455.816313465714,14524.68212199824
4455.83948602213,14821.486076411264
4455.862658699055,14866.167550569317
4455.885831496489,14941.898651775322
4455.909004414434,15037.208464678233
4455.932177452891,14689.550693043526
4455.955350611858,14026.561925099079
4455.978523891339,12764.791829810772
4456.001697291333,11303.087785131713
4456.024870811841,9793.890933433499
4456.048044452862,8465.454586517273
4456.071218214399,7887.749766149659
4456.094392096451,7691.116783778973
4456.117566099019,8040.478542810451
4456.140740222105,8910.387105271027
4456.163914465707,10044.706791452285
4456.187088829828,11045.419994227273
4456.210263314468,11760.477321033173
4456.233437919626,12010.47991010669
4456.256612645306,11604.155672025812
4456.279787491505,10613.959579630226
4456.302962458226,9205.924571263591
4456.326137545469,8245.34441886507
4456.349312753233,7542.712714534981
4456.372488081522,7583.033980953781
4456.395663530333,8361.228862149916
4456.41883909967,9799.544465067216
4456.442014789531,11309.969712641263
4456.465190599917,13073.09063713222
4456.488366530831,14119.738756283448
4456.5115425822705,15013.083466430211
4456.5347187542375,15660.754497465192
4456.557895046733,15877.78865150586
4456.581071459757,15427.513932220772
4456.604247993311,15318.417098582819
4456.627424647395,15163.210680022208
4456.650601422009,15092.483869964704
4456.673778317154,14398.691305648492
4456.696955332832,13770.639084664737
4456.720132469041,13010.010918108066
4456.7433097257845,12390.60338952371
4456.766487103061,12000.243073960959
4456.789664600872,12380.796566368774
4456.8128422192185,12917.489933895047
4456.8360199581,13866.612976247654
4456.859197817518,14615.851344894947
4456.882375797473,15039.87017532558
4456.905553897966,15242.270082401516
4456.928732118997,15309.84982676508
4456.951910460566,15303.27694788318
4456.975088922674,15202.404376296121
4456.998267505323,14664.075923076936
4457.021446208513,13926.566990572926
4457.044625032244,12786.951325267835
4457.067803976516,11416.574927123895
4457.090983041332,9784.227981580027
4457.1141622266905,8178.013584812948
4457.1373415325925,6958.887161744365
4457.160520959039,6270.390940486372
4457.183700506031,5953.532288451611
4457.206880173568,6136.68481250415
4457.230059961651,6488.746760829205
4457.2532398702815,6918.985595621638
4457.27641989946,7985.808631549925
4457.299600049186,9352.216841673699
4457.322780319461,10912.859069223541
4457.345960710286,12435.689740677104
4457.36914122166,13783.729818120384
4457.392321853586,14867.182170945942
4457.415502606062,15217.714447457509
4457.43868347909,15278.548181317708
4457.461864472672,15180.886647128926
4457.485045586805,14991.849243514187
4457.508226821494,14783.177185732964
4457.5314081767365,14830.532855173673
4457.554589652534,15158.118904712619
4457.577771248887,15273.356755361996
4457.600952965797,15217.141804723693
4457.624134803263,14940.178578853913
4457.647316761288,14390.566707488571
4457.67049883987,13825.235795482677
4457.693681039011,13098.402848345791
4457.716863358712,11984.485648344515
4457.7400457989725,10735.563456357477
4457.763228359793,9508.788127690857
4457.7864110411765,8460.746106382892
4457.809593843121,7894.883949180661
4457.832776765628,7880.665821405987
4457.855959808699,8359.251130794357
4457.879142972333,8853.7222116221
4457.902326256532,8948.032033491218
4457.925509661296,8785.617472341866
4457.948693186626,8305.592565374043
4457.971876832522,8006.573948884578
4457.995060598985,8577.094628288807
4458.018244486016,9504.008534086195
4458.041428493615,10816.793155932068
4458.0646126217825,12341.324728325792
4458.08779687052,13256.2289020342
4458.110981239827,13778.659486899087
4458.134165729705,13846.237835137706
4458.157350340155,13245.969736156343
4458.180535071177,12171.568595546254
4458.203719922771,10977.247686919285
4458.226904894938,10034.04391743953
4458.2500899876795,9565.169334471735
4458.273275200995,9947.984573619742
4458.296460534886,10828.618358753936
4458.3196459893525,12138.898216916661
4458.342831564396,13564.728704981339
4458.366017260016,14431.078432609
4458.389203076214,15353.484538554836
4458.4123890129895,15909.789846968053
4458.435575070344,16020.526802916556
4458.458761248279,16226.64541582973
4458.481947546794,16031.506499069303
4458.505133965889,15675.136424395025
4458.528320505566,15390.015332474317
4458.551507165825,14996.658470744967
4458.574693946666,14406.320940572889
4458.597880848091,13663.94378362162
4458.6210678701,12852.135566027293
4458.644255012693,11742.348086956132
4458.6674422758715,10435.781377818701
4458.690629659636,8815.760287954898
4458.713817163986,7208.950141882688
4458.737004788924,5738.037961660163
4458.76019253445,4562.815487617623
4458.783380400563,3793.7130373818522
4458.8065683872655,3357.3975002409497
4458.829756494558,3124.588414970045
4458.85294472244,3265.192559380373
4458.876133070914,3844.2604922427586
4458.899321539979,4589.9106661682845
4458.922510129635,5564.089761314252
4458.945698839884,6700.251532119301
4458.968887670727,7796.792881921917
4458.992076622164,8338.941363073056
4459.015265694195,8450.284322425197
4459.0384548868215,8255.722830891656
4459.061644200044,7967.42048507659
4459.084833633862,8118.5414373007525
4459.108023188278,8835.635806531423
4459.131212863292,10334.912616380909
4459.154402658904,11930.518421965047
4459.177592575114,13284.03324081462
4459.200782611925,14589.86446127805
4459.223972769336,15425.432836152322
4459.247163047347,15675.573018115285
4459.27035344596,15980.443538617988
4459.293543965176,16298.476091799788
4459.316734604993,16247.419136533195
4459.339925365414,15930.733301771064
4459.363116246439,15507.884988325806
4459.386307248069,14642.774476254941
4459.409498370304,13492.700053079374
4459.432689613145,12591.280492143014
4459.455880976592,11774.992067628898
4459.479072460647,11352.424126494536
4459.502264065309,11567.293541247902
4459.52545579058,12316.869178557203
4459.5486476364595,13462.398202678347
4459.571839602949,14432.984099294625
4459.595031690048,15167.823311023647
4459.618223897759,15665.039259207924
4459.641416226081,16056.290597231045
4459.664608675014,16203.435420966001
4459.687801244561,16063.820308787053
4459.710993934721,15963.339602346889
4459.734186745496,15805.937855029797
4459.757379676885,15259.203926903705
4459.780572728889,14653.123238833561
4459.803765901509,13907.466258514849
4459.8269591947455,12742.870004493987
4459.850152608599,11282.167148092525
4459.87334614307,9709.906422419446
4459.89653979816,8124.974788525154
4459.91973357387,6751.011853198238
4459.942927470198,5865.489963134555
4459.966121487147,5693.526730259568
4459.989315624717,6118.905372591286
4460.0125098829085,6686.361698959692
4460.035704261722,7497.677706727739
4460.058898761158,8589.725392385875
4460.082093381218,9788.574140954574
4460.105288121902,11157.113385854243
4460.12848298321,12500.468203747165
4460.151677965145,13795.222064776674
4460.1748730677045,14993.602093873884
4460.198068290891,15741.02028346645
4460.221263634704,16219.87308838433
4460.244459099145,16503.74517573593
4460.267654684215,16704.950049359242
4460.290850389914,16892.510212003912
4460.314046216243,16910.148760735276
4460.337242163202,17032.7596087696
4460.360438230791,16922.058146360523
4460.383634419013,16960.065179315687
4460.406830727867,16883.299888645215
4460.430027157354,16588.85964721183
4460.453223707474,16230.428478106469
4460.476420378228,15700.173349545257
4460.499617169617,15436.025106144683
4460.522814081641,15486.322501132863
4460.5460111143,15656.320547452637
4460.569208267598,15702.903362888803
4460.592405541532,15826.447821578206
4460.615602936104,15929.02771987642
4460.638800451314,15824.92538092331
4460.661998087163,15350.492157940185
4460.685195843652,14545.643075842763
4460.708393720782,13657.494250085803
4460.731591718552,12298.233491423369
4460.754789836965,10874.428978905351
4460.777988076019,9359.490925830818
4460.801186435716,7837.36451595926
4460.824384916057,6655.97901638749
4460.847583517042,5974.890726624662
4460.870782238671,5545.914436358707
4460.893981080947,5331.028455637998
4460.917180043868,5262.244656264768
4460.940379127435,5564.75172595349
4460.963578331651,6200.203222320944
4460.986777656513,7059.511071274692
4461.009977102025,7777.303570998336
4461.033176668186,8205.544009716372
4461.056376354995,8143.716882112367
4461.079576162457,7575.171716585886
4461.102776090568,6871.004452639693
4461.125976139332,6248.674797530606
4461.149176308748,5731.9181560221905
4461.172376598816,5777.791906230535
4461.195577009538,6207.597007727519
4461.218777540915,6648.099053548097
4461.241978192946,6789.569151445235
4461.265178965633,6648.9427828629805
4461.2883798589755,5988.9145579833175
4461.311580872974,5202.8251485126475
4461.3347820076315,4511.209478517061
4461.357983262946,3853.8209961717234
4461.381184638919,3567.242007868679
4461.404386135551,3820.5232835007014
4461.4275877528435,4295.580995372682
4461.4507894907965,5363.418409675809
4461.4739913494095,6680.658128768575
4461.497193328685,8036.9328949918645
4461.520395428623,9495.616865979122
4461.543597649224,10726.819136159573
4461.566799990488,11294.358446127608
4461.590002452416,11057.675104172917
4461.61320503501,10545.944298105194
4461.636407738269,9443.311537214939
4461.659610562193,7930.921472552603
4461.682813506784,6712.717784572735
4461.706016572044,5778.983023306458
4461.729219757971,5601.959752926197
4461.752423064566,6008.735168015783
4461.775626491831,7029.82944772775
4461.798830039766,8248.531304693819
4461.82203370837,9795.352879734646
4461.845237497647,10807.922460613583
4461.868441407595,11750.550710696467
4461.891645438215,11897.984463641262
4461.914849589509,11958.182447740184
4461.938053861475,12372.131064866146
4461.961258254117,12633.844698708768
4461.984462767433,12919.213641783937
4462.007667401424,13353.21118559722
4462.030872156092,13118.998682600499
4462.0540770314365,12144.91667932122
4462.077282027459,11054.665792574671
4462.100487144158,9776.703187155355
4462.123692381537,8555.292911739496
4462.146897739594,7602.201734749999
4462.170103218332,7304.813577706954
4462.19330881775,7841.450499971532
4462.21651453785,8955.602151338942
4462.239720378631,10652.43601564549
4462.262926340095,12289.373361872962
4462.286132422241,13750.551169262742
4462.309338625071,14767.972441947266
4462.3325449485865,15317.127076140054
4462.355751392785,15582.531792742186
4462.3789579576705,15324.365056734647
4462.402164643242,14918.599996077815
4462.4253714495,14726.453387153264
4462.448578376446,14551.765751234536
4462.471785424079,14643.31447586514
4462.494992592401,14859.090289744332
4462.518199881412,14850.629241290206
4462.541407291114,14878.851619644454
4462.564614821506,14506.82097844347
4462.587822472589,13881.92149520208
4462.611030244365,12884.227244310463
4462.634238136832,11537.609068175623
4462.657446149992,10048.29087318311
