wave,flux
5000.025812696027,14433.15618145411
5000.051815424163,13311.536725395872
5000.0778182875265,12274.024982053228
5000.103821286119,11441.33478297821
5000.12982441994,10799.285866857697
5000.155827688991,10513.302178394828
5000.181831093272,10824.644370016225
5000.207834632784,11988.192025999035
5000.2338383075285,13247.7758219642
5000.259842117506,14891.002504693122
5000.285846062716,16105.79567187733
5000.311850143161,17343.562794997262
5000.33785435884,18099.800511866662
5000.363858709754,18340.39219538914
5000.389863195905,18270.241194455484
5000.415867817292,17839.83456777747
5000.441872573917,16997.36486194062
5000.4678774657805,15935.004812586398
5000.493882492882,14999.165482033055
5000.519887655224,14144.942838693676
5000.545892952806,13731.922843993672
5000.571898385629,13908.88552669366
5000.597903953694,14464.103015525397
5000.623909657001,15099.356894629887
5000.649915495552,15715.839296841259
5000.675921469346,16033.84160379401
5000.701927578384,16156.930975188983
5000.727933822669,15982.513918242967
5000.7539402021985,15771.891087531343
5000.779946716975,15732.614937545695
5000.805953366999,16086.121700491456
5000.831960152272,16830.282071694077
5000.857967072792,17664.83848386836
5000.883974128563,18504.246331306073
5000.9099813195835,19160.060165336057
5000.935988645855,19413.84995760335
5000.961996107378,19554.167445657557
5000.988003704153,19572.344412295126
5001.014011436181,19460.058725313553
5001.040019303464,19350.47570381431
5001.066027306,19315.329558645768
5001.092035443791,19305.384512734774
5001.118043716839,19157.00924390542
5001.1440521251425,18844.174754529537
5001.170060668704,18480.684256276487
5001.196069347523,17777.23940562515
5001.222078161601,16937.482028834613
5001.248087110937,16259.97854210081
5001.274096195534,15712.59396295863
5001.300105415392,15602.333585825356
5001.326114770512,15856.309845705027
5001.352124260892,16411.328986237884
5001.3781338865365,17006.18159377885
5001.4041436474445,17223.200560302805
5001.430153543616,16993.775626072376
5001.456163575053,16729.702273203926
5001.482173741756,15720.436186079552
5001.508184043724,14511.501937835683
5001.534194480961,13222.374676369021
5001.560205053464,11791.822950341162
5001.586215761236,10213.847595584404
5001.612226604278,8709.976535323007
5001.638237582589,7618.896272775612
5001.664248696171,7117.753424033108
5001.690259945024,7331.166105081656
5001.716271329149,8310.055869801627
5001.742282848547,9828.817629937887
5001.768294503218,11698.404960600436
5001.794306293164,13713.964464536353
5001.820318218383,15642.959501225534
5001.84633027888,17172.04178101315
5001.872342474651,18194.870093140697
5001.8983548056995,18919.558963342213
5001.924367272026,19664.25010561762
5001.9503798736305,19980.063794645863
5001.976392610514,20099.264043631087
5002.002405482678,20393.51126324842
5002.028418490122,20472.80174458208
5002.054431632847,20496.55808647903
5002.080444910854,20572.204723829775
5002.106458324142,20457.556969484514
5002.1324718727155,20329.767987454612
5002.158485556572,20017.941001967938
5002.184499375713,19924.12165449683
5002.210513330139,19815.24823077336
5002.236527419852,19695.83864840887
5002.262541644852,19244.153741072183
5002.288556005138,19006.49555337424
5002.314570500714,18673.64407903369
5002.340585131577,18437.518428156083
5002.36659989773,18032.082566363508
5002.392614799174,17535.1416220813
5002.418629835909,16997.745796042902
5002.444645007936,16393.75610060888
5002.4706603152545,15598.492473710914
5002.496675757866,14408.000615084966
5002.522691335772,13037.714105109673
5002.548707048972,11844.849402584454
5002.574722897468,10892.934368899887
5002.600738881259,10632.380541653658
5002.626755000347,11370.668902500323
5002.652771254732,12518.760637851441
5002.678787644415,14216.839304640944
5002.704804169397,15950.561663003273
5002.730820829678,17470.839383102008
5002.75683762526,18766.08379284648
5002.782854556142,19467.83419971775
5002.8088716223265,20063.241999605525
5002.834888823812,20346.39900461551
5002.860906160601,20630.234967505156
5002.886923632695,20714.04371325198
5002.912941240092,20622.28877749322
5002.938958982793,20618.600853097603
5002.9649768608015,20629.978699563442
5002.990994874116,20709.96758347705
5003.017013022737,20702.316080730907
5003.043031306666,20639.208085919036
5003.069049725905,20544.09517138525
5003.095068280452,20515.208229817774
5003.121086970309,20273.34862503052
5003.147105795477,20545.47292411568
5003.173124755956,20468.87539238873
5003.199143851748,20415.66188616767
5003.225163082852,20174.255539886166
5003.251182449269,19936.16914620778
5003.277201951001,19935.543906507177
5003.3032215880485,20065.307700622463
5003.32924136041,19924.46524563308
5003.35526126809,19938.995330104357
5003.381281311085,19925.12752651065
5003.407301489398,19517.766789890196
5003.433321803031,19014.24424488649
5003.459342251982,18122.839006332186
5003.4853628362525,17168.629701142505
5003.511383555844,16210.710890537452
5003.537404410757,15632.041852130827
5003.563425400991,15594.21191816011
5003.589446526548,15921.61598473628
5003.615467787429,16867.61228808928
5003.641489183634,17649.350845926187
5003.667510715163,18037.851066760115
5003.693532382018,18182.395692014805
5003.719554184199,18082.42546877559
5003.745576121707,17463.80591622732
5003.771598194542,16489.510189845547
5003.797620402706,15548.085838898092
5003.823642746199,14877.05424996076
5003.849665225021,14499.385201749346
5003.875687839174,14667.288290404931
5003.901710588658,15475.996010457795
5003.927733473473,16350.131462601581
5003.953756493622,17210.955521455464
5003.979779649103,17806.501653652384
5004.005802939919,18325.879220722993
5004.031826366068,18557.872274340018
5004.057849927553,18504.78130092186
5004.083873624375,18583.388071275393
5004.109897456533,18391.294295825322
5004.135921424028,18211.342053990265
5004.161945526862,18491.88434183461
5004.187969765035,18709.03017654394
5004.213994138547,19039.800001416555
5004.240018647399,19407.16316843286
5004.266043291592,19827.52031575758
5004.292068071127,20212.316021158804
5004.318092986004,20421.21956471333
5004.344118036223,20511.00731233014
5004.370143221788,20547.05147362569
5004.396168542696,20680.011019876627
5004.422193998949,20556.955772179175
5004.448219590549,20766.331941668817
5004.474245317495,20642.53963512647
5004.500271179789,20705.808192074972
5004.52629717743,20664.773980468613
5004.5523233104195,20324.814654414506
5004.578349578759,20098.527548209728
5004.604375982449,19959.929701047757
5004.630402521489,19594.581251550197
5004.656429195881,19165.45224611703
5004.682456005625,18825.13305117194
5004.708482950721,18441.9394980292
5004.734510031172,18387.452922314566
5004.760537246977,18228.350967090308
5004.7865645981365,17869.686294142135
5004.812592084652,17546.125048215185
5004.838619706525,16680.726350793677
5004.8646474637535,15527.653383707739
5004.890675356341,14212.009497822253
5004.916703384286,12663.54299167109
5004.942731547591,11502.979635845963
5004.968759846256,10943.917365980433
5004.994788280281,11387.031695137513
5005.020816849668,12181.524358881357
5005.046845554417,13810.208453583396
5005.072874394528,15400.735299891367
5005.098903370003,16880.046301247392
5005.124932480842,17976.303338821694
5005.150961727047,18729.088563520578
5005.176991108617,18882.835043729097
5005.203020625552,18779.82251881754
5005.229050277856,18568.266565874263
5005.255080065526,18108.958937803676
5005.281109988566,17523.5937663685
5005.3071400469735,16761.755886976774
5005.333170240751,15718.139365228737
5005.3592005699,14613.26907423431
5005.38523103442,13475.175141831436
5005.411261634312,11952.239505629213
5005.4372923695755,10423.202071855132
5005.463323240213,8889.364441904749
5005.489354246225,7918.126032582017
5005.515385387611,7422.697550950133
5005.541416664373,7744.267963626491
5005.567448076511,8434.69965371915
5005.593479624025,9746.719098714473
5005.619511306918,11059.071215020756
5005.645543125189,12227.824918497827
5005.671575078838,13282.308174815962
5005.697607167867,13609.716668564002
5005.723639392277,13296.405281237909
5005.749671752068,12705.032716461423
5005.77570424724,11729.563958999583
5005.8017368777955,10413.031513960706
5005.8277696437335,8970.908734791812
5005.853802545055,7570.674648666483
5005.879835581762,6451.1672679205485
5005.905868753854,5861.51985134196
5005.931902061331,5928.844062142593
5005.957935504196,6561.039855801832
5005.983969082448,7735.775353480902
5006.010002796088,9335.001443769923
5006.036036645117,11262.647702728793
5006.062070629536,13147.43466739194
5006.088104749344,15043.636947459512
5006.114139004544,16702.632828519112
5006.140173395135,17890.55434726271
5006.166207921118,18866.176523553273
5006.192242582495,19378.19519645326
5006.218277379266,19724.03160709415
5006.244312311431,20065.319742351723
5006.270347378991,20134.382548328434
5006.296382581946,20041.92951444637
5006.322417920299,20030.847419305523
5006.348453394048,20016.05756877507
5006.374489003196,19950.80920331031
5006.400524747743,19972.865019548695
5006.426560627688,19899.16963862331
5006.452596643034,19886.686825212175
5006.47863279378,19897.511566495257
5006.504669079928,19722.244099078256
5006.530705501478,19690.101873947566
5006.556742058431,19666.989439863235
5006.582778750788,19819.640898528836
5006.608815578549,19753.68319156168
5006.634852541715,19728.21160936416
5006.660889640287,19439.729450405364
5006.686926874265,19341.027606766853
5006.71296424365,19033.78025422429
5006.739001748444,18724.347257724086
5006.765039388645,18279.63199139001
5006.791077164256,17560.421329054105
5006.817115075277,16839.321546614123
5006.843153121708,15861.6017035697
5006.869191303552,14612.178260566508
5006.895229620806,13303.765022151494
5006.921268073474,11637.558153411775
5006.947306661555,9850.70855048199
5006.97334538505,8316.37317472976
5006.999384243961,7175.741722133384
5007.025423238286,6454.308913520603
5007.051462368028,6265.161150553987
5007.077501633187,6892.095141682808
5007.103541033764,8068.998374863272
5007.129580569759,9499.088675246428
5007.155620241173,11451.460954933846
5007.181660048007,13585.775476004526
5007.207699990262,15357.541816752377
5007.233740067937,16854.37033492905
5007.259780281035,18162.33101508943
5007.285820629555,19027.811140814956
5007.311861113499,19481.942209634166
5007.337901732866,19814.866018940058
5007.363942487658,20029.61287755089
5007.389983377876,19951.864191172474
5007.41602440352,19712.258644088386
5007.442065564591,19292.402466329844
5007.468106861089,18527.454783756602
5007.494148293015,17853.982772868436
5007.520189860371,17448.883685618883
5007.546231563156,17623.41693228958
5007.572273401372,17880.71621195102
5007.598315375018,18666.33858862314
5007.624357484096,19500.132468587573
5007.650399728607,20187.162855636554
5007.676442108551,20572.91586955752
5007.702484623929,21058.60439938093
5007.728527274741,21339.531676733273
5007.754570060989,21283.316804327384
5007.780612982673,21261.391234411363
5007.806656039793,21146.796031232872
5007.832699232351,21080.46698541331
5007.858742560347,21024.01333092361
5007.884786023782,20963.384273387277
5007.910829622656,21188.29067104556
5007.936873356971,21329.254622893266
5007.962917226726,21281.317912728795
5007.988961231923,21432.07253930271
5008.015005372563,21529.60729466567
5008.041049648646,21567.91405799452
5008.067094060171,21620.35038249933
5008.0931386071425,21581.111191403732
5008.119183289558,21548.44115916688
5008.14522810742,21699.63365785644
5008.171273060728,21667.136022268034
5008.197318149483,21693.661630343828
5008.223363373687,21506.425155630288
5008.249408733339,21223.924453456162
5008.27545422844,21296.82536350103
5008.301499858992,21215.975348356988
5008.327545624995,20880.4111633005
5008.353591526448,20483.657509358083
5008.379637563355,20054.853076425192
5008.405683735714,19576.324866409257
5008.431730043527,19518.196002888883
5008.457776486794,19456.3271459104
5008.483823065515,19581.97801576662
5008.509869779693,20176.629025819624
5008.535916629327,20647.265507069827
5008.561963614418,20931.621873158874
5008.588010734968,21190.80311119827
5008.614057990975,21269.376520581554
5008.640105382442,21372.089739231476
5008.666152909369,21551.289443499983
5008.692200571756,21353.77111265257
5008.718248369605,21349.77924011735
5008.744296302916,21243.700024978487
5008.77034437169,21389.502191351647
5008.796392575927,21241.71063121719
5008.822440915628,21254.222856163633
5008.848489390794,21222.00396940692
5008.874538001426,21520.546336904434
5008.900586747524,21448.911798789726
5008.926635629089,21206.161527903856
5008.952684646122,21246.70610841523
5008.978733798623,21365.603113701898
5009.004783086593,21307.002083440893
5009.030832510033,21249.696501128252
5009.056882068944,21348.637940205783
5009.082931763326,21398.64643485593
5009.108981593179,21363.27445380584
5009.135031558506,21160.595386813617
5009.161081659306,20947.00709063983
5009.187131895579,20981.85033776911
5009.213182267327,20888.30382175366
5009.239232774552,20638.682146605246
5009.265283417251,20518.837645953037
5009.291334195428,20356.29549870193
5009.317385109083,20109.31018525426
5009.343436158216,19727.343070862
5009.369487342828,19235.479417214206
5009.395538662919,18701.91253994403
5009.421590118491,18257.845055927886
5009.447641709544,17791.71318807682
5009.473693436078,18138.991158348468
5009.499745298095,18431.386026221753
5009.525797295596,18886.324240023212
5009.55184942858,19529.25968095142
5009.577901697049,19787.907186239434
5009.603954101003,20047.575052324322
5009.630006640443,20122.986835304753
5009.65605931537,19870.42761033378
5009.682112125784,19412.280060093228
5009.708165071686,18976.994491931335
5009.7342181530785,18349.64251557775
5009.760271369959,17320.474593107763
5009.78632472233,16260.163870681417
5009.812378210192,15361.552918521855
5009.838431833546,14694.145295340028
5009.864485592391,14335.08401428816
5009.890539486731,14135.924967981064
5009.916593516564,13971.972863363824
5009.942647681891,13269.3160375578
5009.968701982713,12601.493373005558
5009.994756419032,12186.150503839204
5010.020810990847,12025.691264551162
5010.046865698159,12474.374508435743
5010.072920540969,13650.57655965443
5010.098975519279,14968.386835499305
5010.125030633087,16471.70686837914
5010.151085882395,17891.245373719838
5010.177141267204,18839.38181197673
5010.2031967875155,19891.95559629413
5010.229252443328,20438.80922340339
5010.255308234644,20763.501350911643
5010.281364161464,21085.826990218033
5010.307420223788,21305.83593903752
5010.333476421617,21377.837118593867
5010.359532754951,21322.145920762036
5010.3855892237925,21352.61233305859
5010.4116458281405,21393.949024075147
5010.437702567997,21344.75372879271
5010.463759443362,21241.254043915913
5010.489816454236,21133.269215439635
5010.51587360062,20893.864874942574
5010.541930882514,20385.887910118083
5010.56798829992,19959.20905630422
5010.5940458528385,19349.867183079066
5010.62010354127,18343.33901492796
5010.646161365214,17345.89328036882
5010.672219324672,16206.104718528595
5010.698277419646,14990.61135603333
5010.724335650135,14339.154712594976
5010.7503940161405,14362.222967483702
5010.7764525176635,15023.102252546842
5010.802511154703,16146.520914937926
5010.828569927262,17538.498192594558
5010.85462883534,18765.678074515734
5010.880687878937,19766.28484353722
5010.906747058056,20437.01661160526
5010.932806372695,20854.588665645762
5010.958865822856,21166.834441407915
5010.98492540854,21231.108236818585
5011.0109851297475,21340.517047293753
5011.0370449864795,21246.7288265635
5011.063104978735,21106.607921258812
5011.089165106517,21104.256670224968
5011.115225369825,21372.414808903723
5011.14128576866,21519.570589423463
5011.167346303022,21354.126109373934
5011.193406972913,21269.6275022933
5011.219467778333,21346.3652534266
5011.2455287192815,21537.55833882973
5011.271589795761,21483.151975039465
5011.297651007772,21200.689293140204
5011.323712355315,20974.07156041976
5011.34977383839,20808.912828623448
5011.375835456999,20483.310451763733
5011.401897211142,20074.330881643476
5011.427959100819,19241.41108515452
5011.454021126031,18621.73947946926
5011.4800832867795,18002.68110492513
5011.506145583065,17410.57921415851
5011.532208014888,16841.113726798052
5011.558270582248,16480.757683256696
5011.584333285148,16230.1543427209
5011.610396123588,15965.46977254281
5011.636459097567,15532.587382114383
5011.662522207088,15043.898276417665
5011.68858545215,14110.612796890659
5011.714648832754,12991.75820767627
5011.740712348902,11555.366186151892
5011.766776000594,9843.923390337462
5011.79283978783,8270.27772335931
5011.818903710611,7033.837330760471
5011.844967768939,5980.783561752874
5011.871031962813,5393.887313669485
5011.897096292234,5367.73633962054
5011.923160757203,5833.667638472151
5011.949225357721,6811.835615673856
5011.975290093788,8209.238991660292
5012.001354965406,9973.75000069298
5012.027419972574,11771.30950424902
5012.053485115294,13475.435557260202
5012.079550393566,14682.023979706408
5012.105615807392,15407.990470722085
5012.13168135677,15726.756335313057
5012.157747041703,15097.181929237428
5012.183812862192,14054.41268427587
5012.209878818236,13169.521593030862
5012.235944909837,12679.278081874434
5012.262011136994,12639.758601891976
5012.28807749971,13407.63297349317
5012.3141439979845,14479.354120924309
5012.340210631818,15738.605259713362
5012.366277401212,16680.073791018767
5012.392344306166,17136.74521679956
5012.418411346682,17118.306378982175
5012.44447852276,16637.4839268448
5012.470545834401,16167.777808577193
5012.496613281605,16076.364174393284
5012.522680864374,16266.85014306795
5012.548748582707,16854.437375869147
5012.574816436606,17967.17059176613
5012.600884426071,18977.655493926064
5012.626952551104,19700.873550176464
5012.653020811705,20168.09703014204
5012.679089207873,20526.94250293139
5012.705157739611,20845.671442439078
5012.73122640692,20882.054831906393
5012.757295209798,20747.651939568546
5012.7833641482475,20730.49370352291
5012.80943322227,20819.500497812176
5012.835502431864,20645.99333966711
5012.861571777033,20281.09673378772
5012.887641257775,20176.29125226208
5012.9137108740915,19872.135055760667
5012.939780625984,19242.394727834726
5012.965850513452,18569.40231079524
5012.991920536498,17333.800505098316
5013.017990695121,15970.04830419223
5013.044060989323,14598.71714829261
5013.070131419104,13299.316426617987
5013.096201984464,12460.349482524534
5013.122272685405,12364.461303626395
5013.148343521927,12839.96381005921
5013.17441449403,13850.968126129586
5013.200485601717,14849.952379878128
5013.226556844987,15792.397361313002
5013.2526282238405,16449.472105169545
5013.278699738279,16603.876212701816
5013.304771388303,16200.692262219522
5013.330843173913,15417.883991967316
5013.35691509511,14442.980670913834
5013.382987151894,13077.507244701557
5013.409059344267,11535.337117939109
5013.435131672228,10072.514160770288
5013.46120413578,8932.997702942674
5013.487276734921,8357.212639632296
5013.513349469653,8553.037817508271
5013.539422339977,9457.635319391653
5013.565495345894,10815.105512199538
5013.5915684874035,12449.942946842142
5013.617641764507,13991.37088538973
5013.643715177206,15299.299205031677
5013.6697887254995,16210.11015826547
5013.695862409389,16605.665555665248
5013.721936228875,16946.781322747862
5013.748010183958,17099.853836929626
5013.77408427464,17197.569620588936
5013.800158500921,17167.39746583591
5013.826232862801,16863.903237680242
5013.852307360281,16189.18157693542
5013.8783819933615,14936.33841416871
5013.904456762045,13384.44232314587
5013.930531666329,11731.636266621987
5013.956606706218,9971.70954916151
5013.982681881709,8378.400796112399
5014.008757192805,7349.209886567949
5014.034832639507,6893.793052160007
5014.060908221814,7024.703352700112
5014.086983939728,7648.8037086563545
5014.113059793249,8900.357471037953
5014.139135782378,10776.840107120523
5014.165211907116,12649.468015574083
5014.1912881674625,14648.373530106217
5014.21736456342,16446.383379178424
