wave,flux
4450.003811362098,12544.076277337017
4450.026953690486,11825.152823165847
4450.050096139227,10900.281952629433
4450.073238708321,9570.964783883664
4450.096381397769,8351.670811054892
4450.119524207569,7252.8847647029015
4450.142667137726,6200.083590208336
4450.165810188237,5446.947783498768
4450.188953359103,4896.753856354729
4450.212096650326,4412.011848634778
4450.2352400619075,3942.450192070255
4450.258383593846,3745.057467092881
4450.281527246142,3320.1890397103307
4450.304671018797,3192.3288439234298
4450.327814911813,3120.1981321121025
4450.350958925188,3361.0941522169846
4450.374103058924,3921.1422805670245
4450.3972473130225,4685.0510917438205
4450.420391687483,5776.967960692891
4450.443536182305,6789.399142147752
4450.466680797492,7576.3595087418735
4450.489825533042,7962.064410512265
4450.512970388957,8165.144314707411
4450.536115365237,8173.488472522479
4450.559260461882,8159.172945598895
4450.582405678895,8058.220377545184
4450.605551016274,8280.175917300254
4450.628696474022,8736.466217704452
4450.651842052138,8985.145518393496
4450.674987750623,9202.650281803984
4450.698133569476,9401.587964584827
4450.721279508702,9600.65560053283
4450.744425568297,10213.490525885769
4450.767571748264,11324.381465168226
4450.790718048604,12541.605484338834
4450.813864469315,13642.268990641836
4450.837011010401,14704.469356289403
4450.86015767186,15548.418246510559
4450.883304453694,16087.934052863928
4450.906451355903,16409.90094227907
4450.929598378489,16492.085593374824
4450.95274552145,16685.98039641716
4450.975892784789,16691.131671141753
4450.999040168505,16676.883183641992
4451.022187672601,16732.371874698227
4451.045335297074,16419.63230765652
4451.068483041929,16164.77325197461
4451.091630907163,16134.856562543664
4451.114778892777,16061.21544195988
4451.137926998774,15751.991349643622
4451.161075225153,15239.485438290452
4451.184223571914,14645.280320718926
4451.207372039059,14153.406962402063
4451.230520626587,13462.095907886607
4451.253669334501,12567.085135321518
4451.2768181628,11510.51649416419
4451.299967111485,10372.111573692015
4451.323116180556,8927.005428687893
4451.346265370014,7532.196617188476
4451.369414679861,6564.248269520459
4451.392564110095,5941.2499598860895
4451.415713660719,5834.376977308012
4451.438863331732,6314.131968695788
4451.462013123136,7280.352654890664
4451.48516303493,8633.053036524587
4451.508313067117,10281.697718349345
4451.531463219695,11667.469539539277
4451.554613492666,12851.288298373693
4451.577763886031,13929.267055537628
4451.60091439979,14585.601855378061
4451.624065033943,14998.05546172921
4451.647215788492,15062.029689956798
4451.670366663436,14793.234653949612
4451.693517658777,14377.805175319756
4451.716668774516,13690.02199107391
4451.739820010652,12874.633487979434
4451.762971367186,11919.55195833801
4451.78612284412,10764.511540971007
4451.8092744414525,10202.709753945699
4451.832426159187,9937.063910567724
4451.855577997321,10240.647777344904
4451.878729955857,10893.646303325859
4451.901882034796,11694.959018918475
4451.925034234137,12645.212824084962
4451.948186553881,13478.007923478051
4451.97133899403,14403.898493807052
4451.994491554583,15184.144698272212
4452.017644235542,15850.400207586472
4452.040797036907,16173.608048157988
4452.063949958678,16497.037949958612
4452.087103000857,16809.294376500056
4452.1102561634425,16660.73722530216
4452.133409446437,16580.292305336417
4452.156562849841,16599.074528465942
4452.179716373655,16480.86959898042
4452.202870017878,16726.093974308704
4452.226023782513,16482.907054886324
4452.24917766756,15812.42180821964
4452.272331673018,15758.818752446752
4452.29548579889,15560.956913512426
4452.318640045174,14836.770697658343
4452.341794411874,14177.944140690151
4452.364948898987,13307.327643397302
4452.388103506516,12405.910139592474
4452.4112582344615,11765.392102292566
4452.434413082823,11194.670093786484
4452.457568051602,10633.4125084727
4452.480723140799,10238.528204764592
4452.503878350413,10004.535834619503
4452.527033680448,9756.126136234632
4452.550189130902,9586.405888524823
4452.5733447017765,9765.576031708451
4452.596500393071,10382.280303613654
4452.619656204789,11214.925107140929
4452.642812136928,12028.606021983876
4452.66596818949,12654.697501800056
4452.689124362475,13139.191198470537
4452.7122806558855,13379.118270181374
4452.735437069719,12960.6900106498
4452.7585936039795,12420.451916474123
4452.781750258665,11504.821019475412
4452.804907033777,10873.474764528726
4452.828063929317,10445.251451120175
4452.851220945285,10581.199480097719
4452.87437808168,10902.565203528136
4452.897535338506,11630.665597473027
4452.92069271576,12346.492918248412
4452.943850213445,12994.384901073077
4452.967007831562,12931.623137795663
4452.99016557011,12745.841986870224
4453.01332342909,12511.573962057522
4453.036481408502,11980.495835740612
4453.059639508349,11267.631483923082
4453.08279772863,10261.436170364746
4453.105956069345,9261.425655036697
4453.129114530496,8721.376974411623
4453.152273112083,8643.407016944207
4453.175431814107,9259.615849932443
4453.198590636567,10235.493639785196
4453.221749579466,11512.740865662776
4453.244908642802,12898.925351491465
4453.268067826579,13902.991793530982
4453.291227130795,14747.892006728958
4453.314386555451,15155.748904877737
4453.337546100549,15254.78689197713
4453.360705766087,15030.399938288747
4453.3838655520685,15003.543381381929
4453.407025458493,14810.903506412777
4453.430185485361,14192.94296588377
4453.453345632673,13567.780898690968
4453.476505900429,12909.778914730729
4453.4996662886315,12066.606631362543
4453.52282679728,11524.804942631414
4453.545987426375,11472.04837063985
4453.569148175917,11963.65916892654
4453.592309045907,12817.32775323425
4453.615470036346,13683.949696581207
4453.638631147233,14449.000844092427
4453.661792378571,14938.19407903872
4453.684953730359,15233.336214735045
4453.708115202598,15615.651763448841
4453.731276795288,15967.454843032465
4453.754438508431,15966.973381292488
4453.777600342027,16275.796607524426
4453.800762296077,16335.011295035194
4453.82392437058,16294.95755058038
4453.847086565538,16270.716050360359
4453.870248880952,16130.052319325898
4453.8934113168225,16116.853188024188
4453.916573873149,15845.033446992415
4453.939736549933,15530.360160093627
4453.962899347174,15077.962630175522
4453.986062264875,14758.692015937095
4454.009225303034,14144.55269268102
4454.032388461654,13365.318906900075
4454.055551740734,12355.089640798358
4454.078715140275,11374.79865565127
4454.101878660277,10114.245260795857
4454.125042300742,8722.991904818267
4454.14820606167,7521.839143049569
4454.171369943061,6197.2192556541095
4454.194533944917,5397.1590959892355
4454.2176980672375,5043.546521946169
4454.240862310024,5365.626112925897
4454.264026673275,6095.330831254973
4454.287191156994,6962.59173941767
4454.31035576118,7969.902808632696
4454.333520485834,8938.561013937611
4454.356685330957,9357.75250722159
4454.379850296548,9329.623211629178
4454.40301538261,8823.507648237857
4454.426180589142,7924.590170120059
4454.449345916145,6979.033292461948
4454.4725113636205,5957.998365818273
4454.495676931568,5025.09787306796
4454.5188426199875,4658.507470069862
4454.542008428882,3904.5999359896646
4454.565174358249,3191.459187060494
4454.588340408092,2909.9790781086654
4454.611506578411,2908.9454667810865
4454.634672869205,3183.8283792822203
4454.657839280476,3746.1263504611684
4454.681005812225,4542.415667356484
4454.704172464451,5335.572986550098
4454.727339237156,6194.773437324678
4454.750506130341,6636.101680720883
4454.773673144005,6826.923983801818
4454.79684027815,6864.0714511312135
4454.820007532776,6555.485992796983
4454.843174907884,6505.090637526375
4454.866342403473,6957.055386350934
4454.889510019546,7696.690941936336
4454.912677756102,8731.146013992437
4454.935845613144,9841.711642774524
4454.959013590669,10700.125751895734
4454.982181688681,11086.733811971217
4455.005349907178,11099.186122495497
4455.028518246162,10805.11309125803
4455.051686705633,9988.607842457926
4455.074855285593,8955.935697570783
4455.098023986041,8019.224064960279
4455.121192806979,7354.19491862552
4455.144361748406,7211.302915783637
4455.167530810323,7762.631360138409
4455.190699992732,8950.307745075628
4455.213869295633,10361.624291859966
4455.237038719026,11672.848121466575
4455.260208262912,12827.211440061777
4455.283377927292,13892.957089765418
4455.306547712166,14481.918149817731
4455.329717617535,14760.424246276636
4455.352887643399,14783.772310008784
4455.37605778976,14494.872407293286
4455.399228056617,14046.530930695835
4455.422398443972,13313.32000292009
4455.445568951825,12525.78039192866
4455.468739580177,11938.375826803202
4455.491910329028,11501.284441363125
4455.515081198378,10730.017776082574
4455.538252188229,10054.821506897772
4455.561423298582,9160.14818603709
4455.584594529436,8268.557640106472
4455.607765880793,7273.885324974589
4455.630937352652,6149.290113264868
4455.654108945016,5245.713082615725
4455.677280657883,4487.460504326786
4455.700452491255,4115.261702924315
4455.723624445134,4355.281050156664
4455.746796519518,5073.47312673345
4455.7699687144095,6101.354262833938
4455.793141029808,7577.478439471343
4455.816313465714,9180.909765159815
4455.83948602213,10607.369607795905
4455.862658699055,11695.850675906948
4455.885831496489,12834.91997909407
4455.909004414434,13292.295930669316
4455.932177452891,13760.72522060586
4455.955350611858,14016.198092141016
4455.978523891339,13957.827511620848
4456.001697291333,13839.55566077531
4456.024870811841,13539.45064768009
4456.048044452862,12986.994909300476
4456.071218214399,11917.564830175535
4456.094392096451,10880.147927299877
4456.117566099019,9567.111555886577
4456.140740222105,8455.513012133222
4456.163914465707,7771.349966897709
4456.187088829828,7202.095829797595
4456.210263314468,7378.731010656466
4456.233437919626,7843.54716205801
4456.256612645306,8696.173090569084
4456.279787491505,9518.210702630091
4456.302962458226,10326.79702981819
4456.326137545469,10632.676069336767
4456.349312753233,10439.748122397083
4456.372488081522,10014.54211241927
4456.395663530333,9083.90951966492
4456.41883909967,8163.241739216212
4456.442014789531,7603.420164445715
4456.465190599917,7515.843379387268
4456.488366530831,7972.012529611227
4456.5115425822705,9044.726993121865
4456.5347187542375,10358.453321513596
4456.557895046733,11868.692195280959
4456.581071459757,13109.209052092488
4456.604247993311,14067.584109755533
4456.627424647395,14705.391117949952
4456.650601422009,14926.686716877337
4456.673778317154,14908.5606838001
4456.696955332832,14739.324440188457
4456.720132469041,14434.453326774295
4456.7433097257845,14134.715992505913
4456.766487103061,13615.395067975474
4456.789664600872,13238.867758879152
4456.8128422192185,12760.74059274107
4456.8360199581,11991.794720795482
4456.859197817518,11532.032948525235
4456.882375797473,11555.881778796942
4456.905553897966,11936.442563979508
4456.928732118997,12648.958226082059
4456.951910460566,13349.78317733024
4456.975088922674,13981.491165259333
4456.998267505323,14322.583386126209
4457.021446208513,14365.881418398729
4457.044625032244,14312.727617193439
4457.067803976516,14056.791757688277
4457.090983041332,13541.433816759361
4457.1141622266905,12889.238743048003
4457.1373415325925,12147.832800360198
4457.160520959039,10927.551577580696
4457.183700506031,9457.17580019921
4457.206880173568,8208.91771054753
4457.230059961651,7074.338616482968
4457.2532398702815,6181.403369177631
4457.27641989946,5723.872886817127
4457.299600049186,5604.343094470182
4457.322780319461,5883.400843314748
4457.345960710286,6403.749512638998
4457.36914122166,7292.1412017360935
4457.392321853586,8383.047667666975
4457.415502606062,9657.435368864773
4457.43868347909,11145.660043221875
4457.461864472672,12440.950838320405
4457.485045586805,13522.357630535485
4457.508226821494,14363.422278214735
4457.5314081767365,14571.50256293142
4457.554589652534,14347.301585782732
4457.577771248887,14204.142011358039
4457.600952965797,14143.864262814974
4457.624134803263,14079.748600666866
4457.647316761288,14179.903191742289
4457.67049883987,14169.53128539359
4457.693681039011,14310.735531696326
4457.716863358712,14035.3099170431
4457.7400457989725,13472.262212087431
4457.763228359793,12747.488638174293
4457.7864110411765,12112.820711574654
4457.809593843121,11157.046072357116
4457.832776765628,10091.336440775687
4457.855959808699,9108.023404078456
4457.879142972333,8257.126789106096
4457.902326256532,7630.17499672095
4457.925509661296,7231.487724957728
4457.948693186626,7271.40136639606
4457.971876832522,7597.087592199386
4457.995060598985,7873.866893935722
4458.018244486016,8054.736186100478
4458.041428493615,8000.621413588511
4458.0646126217825,7702.631142198599
4458.08779687052,7974.788889195242
4458.110981239827,8677.19918855193
4458.134165729705,9679.91930311182
4458.157350340155,10927.50108000782
4458.180535071177,11757.907978501948
4458.203719922771,12401.176582282078
4458.226904894938,12677.155409110257
4458.2500899876795,12276.881360952755
4458.273275200995,11708.322671040694
4458.296460534886,10759.684620089376
4458.3196459893525,9950.436096375806
4458.342831564396,9524.02396101882
4458.366017260016,9475.491782331355
4458.389203076214,9954.880564183495
4458.4123890129895,11022.139040514969
4458.435575070344,12097.71332342263
4458.458761248279,13235.217429704186
4458.481947546794,14255.4520152899
4458.505133965889,14929.133287543049
4458.528320505566,15183.901998149502
4458.551507165825,15321.852596288272
4458.574693946666,15291.740704345922
4458.597880848091,14918.166922195662
4458.6210678701,14649.886605938558
4458.644255012693,14167.230218504827
4458.6674422758715,13432.057221327721
4458.690629659636,12719.598682475777
4458.713817163986,11875.626670623877
4458.737004788924,10739.503483877237
4458.76019253445,9474.607117178626
4458.783380400563,8198.375074483458
4458.8065683872655,6994.55142849083
4458.829756494558,5733.084867069276
4458.85294472244,4623.598689724971
4458.876133070914,3712.802800338651
4458.899321539979,3165.683673284952
4458.922510129635,2994.737324453658
4458.945698839884,2993.6605361975903
4458.968887670727,3252.118768668179
4458.992076622164,3775.356899159672
4459.015265694195,4452.229285345363
4459.0384548868215,5388.872177409138
4459.061644200044,6389.664989948319
4459.084833633862,7021.05150620084
4459.108023188278,7296.59978939949
4459.131212863292,7532.3765283717985
4459.154402658904,7610.305621596796
4459.177592575114,7778.237938147127
4459.200782611925,8402.895976361167
4459.223972769336,9375.56559575454
4459.247163047347,10631.60518837296
4459.27035344596,11959.729741544308
4459.293543965176,13393.050609540309
4459.316734604993,14269.047977924476
4459.339925365414,14908.518008400644
4459.363116246439,15355.346203764619
4459.386307248069,15441.884001209623
4459.409498370304,15241.668195086748
4459.432689613145,14860.930547274485
4459.455880976592,14463.28831695471
4459.479072460647,13812.741692058376
4459.502264065309,12952.258236331561
4459.52545579058,11804.240287774328
4459.5486476364595,11149.690072358811
4459.571839602949,10864.013725504201
4459.595031690048,10738.976311375616
4459.618223897759,11231.940635209477
4459.641416226081,12211.418027829133
4459.664608675014,13250.517251422636
4459.687801244561,13973.902166578917
4459.710993934721,14702.654528505178
4459.734186745496,14974.395260784946
4459.757379676885,15234.32982097156
4459.780572728889,15307.341765854611
4459.803765901509,15164.04309223789
4459.8269591947455,14902.582830250523
4459.850152608599,14319.308580257819
4459.87334614307,13644.278695517722
4459.89653979816,12985.340907552114
4459.91973357387,12016.02673298175
4459.942927470198,10703.497762971476
4459.966121487147,9217.588765819799
4459.989315624717,7869.015960434968
4460.0125098829085,6756.586444476099
4460.035704261722,5911.932638768306
4460.058898761158,5545.179587644845
4460.082093381218,5499.483991298601
4460.105288121902,5847.186136815167
4460.12848298321,6693.8500952236045
4460.151677965145,7527.281217467487
4460.1748730677045,8405.208456550232
4460.198068290891,9820.733976829704
4460.221263634704,11254.921579719445
4460.244459099145,12586.144302741917
4460.267654684215,13717.66590877482
4460.290850389914,14599.608958011828
4460.314046216243,15455.185675982262
4460.337242163202,15775.31949309081
4460.360438230791,15749.792276273956
4460.383634419013,15978.490008759849
4460.406830727867,16136.308098489371
4460.430027157354,16170.362395832231
4460.453223707474,16265.312222435057
4460.476420378228,16317.44499948109
4460.499617169617,16131.86315531374
4460.522814081641,15781.06776317304
4460.5460111143,15514.165225106219
4460.569208267598,15295.778224968763
4460.592405541532,15040.782588549228
4460.615602936104,14826.768437491666
4460.638800451314,14662.62204607792
4460.661998087163,14761.215842944037
4460.685195843652,14886.707392131728
4460.708393720782,14927.287363250001
4460.731591718552,14877.071913757723
4460.754789836965,14364.484049719544
4460.777988076019,13674.299374752029
4460.801186435716,12709.343034095236
4460.824384916057,11484.783221578284
4460.847583517042,10259.982405716803
4460.870782238671,8932.0451588149
4460.893981080947,7643.315592845205
4460.917180043868,6624.369694845305
4460.940379127435,5869.458856898556
4460.963578331651,5325.617373169795
4460.986777656513,5033.8944783965235
4461.009977102025,4927.2705166385995
4461.033176668186,5133.5415765083735
4461.056376354995,5455.564888731108
4461.079576162457,5997.611449649554
4461.102776090568,6598.53491754221
4461.125976139332,7116.822502189937
4461.149176308748,7370.125136081621
4461.172376598816,6996.717242249347
4461.195577009538,6705.947548882943
4461.218777540915,6173.306953404337
4461.241978192946,5704.273438008853
4461.265178965633,5528.644324162141
4461.2883798589755,5624.5233053737065
4461.311580872974,5699.436183055315
4461.3347820076315,5803.9739990857
4461.357983262946,5855.647324046948
4461.381184638919,5441.10453248603
4461.404386135551,4862.131692469538
4461.4275877528435,4230.622094437086
4461.4507894907965,3677.1772520835516
4461.4739913494095,3338.8829944990225
4461.497193328685,3317.5039573588
4461.520395428623,3635.04882956185
4461.543597649224,4240.920148441268
4461.566799990488,5396.320385015893
4461.590002452416,6505.858210760326
4461.61320503501,7607.907615939005
4461.636407738269,8666.77713179158
4461.659610562193,9497.68013231264
4461.682813506784,9893.627959970536
4461.706016572044,9358.317515291339
4461.729219757971,8770.483373165964
4461.752423064566,7754.120349875063
4461.775626491831,6708.827396157833
4461.798830039766,5856.649367920072
4461.82203370837,5447.80686943435
4461.845237497647,5564.397857773341
4461.868441407595,6186.885022243757
4461.891645438215,7073.42466325302
4461.914849589509,8173.230217543171
4461.938053861475,9335.352184608819
4461.961258254117,10269.398551851824
4461.984462767433,10842.93357996961
4462.007667401424,11204.181200399104
4462.030872156092,11251.265731572428
4462.0540770314365,11427.20321351764
4462.077282027459,11696.932032514356
4462.100487144158,11932.005140004747
4462.123692381537,11706.62207459618
4462.146897739594,11105.897951216311
4462.170103218332,10238.562943496787
4462.19330881775,9427.952874184453
4462.21651453785,8254.686143827135
4462.239720378631,7469.983318390557
4462.262926340095,7143.129390757008
4462.286132422241,7343.45557978015
4462.309338625071,8112.601681285394
4462.3325449485865,9546.878595356384
4462.355751392785,11001.013167144676
4462.3789579576705,12238.98204647789
4462.402164643242,13376.612019971892
4462.4253714495,14231.551090243296
4462.448578376446,14607.21887769453
4462.471785424079,14732.384047730478
4462.494992592401,14437.562233059327
4462.518199881412,14073.649455134939
4462.541407291114,13825.306745117034
4462.564614821506,13652.052786088097
4462.587822472589,13509.19648458771
4462.611030244365,13629.875644027767
4462.634238136832,13548.755037472822
4462.657446149992,13408.325853774904
4462.680654283847,12785.839723282277
