wave,flux
4450.003811362098,18745.748602741423
4450.026953690486,17856.676288055478
4450.050096139227,16540.32113753481
4450.073238708321,15027.875852345607
4450.096381397769,13347.258655790705
4450.119524207569,11631.119156172112
4450.142667137726,9976.429965121746
4450.165810188237,8643.874583474677
4450.188953359103,7563.485660806951
4450.212096650326,6800.6655733199805
4450.2352400619075,6028.7416076657455
4450.258383593846,5585.825465953786
4450.281527246142,5113.5640763537995
4450.304671018797,4618.4131058190205
4450.327814911813,4423.308026829669
4450.350958925188,4506.099245739194
4450.374103058924,5130.737351308927
4450.3972473130225,5912.621635362206
4450.420391687483,7175.897630396435
4450.443536182305,8609.613849577492
4450.466680797492,9779.044540826862
4450.489825533042,10975.659008403643
4450.512970388957,11576.278148415542
4450.536115365237,11750.005901051063
4450.559260461882,11779.444388863789
4450.582405678895,11496.742909881332
4450.605551016274,11484.306997433045
4450.628696474022,11948.81881752069
4450.651842052138,12462.441641434423
4450.674987750623,12820.22618287244
4450.698133569476,13224.921707191801
4450.721279508702,13639.194604818073
4450.744425568297,14093.151799424546
4450.767571748264,14998.501956402995
4450.790718048604,16362.796528809835
4450.813864469315,17814.664373526604
4450.837011010401,19550.997999865558
4450.86015767186,21305.63600188924
4450.883304453694,22352.28965572371
4450.906451355903,23052.822680394427
4450.929598378489,23646.06818789339
4450.95274552145,23882.861854032977
4450.975892784789,23929.258919612737
4450.999040168505,23948.706519996424
4451.022187672601,24110.440109107985
4451.045335297074,23954.309444440358
4451.068483041929,23818.334149822145
4451.091630907163,23625.638602816343
4451.114778892777,23004.337834258313
4451.137926998774,22514.58378603062
4451.161075225153,21898.55838625758
4451.184223571914,21392.574864163314
4451.207372039059,20681.090107313874
4451.230520626587,19768.296269781924
4451.253669334501,18788.76860063175
4451.2768181628,17497.465859949338
4451.299967111485,15852.722001518367
4451.323116180556,14321.273107311177
4451.346265370014,12520.200914385165
4451.369414679861,10735.379956662633
4451.392564110095,9207.408410543767
4451.415713660719,8488.66641889483
4451.438863331732,8502.619555234958
4451.462013123136,9252.102266816595
4451.48516303493,10775.212011867141
4451.508313067117,12821.68198130315
4451.531463219695,14960.624547558398
4451.554613492666,16956.809655150962
4451.577763886031,18803.218037185605
4451.60091439979,20061.44409031539
4451.624065033943,21124.319904002656
4451.647215788492,21556.017913947377
4451.670366663436,21310.76030473123
4451.693517658777,20969.149382737047
4451.716668774516,20204.595558080426
4451.739820010652,19256.081087607927
4451.762971367186,18077.975290597227
4451.78612284412,16762.45276553174
4451.8092744414525,15570.356283763069
4451.832426159187,14713.026809999472
4451.855577997321,14417.431249342384
4451.878729955857,14939.84551926118
4451.901882034796,15933.869710383122
4451.925034234137,16967.413638812468
4451.948186553881,18069.937411499563
4451.97133899403,19611.271271404483
4451.994491554583,20714.097135022468
4452.017644235542,21601.949338461694
4452.040797036907,22621.438502146288
4452.063949958678,23293.166969968104
4452.087103000857,23831.57785639356
4452.1102561634425,23862.966250597445
4452.133409446437,24261.83857887037
4452.156562849841,24000.161345427605
4452.179716373655,23930.811949828236
4452.202870017878,23856.15002112077
4452.226023782513,23474.378087217847
4452.24917766756,23197.191979134248
4452.272331673018,22961.395652250783
4452.29548579889,22484.9342788384
4452.318640045174,21796.22907276727
4452.341794411874,20684.08558939948
4452.364948898987,19796.843886861796
4452.388103506516,18688.177498424735
4452.4112582344615,17602.778104652873
4452.434413082823,16674.644060960472
4452.457568051602,15813.357332203754
4452.480723140799,15104.022774997511
4452.503878350413,14532.341598936888
4452.527033680448,14083.222825763765
4452.550189130902,13934.812596986309
4452.5733447017765,13877.897642655917
4452.596500393071,14187.753745221547
4452.619656204789,15061.511079013855
4452.642812136928,15988.85320746228
4452.66596818949,17105.050960893204
4452.689124362475,18170.59543634033
4452.7122806558855,18626.961572892422
4452.735437069719,18714.572992858913
4452.7585936039795,18240.048273565386
4452.781750258665,17245.01075733137
4452.804907033777,16366.54700379555
4452.828063929317,15448.57475311132
4452.851220945285,14989.589199300013
4452.87437808168,15016.858028532833
4452.897535338506,15802.601102648152
4452.92069271576,16836.004071319145
4452.943850213445,17704.238840620208
4452.967007831562,18187.913758352217
4452.99016557011,18481.626591734872
4453.01332342909,18166.00579255879
4453.036481408502,17504.149441929243
4453.059639508349,16675.093150332494
4453.08279772863,15486.119198570115
4453.105956069345,14268.639432753755
4453.129114530496,13172.651410072784
4453.152273112083,12650.85738373767
4453.175431814107,12227.505031063567
4453.198590636567,13301.585080662862
4453.221749579466,14987.999396730303
4453.244908642802,16600.34077632617
4453.268067826579,18642.548667958243
4453.291227130795,19974.850331211215
4453.314386555451,20909.36009365069
4453.337546100549,21585.522499153416
4453.360705766087,21770.59893453136
4453.3838655520685,21430.794232110526
4453.407025458493,21387.437848648897
4453.430185485361,20882.329786157647
4453.453345632673,20179.034982405487
4453.476505900429,19360.230095294486
4453.4996662886315,18192.254238204667
4453.52282679728,17177.03893570775
4453.545987426375,16482.3643605138
4453.569148175917,16645.205744605446
4453.592309045907,17409.98272765503
4453.615470036346,18440.58525960046
4453.638631147233,19638.297131001204
4453.661792378571,20536.677820139455
4453.684953730359,21415.69490784938
4453.708115202598,22146.41485953267
4453.731276795288,22667.16462519878
4453.754438508431,22827.239861668455
4453.777600342027,22757.95850318802
4453.800762296077,23246.60637302117
4453.82392437058,23446.31728066089
4453.847086565538,23285.73914934254
4453.870248880952,23301.316641853406
4453.8934113168225,23085.134467576157
4453.916573873149,22678.003285958774
4453.939736549933,22447.465394096198
4453.962899347174,22258.15397443199
4453.986062264875,21688.890091978512
4454.009225303034,20576.285747427402
4454.032388461654,19613.496895840875
4454.055551740734,18536.500040941846
4454.078715140275,17327.921476861895
4454.101878660277,15747.038706493267
4454.125042300742,13910.42551805532
4454.14820606167,12048.966291346438
4454.171369943061,10228.247022895914
4454.194533944917,8666.850510008711
4454.2176980672375,7581.631807978187
4454.240862310024,7366.653504332068
4454.264026673275,7823.3125742734965
4454.287191156994,8708.405303244983
4454.31035576118,10194.206083163925
4454.333520485834,11537.39181564307
4454.356685330957,12517.218354978435
4454.379850296548,13124.883843216468
4454.40301538261,12941.853107375196
4454.426180589142,12215.936703706222
4454.449345916145,11006.917787055254
4454.4725113636205,9468.543516740605
4454.495676931568,8019.815696034472
4454.5188426199875,6946.567169868941
4454.542008428882,5873.705512016987
4454.565174358249,5040.28822521105
4454.588340408092,4611.0337564729825
4454.611506578411,4234.073531656465
4454.634672869205,4461.148775582739
4454.657839280476,4776.195300178669
4454.681005812225,5491.867993455339
4454.704172464451,6467.952830936976
4454.727339237156,7552.280023843981
4454.750506130341,8496.347240337715
4454.773673144005,9367.65164831528
4454.79684027815,9691.042595019802
4454.820007532776,9507.480700159924
4454.843174907884,9477.984055408422
4454.866342403473,9719.441512929092
4454.889510019546,10059.055186786793
4454.912677756102,11022.337361738964
4454.935845613144,12468.634258838592
4454.959013590669,13955.905496507265
4454.982181688681,15035.152613066024
4455.005349907178,15706.6437183827
4455.028518246162,15858.707345601499
4455.051686705633,15233.298415452353
4455.074855285593,14093.104830312073
4455.098023986041,12810.45208027157
4455.121192806979,11620.92917571022
4455.144361748406,10764.307785608233
4455.167530810323,10743.182437624664
4455.190699992732,11602.59713228346
4455.213869295633,13009.477787426016
4455.237038719026,14839.986914659983
4455.260208262912,16804.331013738098
4455.283377927292,18513.376659479814
4455.306547712166,19804.229480358867
4455.329717617535,20796.499948131426
4455.352887643399,21153.665122722694
4455.37605778976,20954.11070829954
4455.399228056617,20766.787340546838
4455.422398443972,19872.881965298755
4455.445568951825,18900.420645758746
4455.468739580177,18043.70736898661
4455.491910329028,16914.634048723652
4455.515081198378,15841.978087870739
4455.538252188229,14979.808027338886
4455.561423298582,13907.27914665012
4455.584594529436,12809.500088165698
4455.607765880793,11604.505190316979
4455.630937352652,9918.65199791454
4455.654108945016,8475.944320393779
4455.677280657883,7228.312108520999
4455.700452491255,6534.283059754961
4455.723624445134,6072.820881701592
4455.746796519518,6416.882845102476
4455.7699687144095,7348.565063610331
4455.793141029808,9112.049337058324
4455.816313465714,11056.59588580942
4455.83948602213,13217.242381791339
4455.862658699055,15243.918067222514
4455.885831496489,17227.849655038317
4455.909004414434,18493.648311548022
4455.932177452891,19216.90003906323
4455.955350611858,20057.725979826413
4455.978523891339,20090.287125087474
4456.001697291333,19945.06082733632
4456.024870811841,19594.90048316749
4456.048044452862,18755.866281743292
4456.071218214399,18102.347378137074
4456.094392096451,16756.434024337064
4456.117566099019,15142.90052023934
4456.140740222105,13530.874470664176
4456.163914465707,11966.425757092924
4456.187088829828,10956.15364803054
4456.210263314468,10554.039339333582
4456.233437919626,10778.387561504362
4456.256612645306,11434.577595942792
4456.279787491505,12589.62361961769
4456.302962458226,13709.950690783862
4456.326137545469,14524.012027404633
4456.349312753233,14882.848009791318
4456.372488081522,14771.296757889155
4456.395663530333,13737.09760498539
4456.41883909967,12610.567689200572
4456.442014789531,11571.946240011324
4456.465190599917,10884.140555768603
4456.488366530831,10940.879921750222
4456.5115425822705,11845.064627350659
4456.5347187542375,13401.098953487679
4456.557895046733,15345.278464352934
4456.581071459757,17101.093885062524
4456.604247993311,18719.625914693126
4456.627424647395,20221.184067597966
4456.650601422009,21041.46334997464
4456.673778317154,21495.76600684893
4456.696955332832,21298.146390044054
4456.720132469041,21066.5757224775
4456.7433097257845,20527.721732947874
4456.766487103061,20122.03658569534
4456.789664600872,19599.64421677009
4456.8128422192185,18807.509826799684
4456.8360199581,18049.734905552566
4456.859197817518,17150.75188228273
4456.882375797473,16664.91459218055
4456.905553897966,16696.989694207747
4456.928732118997,17304.78112613588
4456.951910460566,18356.01195911988
4456.975088922674,19190.786013148485
4456.998267505323,19880.800761273073
4457.021446208513,20243.822814323994
4457.044625032244,20307.121608645444
4457.067803976516,20383.423104750247
4457.090983041332,20034.588317093316
4457.1141622266905,19256.49023226995
4457.1373415325925,18036.594485190806
4457.160520959039,16553.565554710247
4457.183700506031,14904.380205889303
4457.206880173568,13175.345518842367
4457.230059961651,11405.47430433455
4457.2532398702815,9771.472018256063
4457.27641989946,8638.736644142717
4457.299600049186,8131.717909942295
4457.322780319461,8183.928736236994
4457.345960710286,8571.619070361561
4457.36914122166,9397.035838693624
4457.392321853586,10497.53218583546
4457.415502606062,12114.272826497634
4457.43868347909,14222.72087174561
4457.461864472672,16258.533901190061
4457.485045586805,18018.61664803931
4457.508226821494,19337.709947671712
4457.5314081767365,20161.067473087296
4457.554589652534,20578.116983527223
4457.577771248887,20768.218156730007
4457.600952965797,20680.399551379312
4457.624134803263,20430.143550838216
4457.647316761288,20460.71184165886
4457.67049883987,20334.042519927934
4457.693681039011,20047.97747814556
4457.716863358712,19930.164245089272
4457.7400457989725,19596.975855707296
4457.763228359793,19009.319231900066
4457.7864110411765,18061.391830963275
4457.809593843121,16946.846345894875
4457.832776765628,15616.278065805207
4457.855959808699,14285.140143629955
4457.879142972333,12950.882554946507
4457.902326256532,11650.212237026462
4457.925509661296,10707.714477419153
4457.948693186626,10428.227751147055
4457.971876832522,10487.414162873574
4457.995060598985,10817.161348827345
4458.018244486016,11236.874545051469
4458.041428493615,11300.76279473587
4458.0646126217825,11132.51165244871
4458.08779687052,11188.67794309169
4458.110981239827,11698.314981092626
4458.134165729705,12651.86483394775
4458.157350340155,13928.29473924345
4458.180535071177,15426.44407123399
4458.203719922771,16769.545113212924
4458.226904894938,17712.244085094615
4458.2500899876795,17810.423221426365
4458.273275200995,17388.189346990075
4458.296460534886,16588.62317150765
4458.3196459893525,15274.331780059392
4458.342831564396,14268.294050636308
4458.366017260016,13643.14146169964
4458.389203076214,13668.204380769079
4458.4123890129895,14591.313125257619
4458.435575070344,16151.993529990354
4458.458761248279,17649.88381033244
4458.481947546794,19187.013709740975
4458.505133965889,20544.75969669166
4458.528320505566,21325.39025866807
4458.551507165825,21736.94570868345
4458.574693946666,21800.671572469546
4458.597880848091,21631.944037430178
4458.6210678701,21441.53258308968
4458.644255012693,20679.76196962809
4458.6674422758715,19752.362261443162
4458.690629659636,18751.298629356403
4458.713817163986,17849.05669207703
4458.737004788924,16435.179889678235
4458.76019253445,14779.032735188335
4458.783380400563,13113.125508500143
4458.8065683872655,11338.756591015816
4458.829756494558,9587.045831811325
4458.85294472244,7849.726972223938
4458.876133070914,6329.172483834363
4458.899321539979,5281.4881855062085
4458.922510129635,4634.467684357058
4458.945698839884,4304.374762954376
4458.968887670727,4338.882492188001
4458.992076622164,4802.79641592142
4459.015265694195,5512.541557777541
4459.0384548868215,6612.46271658626
4459.061644200044,7795.979624970828
4459.084833633862,8873.871100239594
4459.108023188278,9807.790628806682
4459.131212863292,10602.59460206874
4459.154402658904,10944.773061239179
4459.177592575114,11073.158364123423
4459.200782611925,11424.156373074493
4459.223972769336,12237.719596537301
4459.247163047347,13711.291513312448
4459.27035344596,15525.611229255424
4459.293543965176,17620.90537807672
4459.316734604993,19377.83903320589
4459.339925365414,20522.678969704277
4459.363116246439,21395.45472850896
4459.386307248069,21730.914572121204
4459.409498370304,21636.51626061398
4459.432689613145,21558.593658781978
4459.455880976592,21306.97525512233
4459.479072460647,20443.78131140325
4459.502264065309,19283.281922132275
4459.52545579058,18192.962548305757
4459.5486476364595,17131.14555961945
4459.571839602949,15875.082022933826
4459.595031690048,15268.082026217606
4459.618223897759,15519.437073775658
4459.641416226081,16301.777483983806
4459.664608675014,17538.918996768818
4459.687801244561,18799.932441126675
4459.710993934721,20069.314790652705
4459.734186745496,21091.692604877248
4459.757379676885,21604.036350741164
4459.780572728889,21764.379943634398
4459.803765901509,21829.24016392285
4459.8269591947455,21517.68270019775
4459.850152608599,21046.146469222345
4459.87334614307,20262.330608568405
4459.89653979816,19264.86726128072
4459.91973357387,17975.702227877075
4459.942927470198,16472.103207104068
4459.966121487147,14749.721082083173
4459.989315624717,12862.40975461026
4460.0125098829085,10998.175280486734
4460.035704261722,9496.43145195024
4460.058898761158,8456.199433513299
4460.082093381218,7905.15015817307
4460.105288121902,7932.625398967046
4460.12848298321,8626.919530562507
4460.151677965145,9702.75989142381
4460.1748730677045,10939.08127922852
4460.198068290891,12642.87360766419
4460.221263634704,14478.745763764096
4460.244459099145,16424.143818316985
4460.267654684215,18251.11213035607
4460.290850389914,19609.75694554006
4460.314046216243,20949.877505665994
4460.337242163202,21988.72368565639
4460.360438230791,22658.808510331768
4460.383634419013,22785.14636636891
4460.406830727867,22919.552522876438
4460.430027157354,23277.337537088442
4460.453223707474,23365.955962933713
4460.476420378228,23377.82038128399
4460.499617169617,23383.181602785455
4460.522814081641,23074.144908299262
4460.5460111143,22660.851364423375
4460.569208267598,22216.359080028833
4460.592405541532,21821.850724394164
4460.615602936104,21429.928579438958
4460.638800451314,21234.41420793172
4460.661998087163,21181.652464070914
4460.685195843652,21185.89924609911
4460.708393720782,21180.96576669973
4460.731591718552,21202.01769043194
4460.754789836965,20881.212208184723
4460.777988076019,20130.723987932408
4460.801186435716,19150.06033824781
4460.824384916057,17712.35796597903
4460.847583517042,16142.45244351931
4460.870782238671,14286.244503460392
4460.893981080947,12310.118379715672
4460.917180043868,10600.268813567287
4460.940379127435,9179.016617691126
4460.963578331651,8224.951582141483
4460.986777656513,7592.342038304457
4461.009977102025,7228.344346799429
4461.033176668186,7223.402063554692
4461.056376354995,7433.736185750154
4461.079576162457,7900.78582457062
4461.102776090568,8664.193912659715
4461.125976139332,9401.05528205449
4461.149176308748,9847.643242538956
4461.172376598816,10063.985106091723
4461.195577009538,9941.413459830797
4461.218777540915,9479.136668002817
4461.241978192946,8692.179633326945
4461.265178965633,8070.289125578641
4461.2883798589755,7795.682655951228
4461.311580872974,7870.497572225371
4461.3347820076315,8020.217423732725
4461.357983262946,8100.483546386354
4461.381184638919,7881.567882852998
4461.404386135551,7451.085286313494
4461.4275877528435,6714.808224319105
4461.4507894907965,5883.281052022152
4461.4739913494095,5189.0631239828
4461.497193328685,4746.235582429702
4461.520395428623,4833.580946147295
4461.543597649224,5393.337386310559
4461.566799990488,6334.297052568978
4461.590002452416,7869.201111561004
4461.61320503501,9394.99640950321
4461.636407738269,11071.913141465868
4461.659610562193,12448.441402727905
4461.682813506784,13247.798936009527
4461.706016572044,13522.228895965798
4461.729219757971,13269.158037359603
4461.752423064566,12072.026451704862
4461.775626491831,10721.666850699614
4461.798830039766,9308.376104300132
4461.82203370837,8382.798950936407
4461.845237497647,7731.597405926987
4461.868441407595,8020.797755347646
4461.891645438215,8862.652580879256
4461.914849589509,10305.05033107731
4461.938053861475,11981.512336531336
4461.961258254117,13437.521201622632
4461.984462767433,14686.527859234386
4462.007667401424,15390.26468282915
4462.030872156092,15982.208849679195
4462.0540770314365,16219.832495459234
4462.077282027459,16328.195633229087
4462.100487144158,16457.704328290503
4462.123692381537,16591.491214797028
4462.146897739594,16311.6162604347
4462.170103218332,15538.890856218224
4462.19330881775,14406.339741705724
4462.21651453785,12991.82003407207
4462.239720378631,11590.558142899565
4462.262926340095,10658.67876538825
4462.286132422241,10315.12873021613
4462.309338625071,10832.266919438396
4462.3325449485865,12109.877230444155
4462.355751392785,13803.438764469849
4462.3789579576705,15834.366484097989
4462.402164643242,17851.84113889481
4462.4253714495,19360.089983408157
4462.448578376446,20408.025670482977
4462.471785424079,20868.735963478222
4462.494992592401,20714.5930311204
4462.518199881412,20532.205857058085
4462.541407291114,20234.86088485779
4462.564614821506,19824.45881168418
4462.587822472589,19433.8408458961
4462.611030244365,19314.136801543948
4462.634238136832,19413.9505730608
4462.657446149992,19149.328705513042
