wave,flux
5000.025812696027,17387.25742482433
5000.051815424163,16129.607254644921
5000.0778182875265,14969.499530440122
5000.103821286119,13837.315588303338
5000.12982441994,12853.224412563091
5000.155827688991,12199.511328603292
5000.181831093272,11656.515398842106
5000.207834632784,11529.173431147767
5000.2338383075285,11895.758444087838
5000.259842117506,12924.064557839738
5000.285846062716,14274.313108550763
5000.311850143161,15783.041402063527
5000.33785435884,17102.911077475965
5000.363858709754,18185.85341108517
5000.389863195905,18867.894553350303
5000.415867817292,19313.68005131794
5000.441872573917,19109.96378993682
5000.4678774657805,18579.093353498476
5000.493882492882,17840.63207963703
5000.519887655224,16833.122908318703
5000.545892952806,15986.032635507461
5000.571898385629,15381.283069489122
5000.597903953694,14999.95402829578
5000.623909657001,15030.051463192403
5000.649915495552,15557.685467276502
5000.675921469346,16190.775158660239
5000.701927578384,16631.06635123469
5000.727933822669,16995.10342954152
5000.7539402021985,17129.593994102874
5000.779946716975,17028.46224978454
5000.805953366999,17002.502461654825
5000.831960152272,17036.39362623611
5000.857967072792,17394.840913316413
5000.883974128563,18095.697094805786
5000.9099813195835,18882.213285883656
5000.935988645855,19706.231533923314
5000.961996107378,20359.86993897533
5000.988003704153,20649.130018076186
5001.014011436181,20830.246000512405
5001.040019303464,20811.765460125316
5001.066027306,20708.87708365973
5001.092035443791,20771.824982417376
5001.118043716839,20551.58035322785
5001.1440521251425,20477.74836250726
5001.170060668704,20132.695455378285
5001.196069347523,19893.260831116804
5001.222078161601,19475.03962511982
5001.248087110937,19015.398139163888
5001.274096195534,18336.00527541458
5001.300105415392,17725.809617432777
5001.326114770512,17215.831307745117
5001.352124260892,16866.055211757484
5001.3781338865365,17170.2027167842
5001.4041436474445,17569.93815596835
5001.430153543616,17864.398975835084
5001.456163575053,17782.8953788273
5001.482173741756,17697.582501604113
5001.508184043724,16973.997135526886
5001.534194480961,16215.279535105357
5001.560205053464,14893.616261746816
5001.586215761236,13474.01285299456
5001.612226604278,12004.655116758928
5001.638237582589,10590.166860211308
5001.664248696171,9139.711717616101
5001.690259945024,8213.420661667105
5001.716271329149,7879.784067381671
5001.742282848547,8179.910314697224
5001.768294503218,9308.715442277355
5001.794306293164,10884.934624682859
5001.820318218383,12752.232899312907
5001.84633027888,14667.404258373974
5001.872342474651,16635.06681088695
5001.8983548056995,18192.159415372174
5001.924367272026,19454.512327098364
5001.9503798736305,20207.057557987908
5001.976392610514,20863.218335490372
5002.002405482678,21287.83663058621
5002.028418490122,21547.910796963355
5002.054431632847,21627.387576564117
5002.080444910854,21750.79732209576
5002.106458324142,21939.938922539786
5002.1324718727155,21887.987271327074
5002.158485556572,21749.620789481556
5002.184499375713,21698.74819456069
5002.210513330139,21515.96241858917
5002.236527419852,21265.711167192065
5002.262541644852,21048.477266755126
5002.288556005138,20833.153462657137
5002.314570500714,20501.28728203806
5002.340585131577,20146.421414755987
5002.36659989773,19808.95406763647
5002.392614799174,19336.630649497896
5002.418629835909,18938.558397349127
5002.444645007936,18184.64556281439
5002.4706603152545,17563.878819479043
5002.496675757866,16773.722351028784
5002.522691335772,15936.284986413553
5002.548707048972,15036.679037430615
5002.574722897468,13729.508707682884
5002.600738881259,12511.87665133206
5002.626755000347,11875.894006309278
5002.652771254732,11742.537303852647
5002.678787644415,12378.079196113584
5002.704804169397,13734.90240250038
5002.730820829678,15582.289431626332
5002.75683762526,17200.241331207395
5002.782854556142,18650.442178960657
5002.8088716223265,19891.14858705862
5002.834888823812,20965.756374796216
5002.860906160601,21518.194257844585
5002.886923632695,21896.40552911347
5002.912941240092,22122.4026438994
5002.938958982793,22054.281137394984
5002.9649768608015,22145.873676527328
5002.990994874116,22143.342474731253
5003.017013022737,21866.42600251592
5003.043031306666,21949.05032108538
5003.069049725905,22158.590101388556
5003.095068280452,21997.100241443197
5003.121086970309,22006.96718864267
5003.147105795477,22051.337000454994
5003.173124755956,21998.94518696976
5003.199143851748,21834.2333451478
5003.225163082852,21967.6432659867
5003.251182449269,21587.17359824799
5003.277201951001,21608.159297372917
5003.3032215880485,21333.784056598583
5003.32924136041,21503.547894063642
5003.35526126809,21394.344095991975
5003.381281311085,21325.51335892242
5003.407301489398,21131.979552625853
5003.433321803031,20859.258499685955
5003.459342251982,20477.38423046875
5003.4853628362525,19843.94479813537
5003.511383555844,19024.223865875338
5003.537404410757,18079.321966550626
5003.563425400991,17344.075087663743
5003.589446526548,16862.95390231425
5003.615467787429,16736.205620002314
5003.641489183634,17092.367927484203
5003.667510715163,17892.02548913283
5003.693532382018,18470.564500529043
5003.719554184199,18982.18773335982
5003.745576121707,19107.79828342624
5003.771598194542,18764.427548777574
5003.797620402706,18238.55501427554
5003.823642746199,17381.610869006734
5003.849665225021,16647.23812299188
5003.875687839174,16143.396208539549
5003.901710588658,15816.865167674327
5003.927733473473,15936.828105147142
5003.953756493622,16589.362649810868
5003.979779649103,17496.133995899432
5004.005802939919,18336.977600582435
5004.031826366068,18984.670369905336
5004.057849927553,19497.77425470957
5004.083873624375,19812.950352120373
5004.109897456533,19668.71581959472
5004.135921424028,19720.54193742128
5004.161945526862,19521.55353578399
5004.187969765035,19615.544580615922
5004.213994138547,19696.148147310083
5004.240018647399,19876.215254241626
5004.266043291592,20380.835429741444
5004.292068071127,20675.662801644583
5004.318092986004,21105.75796261375
5004.344118036223,21594.43515226846
5004.370143221788,21995.42373957172
5004.396168542696,22101.89844751791
5004.422193998949,22043.867961857566
5004.448219590549,22087.622749731123
5004.474245317495,22035.384817135226
5004.500271179789,22038.240436812102
5004.52629717743,21991.119625290194
5004.5523233104195,21969.080369288124
5004.578349578759,21782.226393568053
5004.604375982449,21632.56188631821
5004.630402521489,21244.64418575053
5004.656429195881,21059.889486570064
5004.682456005625,20651.5371657366
5004.708482950721,20475.890581541044
5004.734510031172,20005.225106810554
5004.760537246977,19677.98423019041
5004.7865645981365,19387.56915363067
5004.812592084652,19019.006187915118
5004.838619706525,18725.77170834937
5004.8646474637535,18195.90682243576
5004.890675356341,17195.878545243788
5004.916703384286,16006.640658929944
5004.942731547591,14733.150421124628
5004.968759846256,13460.047475189409
5004.994788280281,12556.498486828772
5005.020816849668,12167.845899687945
5005.046845554417,12663.832110010711
5005.072874394528,13469.128742435438
5005.098903370003,14965.400346096878
5005.124932480842,16734.41452158743
5005.150961727047,17937.64214845335
5005.176991108617,18985.840037769045
5005.203020625552,19648.04183095915
5005.229050277856,19974.114165210976
5005.255080065526,19885.508054856826
5005.281109988566,19405.13587753898
5005.3071400469735,18784.0814482934
5005.333170240751,18045.234159682772
5005.3592005699,17148.525880397858
5005.38523103442,16092.997765199838
5005.411261634312,14901.30700479408
5005.4372923695755,13596.190991121914
5005.463323240213,12183.572911068564
5005.489354246225,10827.077391676114
5005.515385387611,9533.952489917714
5005.541416664373,8501.290911952448
5005.567448076511,8118.738134634019
5005.593479624025,8528.905590574155
5005.619511306918,9188.611940465165
5005.645543125189,10303.401434997902
5005.671575078838,11782.103309649088
5005.697607167867,12828.438874623269
5005.723639392277,13574.965198402397
5005.749671752068,13824.706054698505
5005.77570424724,13574.091990491353
5005.8017368777955,12791.55942893814
5005.8277696437335,11761.291823047355
5005.853802545055,10530.936676762136
5005.879835581762,9061.851858464323
5005.905868753854,7784.139586296703
5005.931902061331,6948.48018345303
5005.957935504196,6512.119604219898
5005.983969082448,6589.056233902865
5006.010002796088,7261.596362075608
5006.036036645117,8586.756518054282
5006.062070629536,10225.786550738405
5006.088104749344,12157.276742967291
5006.114139004544,14158.337288753792
5006.140173395135,15911.397400342588
5006.166207921118,17702.50015766231
5006.192242582495,19071.49594694091
5006.218277379266,20125.6068392297
5006.244312311431,20683.07721683536
5006.270347378991,21050.627249223773
5006.296382581946,21376.21697793855
5006.322417920299,21540.362078252776
5006.348453394048,21507.215437707615
5006.374489003196,21481.408758323654
5006.400524747743,21432.754866334653
5006.426560627688,21378.523903849364
5006.452596643034,21337.49863330015
5006.47863279378,21124.15044816416
5006.504669079928,21101.43104936625
5006.530705501478,21261.220046115886
5006.556742058431,21060.123265763643
5006.582778750788,21187.631491375556
5006.608815578549,21256.593680700706
5006.634852541715,21233.90597347208
5006.660889640287,21258.561539110207
5006.686926874265,20881.93260270777
5006.71296424365,20619.633561530052
5006.739001748444,20574.015803979037
5006.765039388645,19991.06545910911
5006.791077164256,19513.073673900737
5006.817115075277,19116.39649766213
5006.843153121708,18302.201210449577
5006.869191303552,17181.997743158045
5006.895229620806,16122.58235986819
5006.921268073474,14887.310766461142
5006.947306661555,13411.542211507149
5006.97334538505,11751.319123727113
5006.999384243961,10092.980814839693
5007.025423238286,8817.8690910072
5007.051462368028,7666.932643712633
5007.077501633187,7093.923618393137
5007.103541033764,7161.604113585465
5007.129580569759,7687.69725138558
5007.155620241173,8904.793855027745
5007.181660048007,10662.723145672466
5007.207699990262,12507.145042796434
5007.233740067937,14622.86324187727
5007.259780281035,16461.7032257407
5007.285820629555,18019.626875154572
5007.311861113499,19229.211263907313
5007.337901732866,20222.239745471077
5007.363942487658,20869.98311686629
5007.389983377876,21132.93379363818
5007.41602440352,21272.383997559962
5007.442065564591,21060.47133871574
5007.468106861089,20571.86479544954
5007.494148293015,20203.819185279975
5007.520189860371,19809.793488627667
5007.546231563156,19229.583247242426
5007.572273401372,18908.630655592126
5007.598315375018,19069.29131899143
5007.624357484096,19392.422608415538
5007.650399728607,20134.997939692727
5007.676442108551,20935.73298939489
5007.702484623929,21813.41824523298
5007.728527274741,22234.160577558454
5007.754570060989,22353.095479239535
5007.780612982673,22666.348184385053
5007.806656039793,22627.905415444133
5007.832699232351,22754.70603035439
5007.858742560347,22628.342375714685
5007.884786023782,22693.89812847281
5007.910829622656,22608.20576636806
5007.936873356971,22584.052231814807
5007.962917226726,22672.19941161691
5007.988961231923,22880.88141894403
5008.015005372563,23123.91390091946
5008.041049648646,23003.66088754969
5008.067094060171,23049.94355806625
5008.0931386071425,23187.458630101733
5008.119183289558,23079.023916133436
5008.14522810742,23206.427912986517
5008.171273060728,23141.23073642178
5008.197318149483,23124.503919879993
5008.223363373687,23073.28646497883
5008.249408733339,23031.093210516592
5008.27545422844,22824.873213069524
5008.301499858992,22818.96118977702
5008.327545624995,22709.040079844468
5008.353591526448,22538.205842990516
5008.379637563355,22167.794425242188
5008.405683735714,21815.9236262802
5008.431730043527,21623.393825289593
5008.457776486794,21222.11511577529
5008.483823065515,20914.226395904163
5008.509869779693,21002.95321799772
5008.535916629327,21343.919080845804
5008.561963614418,21712.368424157376
5008.588010734968,22128.721442740687
5008.614057990975,22457.989308777127
5008.640105382442,22731.334069588076
5008.666152909369,22914.52532718227
5008.692200571756,22926.888663941223
5008.718248369605,22998.18935606767
5008.744296302916,23062.30799450439
5008.77034437169,22966.9978475323
5008.796392575927,22866.308824189513
5008.822440915628,22793.513748828173
5008.848489390794,22741.97767596053
5008.874538001426,22733.10227512014
5008.900586747524,22983.14904051022
5008.926635629089,23063.942165224376
5008.952684646122,23075.207726255896
5008.978733798623,22925.930700130466
5009.004783086593,22897.153300332982
5009.030832510033,22902.035896875153
5009.056882068944,22869.515418080526
5009.082931763326,22865.867435102093
5009.108981593179,22875.53891180766
5009.135031558506,22919.70981117653
5009.161081659306,22929.808004793056
5009.187131895579,22724.944879116785
5009.213182267327,22569.23969118921
5009.239232774552,22463.364791810483
5009.265283417251,22113.58101953198
5009.291334195428,21792.48670258228
5009.317385109083,21738.28855747603
5009.343436158216,21575.091397261756
5009.369487342828,21186.283060545546
5009.395538662919,20822.125279025116
5009.421590118491,20319.34927855893
5009.447641709544,19690.010063920065
5009.473693436078,19335.1671457205
5009.499745298095,19012.0253377513
5009.525797295596,19196.527069879823
5009.55184942858,19745.972027516025
5009.577901697049,20028.56268443112
5009.603954101003,20688.543131814684
5009.630006640443,21168.870825840793
5009.65605931537,21246.47772914251
5009.682112125784,21307.24549578542
5009.708165071686,20947.81682193475
5009.7342181530785,20486.496745039487
5009.760271369959,19859.688142277257
5009.78632472233,19073.44517307164
5009.812378210192,18171.78616540242
5009.838431833546,17109.018476510028
5009.864485592391,16177.680581339859
5009.890539486731,15562.81745891363
5009.916593516564,15107.289328020575
5009.942647681891,14732.129520529568
5009.968701982713,14514.149953329706
5009.994756419032,14156.515305113611
5010.020810990847,13602.88542298388
5010.046865698159,13350.799189819583
5010.072920540969,13267.047904819014
5010.098975519279,13759.128209024084
5010.125030633087,14933.154655265305
5010.151085882395,16445.099429002683
5010.177141267204,17866.127425452563
5010.2031967875155,19306.551307828537
5010.229252443328,20389.222963828495
5010.255308234644,21185.96728688667
5010.281364161464,21989.19708443341
5010.307420223788,22374.229581799467
5010.333476421617,22735.611146448446
5010.359532754951,22795.57895939921
5010.3855892237925,22778.615371024123
5010.4116458281405,22924.510406305268
5010.437702567997,22960.704838426413
5010.463759443362,22815.21956450042
5010.489816454236,22622.753255831558
5010.51587360062,22464.24578135102
5010.541930882514,22330.279953664307
5010.56798829992,22023.386276251247
5010.5940458528385,21518.42180045865
5010.62010354127,20890.949839732475
5010.646161365214,20058.29076762797
5010.672219324672,19133.344429040717
5010.698277419646,18179.653239683026
5010.724335650135,17121.308107649365
5010.7503940161405,16233.707330096111
5010.7764525176635,15737.424406124399
5010.802511154703,15784.881782726308
5010.828569927262,16305.559825385808
5010.85462883534,17521.46309087414
5010.880687878937,18908.152526527945
5010.906747058056,20263.477497609078
5010.932806372695,21067.775906576266
5010.958865822856,21976.293558367073
5010.98492540854,22404.257519865507
5011.0109851297475,22903.22018744038
5011.0370449864795,22741.456513792236
5011.063104978735,22672.569497611858
5011.089165106517,22695.688063913756
5011.115225369825,22873.23948751914
5011.14128576866,22957.43984018307
5011.167346303022,23019.617106174348
5011.193406972913,23095.33533879556
5011.219467778333,22931.504590010016
5011.2455287192815,22876.836673564198
5011.271589795761,22843.588923778527
5011.297651007772,22768.136963574598
5011.323712355315,22731.709439727587
5011.34977383839,22624.481638517675
5011.375835456999,22498.735956877772
5011.401897211142,22056.038954336935
5011.427959100819,21463.884364154652
5011.454021126031,21124.905645861574
5011.4800832867795,20532.298620290057
5011.506145583065,19866.608791761166
5011.532208014888,19200.753740041288
5011.558270582248,18502.11384011148
5011.584333285148,17923.00730665587
5011.610396123588,17418.37242410174
5011.636459097567,16952.674918763878
5011.662522207088,16476.38841924296
5011.68858545215,15866.7979050795
5011.714648832754,15318.56105601174
5011.740712348902,14173.507010194431
5011.766776000594,12936.538751718923
5011.79283978783,11444.370312265452
5011.818903710611,10021.302095919458
5011.844967768939,8549.397183343195
5011.871031962813,7180.435091714479
5011.897096292234,6300.033824838315
5011.923160757203,5904.548830139358
5011.949225357721,5945.772815648648
5011.975290093788,6531.9271639832195
5012.001354965406,7547.723056179058
5012.027419972574,9029.11895043102
5012.053485115294,10787.46492970972
5012.079550393566,12480.890978008778
5012.105615807392,13995.72968474808
5012.13168135677,15203.527039664277
5012.157747041703,15870.808929545195
5012.183812862192,15923.942328206207
5012.209878818236,15597.61492953955
5012.235944909837,14951.230709874899
5012.262011136994,14171.386128955855
5012.28807749971,13738.111932360127
5012.3141439979845,13840.917288865958
5012.340210631818,14313.968804816952
5012.366277401212,15386.563008115945
5012.392344306166,16594.519324403314
5012.418411346682,17138.006073890545
5012.44447852276,17752.556111503098
5012.470545834401,17977.407813973416
5012.496613281605,17754.38245898104
5012.522680864374,17475.414478146628
5012.548748582707,17381.49212402408
5012.574816436606,17675.711082459104
5012.600884426071,18286.098828741506
5012.626952551104,19319.36550914337
5012.653020811705,20289.586077056847
5012.679089207873,20828.088531283105
5012.705157739611,21475.858609764815
5012.73122640692,21958.435497505678
5012.757295209798,22160.35290241863
5012.7833641482475,22246.76725300179
5012.80943322227,22281.994521518023
5012.835502431864,22223.092463014043
5012.861571777033,21943.059758276857
5012.887641257775,21846.06933007284
5012.9137108740915,21715.649997673496
5012.939780625984,21205.9831262046
5012.965850513452,20679.38557717136
5012.991920536498,19957.955419236238
5013.017990695121,19085.39536473312
5013.044060989323,18105.94965285156
5013.070131419104,16748.556842188504
5013.096201984464,15455.488207993612
5013.122272685405,14382.055005417986
5013.148343521927,13778.295988253552
5013.17441449403,13500.247752845251
5013.200485601717,13894.740322684349
5013.226556844987,14759.049820409937
5013.2526282238405,15600.843509430379
5013.278699738279,16472.928443008117
5013.304771388303,16836.130387887926
5013.330843173913,17108.56367373253
5013.35691509511,16768.389001672393
5013.382987151894,15870.252641994826
5013.409059344267,14702.77442689215
5013.435131672228,13333.821295849166
5013.46120413578,12009.011684149948
5013.487276734921,10615.67432810344
5013.513349469653,9637.162158551651
5013.539422339977,9458.281079950795
5013.565495345894,9506.691136595391
5013.5915684874035,10346.992083115338
5013.617641764507,11836.565221652825
5013.643715177206,13555.02043295882
5013.6697887254995,15107.181015632663
5013.695862409389,16324.389087885065
5013.721936228875,17144.98530863338
5013.748010183958,17599.10611766002
5013.77408427464,17900.494498359858
5013.800158500921,18116.359661546212
5013.826232862801,18110.299073444836
5013.852307360281,17723.281189846213
5013.8783819933615,17124.01895862327
5013.904456762045,16389.514195615375
5013.930531666329,15222.364429685178
5013.956606706218,13664.727220446292
5013.982681881709,11916.317760813972
5014.008757192805,10278.054097347815
5014.034832639507,8880.943549987926
5014.060908221814,7906.884895054909
5014.086983939728,7462.96027602647
5014.113059793249,7758.212429350888
5014.139135782378,8603.79709997751
5014.165211907116,9926.272676885808
5014.1912881674625,11646.281994403287
5014.21736456342,13585.995666407856
