wave,flux
4450.003811362098,17051.8012942615
4450.026953690486,16272.637114013029
4450.050096139227,15382.87961292416
4450.073238708321,14359.202516138008
4450.096381397769,12995.052160573927
4450.119524207569,11516.262938437347
4450.142667137726,10122.04484736176
4450.165810188237,8795.281193766794
4450.188953359103,7632.763632234979
4450.212096650326,6668.389567157896
4450.2352400619075,6002.259068544048
4450.258383593846,5375.430510038297
4450.281527246142,4860.540371609282
4450.304671018797,4520.331164174576
4450.327814911813,4103.203284263917
4450.350958925188,3960.995131119886
4450.374103058924,4062.883972449009
4450.3972473130225,4418.646167984428
4450.420391687483,5060.443042170586
4450.443536182305,5950.226499484799
4450.466680797492,7132.6977272578015
4450.489825533042,8210.836048181935
4450.512970388957,9297.59116961796
4450.536115365237,9960.623544705759
4450.559260461882,10222.576826620476
4450.582405678895,10221.429772218627
4450.605551016274,9873.407970065768
4450.628696474022,10031.947894204015
4450.651842052138,10353.937414703694
4450.674987750623,10778.719903130459
4450.698133569476,11028.109384025356
4450.721279508702,11516.958139259854
4450.744425568297,11948.855022925289
4450.767571748264,12323.848952415383
4450.790718048604,13137.605690165967
4450.813864469315,14435.70300495827
4450.837011010401,15602.801496748629
4450.86015767186,16961.34309750355
4450.883304453694,18496.602362089507
4450.906451355903,19563.07459157677
4450.929598378489,20279.21281717951
4450.95274552145,20683.243182542963
4450.975892784789,20966.823034631096
4450.999040168505,21210.112631694938
4451.022187672601,21235.259850077837
4451.045335297074,21242.365905538776
4451.068483041929,20930.218854531096
4451.091630907163,20794.244089319745
4451.114778892777,20675.291502588032
4451.137926998774,20360.024831253322
4451.161075225153,19805.276025148505
4451.184223571914,19363.128388046312
4451.207372039059,18822.678447035552
4451.230520626587,17954.280855887955
4451.253669334501,17198.750913419768
4451.2768181628,16127.06193129144
4451.299967111485,15084.010281127803
4451.323116180556,13773.859069178165
4451.346265370014,12285.110643673846
4451.369414679861,10950.412828218503
4451.392564110095,9326.752121503123
4451.415713660719,8411.20228396459
4451.438863331732,7576.783816166175
4451.462013123136,7571.623266235425
4451.48516303493,8250.023152739079
4451.508313067117,9434.256412063412
4451.531463219695,11083.14661170166
4451.554613492666,12827.624243238524
4451.577763886031,14628.38563592503
4451.60091439979,16167.381721866182
4451.624065033943,17549.16178966382
4451.647215788492,18400.09592131591
4451.670366663436,18621.208081419994
4451.693517658777,18640.86450595918
4451.716668774516,18354.899513927714
4451.739820010652,17615.79725694447
4451.762971367186,16697.938082720848
4451.78612284412,15843.791641557189
4451.8092744414525,14775.449626035535
4451.832426159187,13647.39798740506
4451.855577997321,13017.408150656496
4451.878729955857,12691.518169336696
4451.901882034796,12898.377956802886
4451.925034234137,13792.723540105691
4451.948186553881,14846.241409800661
4451.97133899403,16122.595558177558
4451.994491554583,17328.30313591583
4452.017644235542,18182.499161748972
4452.040797036907,18949.91541485062
4452.063949958678,19738.374556834868
4452.087103000857,20251.71612702146
4452.1102561634425,20817.964678066473
4452.133409446437,20807.782358820376
4452.156562849841,21091.737076292786
4452.179716373655,21105.389854509907
4452.202870017878,21194.440949290478
4452.226023782513,21023.404871787752
4452.24917766756,20775.36791098784
4452.272331673018,20498.897366811463
4452.29548579889,20175.922704000233
4452.318640045174,19546.968075022185
4452.341794411874,18933.067588110513
4452.364948898987,18251.466366601042
4452.388103506516,17125.83795691465
4452.4112582344615,16435.162583757723
4452.434413082823,15521.965032776652
4452.457568051602,14806.813678595594
4452.480723140799,14055.709429562972
4452.503878350413,13321.68947027506
4452.527033680448,12861.661413413132
4452.550189130902,12530.795826711348
4452.5733447017765,12299.641110970817
4452.596500393071,12258.351062005195
4452.619656204789,12584.280865117436
4452.642812136928,13098.724980287649
4452.66596818949,13877.49544524591
4452.689124362475,14771.529539462963
4452.7122806558855,15638.759147430013
4452.735437069719,16141.679389855364
4452.7585936039795,16101.58170589077
4452.781750258665,15808.352401359018
4452.804907033777,15149.069813228003
4452.828063929317,14459.30217875352
4452.851220945285,13776.170988671553
4452.87437808168,13194.646773820043
4452.897535338506,13345.014766619448
4452.92069271576,13828.376869063053
4452.943850213445,14505.326518351505
4452.967007831562,15273.35698918007
4452.99016557011,15919.180464265879
4453.01332342909,16108.433259933323
4453.036481408502,15643.153235223659
4453.059639508349,15022.604968347392
4453.08279772863,14339.64157416149
4453.105956069345,13440.6666237559
4453.129114530496,12546.237060299118
4453.152273112083,11741.911379572237
4453.175431814107,11072.40553722633
4453.198590636567,11141.927674523278
4453.221749579466,11767.356724132569
4453.244908642802,13146.272037883931
4453.268067826579,14553.463844060056
4453.291227130795,16090.373012363509
4453.314386555451,17361.691022412007
4453.337546100549,18169.46845984079
4453.360705766087,18845.48377951751
4453.3838655520685,18955.47160369064
4453.407025458493,18880.53706846365
4453.430185485361,18650.169598519748
4453.453345632673,18274.51747296243
4453.476505900429,17692.860168046187
4453.4996662886315,16877.58286729959
4453.52282679728,15946.930518052597
4453.545987426375,15261.108451420205
4453.569148175917,14875.149746455423
4453.592309045907,14816.481622290008
4453.615470036346,15142.574150913568
4453.638631147233,16063.612295301553
4453.661792378571,17063.668810410683
4453.684953730359,17854.3800869806
4453.708115202598,18588.214949871337
4453.731276795288,19279.560843768788
4453.754438508431,19756.9470028517
4453.777600342027,20024.07249025621
4453.800762296077,20212.889699877393
4453.82392437058,20381.4435996237
4453.847086565538,20499.108281138084
4453.870248880952,20655.14911913027
4453.8934113168225,20769.96316377959
4453.916573873149,20615.264580689003
4453.939736549933,20218.150272239818
4453.962899347174,19666.957212965175
4453.986062264875,19224.510598874233
4454.009225303034,18700.99135041694
4454.032388461654,17922.829879399113
4454.055551740734,16995.48098615607
4454.078715140275,15918.513841642158
4454.101878660277,15060.993935493923
4454.125042300742,13524.65699863232
4454.14820606167,12171.81336301458
4454.171369943061,10681.591874930418
4454.194533944917,9117.062741431668
4454.2176980672375,7797.880995796158
4454.240862310024,6911.143178697936
4454.264026673275,6560.702129654828
4454.287191156994,6833.123869874656
4454.31035576118,7552.211999155384
4454.333520485834,8642.611556987842
4454.356685330957,9754.850232119617
4454.379850296548,10599.459685718433
4454.40301538261,11128.009462539887
4454.426180589142,10932.405673858142
4454.449345916145,10369.29496469836
4454.4725113636205,9409.782586168154
4454.495676931568,8423.417418059526
4454.5188426199875,6948.084659115694
4454.542008428882,6014.5931619393
4454.565174358249,5086.759762705869
4454.588340408092,4510.3147794576125
4454.611506578411,4030.4309554365927
4454.634672869205,3855.4405340781486
4454.657839280476,3838.444123555865
4454.681005812225,4172.044050461316
4454.704172464451,4702.014307468474
4454.727339237156,5489.733815057652
4454.750506130341,6339.726263112001
4454.773673144005,7248.507809818265
4454.79684027815,8016.163001940886
4454.820007532776,8274.898436020965
4454.843174907884,8379.218891553537
4454.866342403473,8323.362742418354
4454.889510019546,8248.424982473456
4454.912677756102,8734.228370991988
4454.935845613144,9801.00630510724
4454.959013590669,10805.694590706918
4454.982181688681,11832.39544084196
4455.005349907178,12778.540696866894
4455.028518246162,13286.114792052722
4455.051686705633,13308.711825004313
4455.074855285593,12904.22337190412
4455.098023986041,12244.872587299253
4455.121192806979,11256.84400016884
4455.144361748406,10274.607661226812
4455.167530810323,9721.99537226479
4455.190699992732,9624.88827929166
4455.213869295633,10135.881969804163
4455.237038719026,11391.808259555555
4455.260208262912,12988.842895892534
4455.283377927292,14556.82549303892
4455.306547712166,16190.786249971476
4455.329717617535,17439.63654061841
4455.352887643399,18045.732469858303
4455.37605778976,18273.255115180764
4455.399228056617,18205.55225778652
4455.422398443972,17860.968839640027
4455.445568951825,17332.463623268162
4455.468739580177,16650.65782246935
4455.491910329028,15678.490948632576
4455.515081198378,14669.232566406861
4455.538252188229,13799.682550899717
4455.561423298582,13060.482077387429
4455.584594529436,12058.450650469138
4455.607765880793,11097.464471260604
4455.630937352652,10001.730974150627
4455.654108945016,8737.702759093767
4455.677280657883,7483.300082926299
4455.700452491255,6526.060798965373
4455.723624445134,5811.949710474969
4455.746796519518,5499.244102778224
4455.7699687144095,5787.273205919728
4455.793141029808,6512.88842828822
4455.816313465714,7893.722962443324
4455.83948602213,9357.334366378147
4455.862658699055,11336.336633266059
4455.885831496489,13169.52231592546
4455.909004414434,14884.102657294727
4455.932177452891,15894.607287066263
4455.955350611858,16751.606748096812
4455.978523891339,17278.37411062135
4456.001697291333,17290.47657291113
4456.024870811841,17174.562098739254
4456.048044452862,16895.731043711134
4456.071218214399,16339.811168634338
4456.094392096451,15634.499652045828
4456.117566099019,14656.150757040416
4456.140740222105,13305.62218495083
4456.163914465707,11961.895782190872
4456.187088829828,10705.258481232502
4456.210263314468,9606.85931890478
4456.233437919626,9321.559881988524
4456.256612645306,9588.085415657515
4456.279787491505,9988.251467882026
4456.302962458226,10625.28381124192
4456.326137545469,11642.581540411995
4456.349312753233,12318.950481229915
4456.372488081522,12604.41723041053
4456.395663530333,12473.602969944703
4456.41883909967,11993.655357107451
4456.442014789531,11335.399840041737
4456.465190599917,10376.746232030218
4456.488366530831,9814.666189969135
4456.5115425822705,9862.653261259828
4456.5347187542375,10510.935290273366
4456.557895046733,11406.05641895997
4456.581071459757,13382.271415050373
4456.604247993311,14910.333206672762
4456.627424647395,16468.565529478998
4456.650601422009,17351.545505934366
4456.673778317154,18452.15421034294
4456.696955332832,18929.07421273097
4456.720132469041,18684.348777147254
4456.7433097257845,18416.092617369275
4456.766487103061,18055.18800195067
4456.789664600872,17694.8244976071
4456.8128422192185,17141.807966934513
4456.8360199581,16464.07478875367
4456.859197817518,15707.829515377924
4456.882375797473,15067.13670509061
4456.905553897966,14741.984218056332
4456.928732118997,14866.2990806055
4456.951910460566,15143.771866017254
4456.975088922674,15971.120462388855
4456.998267505323,16729.821251628488
4457.021446208513,17295.093157296822
4457.044625032244,17760.276575828117
4457.067803976516,17651.298365232193
4457.090983041332,17476.277783798658
4457.1141622266905,17099.264731351737
4457.1373415325925,16358.868024911158
4457.160520959039,15619.572827849672
4457.183700506031,14443.943478662772
4457.206880173568,13119.239409265976
4457.230059961651,11577.743388168077
4457.2532398702815,10085.033034566355
4457.27641989946,8758.697606032798
4457.299600049186,7802.896900003784
4457.322780319461,7218.435915933743
4457.345960710286,7218.544284539134
4457.36914122166,7645.802461099114
4457.392321853586,8289.044177995413
4457.415502606062,9332.387605550392
4457.43868347909,10682.111659609593
4457.461864472672,12197.300175992708
4457.485045586805,13960.087781189326
4457.508226821494,15570.281969002152
4457.5314081767365,16898.624219371177
4457.554589652534,17778.31210983236
4457.577771248887,18135.923720064402
4457.600952965797,18095.70640759263
4457.624134803263,17986.429397349988
4457.647316761288,17817.70142542751
4457.67049883987,17662.39753708958
4457.693681039011,17668.757268696514
4457.716863358712,17577.03153201454
4457.7400457989725,17494.74182027135
4457.763228359793,17110.99955359958
4457.7864110411765,16557.320716525828
4457.809593843121,15697.34928125997
4457.832776765628,14702.277210745417
4457.855959808699,13690.627727137226
4457.879142972333,12575.38924895653
4457.902326256532,11461.339149838253
4457.925509661296,10303.24343448721
4457.948693186626,9454.931900203479
4457.971876832522,9031.015157029895
4457.995060598985,8957.368440037488
4458.018244486016,9400.15165777091
4458.041428493615,9707.654103972553
4458.0646126217825,9791.404085845672
4458.08779687052,9898.950502007165
4458.110981239827,9974.007148438353
4458.134165729705,10236.60792136695
4458.157350340155,10966.327972688952
4458.180535071177,12162.890312124786
4458.203719922771,13338.520454626238
4458.226904894938,14244.16306962136
4458.2500899876795,14952.469773955032
4458.273275200995,15282.622230565777
4458.296460534886,14967.811694233127
4458.3196459893525,14240.899163878308
4458.342831564396,13380.817285285171
4458.366017260016,12564.536978781032
4458.389203076214,12116.208671946779
4458.4123890129895,12289.962823206288
4458.435575070344,12922.974685327423
4458.458761248279,14075.16102735816
4458.481947546794,15379.6865439263
4458.505133965889,16726.272738026255
4458.528320505566,18149.022211286476
4458.551507165825,18840.28334898123
4458.574693946666,19054.239546088796
4458.597880848091,19141.96391599061
4458.6210678701,18956.869571275598
4458.644255012693,18616.099826165027
4458.6674422758715,18166.713135657705
4458.690629659636,17368.230471612773
4458.713817163986,16396.266741410975
4458.737004788924,15326.727436317544
4458.76019253445,14107.67280697338
4458.783380400563,12837.697249673178
4458.8065683872655,11346.17605243702
4458.829756494558,9995.215867474531
4458.85294472244,8522.801269216101
4458.876133070914,6996.919264081382
4458.899321539979,5766.334963083794
4458.922510129635,4782.00485787032
4458.945698839884,4040.8821069298197
4458.968887670727,3805.708609935882
4458.992076622164,3886.1116873621877
4459.015265694195,4219.482689687033
4459.0384548868215,4909.539556783575
4459.061644200044,5672.802370708587
4459.084833633862,6555.727500035504
4459.108023188278,7592.786028411016
4459.131212863292,8569.614231665126
4459.154402658904,9111.760480577974
4459.177592575114,9411.28785993652
4459.200782611925,9791.319413008392
4459.223972769336,10271.718311640007
4459.247163047347,10959.90526515892
4459.27035344596,11973.549593288135
4459.293543965176,13522.211078886252
4459.316734604993,15243.90033426998
4459.339925365414,16794.598825610476
4459.363116246439,17847.76846747374
4459.386307248069,18482.563533172688
4459.409498370304,19145.390623344683
4459.432689613145,19204.218487504913
4459.455880976592,18780.23825370709
4459.479072460647,18356.279825716643
4459.502264065309,17749.34285831066
4459.52545579058,16971.039885545044
4459.5486476364595,15971.147757976694
4459.571839602949,14978.450706228074
4459.595031690048,14097.498651555776
4459.618223897759,13606.885826733389
4459.641416226081,13746.973611744097
4459.664608675014,14255.150080616842
4459.687801244561,15243.681155667806
4459.710993934721,16374.499018369734
4459.734186745496,17483.59247652856
4459.757379676885,18429.963736910333
4459.780572728889,18806.55531701829
4459.803765901509,19042.227469461777
4459.8269591947455,19089.069725904075
4459.850152608599,18688.152816653997
4459.87334614307,18184.027672513
4459.89653979816,17571.13370953792
4459.91973357387,16766.38522580803
4459.942927470198,15640.089568045312
4459.966121487147,14354.827673416774
4459.989315624717,12936.237146204023
4460.0125098829085,11289.731554789532
4460.035704261722,9741.137406326605
4460.058898761158,8477.969580101655
4460.082093381218,7615.950639165955
4460.105288121902,7140.56237449352
4460.12848298321,7070.039809990757
4460.151677965145,7642.576711300143
4460.1748730677045,8531.601555972924
4460.198068290891,9672.354782161643
4460.221263634704,11175.105293476145
4460.244459099145,12609.770250718442
4460.267654684215,14291.898425915217
4460.290850389914,15845.399502804512
4460.314046216243,17266.784927383917
4460.337242163202,18448.38638204591
4460.360438230791,19303.4697468946
4460.383634419013,19963.62915879445
4460.406830727867,20277.824465890943
4460.430027157354,20262.268173186898
4460.453223707474,20392.873229537185
4460.476420378228,20593.038263636547
4460.499617169617,20560.832969612253
4460.522814081641,20482.949002130183
4460.5460111143,20250.218956503963
4460.569208267598,19933.01412186156
4460.592405541532,19454.426001836327
4460.615602936104,19054.128835471914
4460.638800451314,18848.16732219824
4460.661998087163,18602.151560011353
4460.685195843652,18504.213322109208
4460.708393720782,18706.729552605524
4460.731591718552,18580.048723195592
4460.754789836965,18437.44317630933
4460.777988076019,18065.92304973469
4460.801186435716,17363.918373773085
4460.824384916057,16675.955863155657
4460.847583517042,15432.339854842437
4460.870782238671,14059.644256955988
4460.893981080947,12481.445191733877
4460.917180043868,10909.295104380331
4460.940379127435,9446.712329853452
4460.963578331651,8220.397612503712
4460.986777656513,7233.684092852111
4461.009977102025,6653.151439327554
4461.033176668186,6357.922231542277
4461.056376354995,6389.027055509757
4461.079576162457,6592.011684771852
4461.102776090568,6970.944109294283
4461.125976139332,7545.219974193737
4461.149176308748,8133.93198778187
4461.172376598816,8699.724304412282
4461.195577009538,8797.801867602957
4461.218777540915,8824.22663268811
4461.241978192946,8173.329757865254
4461.265178965633,7711.3601077862695
4461.2883798589755,7233.128736745548
4461.311580872974,6729.050824846934
4461.3347820076315,6700.077767294001
4461.357983262946,6728.586819745056
4461.381184638919,6827.515197727337
4461.404386135551,6741.776679977598
4461.4275877528435,6350.930485832671
4461.4507894907965,5723.3849867665485
4461.4739913494095,5132.241443558535
4461.497193328685,4555.4404080795075
4461.520395428623,4304.783441807806
4461.543597649224,4243.200429893148
4461.566799990488,4638.809148784963
4461.590002452416,5491.294456497339
4461.61320503501,6736.140394331169
4461.636407738269,7966.315533315686
4461.659610562193,9310.028755148476
4461.682813506784,10527.657082641872
4461.706016572044,11240.452473842708
4461.729219757971,11661.454192290134
4461.752423064566,11133.79847390417
4461.775626491831,10330.474519200921
4461.798830039766,9450.279540825908
4461.82203370837,8254.248412518977
4461.845237497647,7523.977971732116
4461.868441407595,7107.40943750394
4461.891645438215,7074.072254020062
4461.914849589509,7765.253770427684
4461.938053861475,8919.17640954555
4461.961258254117,10283.894556981113
4461.984462767433,11616.38978984305
4462.007667401424,12727.670134966691
4462.030872156092,13319.954211271697
4462.0540770314365,13713.679230366757
4462.077282027459,13977.630967814057
4462.100487144158,14164.599241839454
4462.123692381537,14261.361596320245
4462.146897739594,14341.578118991083
4462.170103218332,13915.068362553457
4462.19330881775,13334.584718957556
4462.21651453785,12346.301025178342
4462.239720378631,11327.434531338453
4462.262926340095,10278.22132414589
4462.286132422241,9558.551725849053
4462.309338625071,9349.098826395752
4462.3325449485865,9570.001285142693
4462.355751392785,10471.832468088487
4462.3789579576705,11959.453091380445
4462.402164643242,13652.109152467889
4462.4253714495,15250.074500853194
4462.448578376446,16565.96966026981
4462.471785424079,17668.717229371705
4462.494992592401,18187.92135796123
4462.518199881412,18116.719380964474
4462.541407291114,18027.626419820106
4462.564614821506,17751.814780909997
4462.587822472589,17500.63427196578
4462.611030244365,17169.992991065265
4462.634238136832,16889.595724411534
4462.657446149992,16835.190165229113
