wave,flux
4450.003811362098,14270.189619253551
4450.026953690486,13828.259387404409
4450.050096139227,12945.37318917459
4450.073238708321,12195.643072473045
4450.096381397769,11273.585436973874
4450.119524207569,10026.834418636901
4450.142667137726,8950.602719839839
4450.165810188237,7775.2259430154145
4450.188953359103,6666.825974180144
4450.212096650326,5862.72117266034
4450.2352400619075,5154.6668099304925
4450.258383593846,4605.466007370972
4450.281527246142,4183.6233438644895
4450.304671018797,3830.857485103417
4450.327814911813,3492.6617213764607
4450.350958925188,3261.5865881064447
4450.374103058924,3301.3275543699524
4450.3972473130225,3389.5723723803812
4450.420391687483,3735.6558529482163
4450.443536182305,4480.412518210488
4450.466680797492,5252.489396723837
4450.489825533042,6262.884739586042
4450.512970388957,7237.776522329024
4450.536115365237,7744.4000896032
4450.559260461882,8143.568234246862
4450.582405678895,8217.173546828633
4450.605551016274,8530.405249234165
4450.628696474022,8179.914492050261
4450.651842052138,8203.424271609492
4450.674987750623,8510.677001711325
4450.698133569476,8838.229378570428
4450.721279508702,9218.395364745216
4450.744425568297,9590.7246043511
4450.767571748264,9818.349424632734
4450.790718048604,10316.31207943061
4450.813864469315,11093.466804819109
4450.837011010401,12109.565011985354
4450.86015767186,13234.758903741873
4450.883304453694,14447.409608721451
4450.906451355903,15698.644517621537
4450.929598378489,16408.007743003738
4450.95274552145,16752.806989293178
4450.975892784789,16925.7401619759
4450.999040168505,17104.38722661071
4451.022187672601,17393.67982757357
4451.045335297074,17388.859451673994
4451.068483041929,17475.652447778353
4451.091630907163,17305.19159242628
4451.114778892777,17009.66214700711
4451.137926998774,16716.007698319132
4451.161075225153,16537.7824137829
4451.184223571914,16052.556259032068
4451.207372039059,15501.35257373876
4451.230520626587,15059.398354206758
4451.253669334501,14451.720569428962
4451.2768181628,13633.428459824536
4451.299967111485,12877.299682242943
4451.323116180556,11790.118294301872
4451.346265370014,10468.00837618146
4451.369414679861,9450.27728150071
4451.392564110095,8384.36871424226
4451.415713660719,7272.326227620608
4451.438863331732,6540.1526190502145
4451.462013123136,6263.261262333066
4451.48516303493,6440.585073834521
4451.508313067117,7106.899991139091
4451.531463219695,8273.506023561837
4451.554613492666,9509.694483576866
4451.577763886031,11070.395929590279
4451.60091439979,12498.381096909738
4451.624065033943,13691.317944905282
4451.647215788492,14517.103863701566
4451.670366663436,14924.679944788302
4451.693517658777,15044.236984553645
4451.716668774516,15049.117622319109
4451.739820010652,14641.505660857702
4451.762971367186,14014.92412090008
4451.78612284412,13420.190632081843
4451.8092744414525,12558.099454184028
4451.832426159187,11722.45932799973
4451.855577997321,10979.26839232562
4451.878729955857,10526.853559340181
4451.901882034796,10724.726630819654
4451.925034234137,11000.363996079355
4451.948186553881,11606.502107295193
4451.97133899403,12638.970868929518
4451.994491554583,13605.441702550046
4452.017644235542,14406.4699257085
4452.040797036907,15291.87863202102
4452.063949958678,15959.375203006504
4452.087103000857,16460.029884260683
4452.1102561634425,16903.013623318126
4452.133409446437,17147.826420225236
4452.156562849841,17421.543782820274
4452.179716373655,17265.913768883976
4452.202870017878,17137.385692255408
4452.226023782513,17281.552020779385
4452.24917766756,17160.662710658657
4452.272331673018,16800.500636357272
4452.29548579889,16690.47862921904
4452.318640045174,16274.088306734086
4452.341794411874,15753.185395032768
4452.364948898987,15289.637423563467
4452.388103506516,14382.47197941967
4452.4112582344615,13818.728682930496
4452.434413082823,13143.051971463963
4452.457568051602,12178.283425928224
4452.480723140799,11610.125537543017
4452.503878350413,11233.485183345134
4452.527033680448,10788.955026670073
4452.550189130902,10462.21231366614
4452.5733447017765,10182.420777265937
4452.596500393071,10032.240915254337
4452.619656204789,10008.370431102006
4452.642812136928,10383.665768647772
4452.66596818949,11079.869462907165
4452.689124362475,11672.329431446646
4452.7122806558855,12246.755654584698
4452.735437069719,12789.262580175471
4452.7585936039795,12997.150269698623
4452.781750258665,12955.774143899822
4452.804907033777,12707.516861517463
4452.828063929317,12224.207477256923
4452.851220945285,11570.061441160646
4452.87437808168,10980.881797975631
4452.897535338506,10917.860883723215
4452.92069271576,11185.151477866613
4452.943850213445,11579.599028835613
4452.967007831562,12032.368247024506
4452.99016557011,12513.483199883736
4453.01332342909,12811.076066707805
4453.036481408502,12753.14425152336
4453.059639508349,12423.843008981456
4453.08279772863,12019.77620882462
4453.105956069345,11522.367809148815
4453.129114530496,10778.645070552193
4453.152273112083,9991.530252730357
4453.175431814107,9447.25148621811
4453.198590636567,9011.803359782685
4453.221749579466,9390.621619773983
4453.244908642802,10052.008398274174
4453.268067826579,11116.602244829925
4453.291227130795,12333.72272800105
4453.314386555451,13505.081294010472
4453.337546100549,14505.093243461735
4453.360705766087,15139.648563955718
4453.3838655520685,15235.664825816006
4453.407025458493,15543.928708716277
4453.430185485361,15398.51774495635
4453.453345632673,15117.802062688068
4453.476505900429,14780.70010633104
4453.4996662886315,14150.873127259249
4453.52282679728,13590.239265817181
4453.545987426375,13018.342064079472
4453.569148175917,12363.94037734523
4453.592309045907,12035.393840009046
4453.615470036346,12251.706165362104
4453.638631147233,12722.51799682301
4453.661792378571,13547.700929271145
4453.684953730359,14246.21818419092
4453.708115202598,15011.087948792809
4453.731276795288,15615.040891868352
4453.754438508431,15951.969217862954
4453.777600342027,16321.969840777301
4453.800762296077,16600.19937854337
4453.82392437058,16732.178457770042
4453.847086565538,16818.08615207967
4453.870248880952,16930.65369525626
4453.8934113168225,16843.68128151984
4453.916573873149,16673.451165872513
4453.939736549933,16583.60145949076
4453.962899347174,16385.30238912548
4453.986062264875,16029.754677283498
4454.009225303034,15531.158784654874
4454.032388461654,15073.402684193536
4454.055551740734,14435.262023346186
4454.078715140275,13612.542474807522
4454.101878660277,12646.870290286211
4454.125042300742,11494.59740299653
4454.14820606167,10515.300874851711
4454.171369943061,9260.975608504405
4454.194533944917,7975.763953561524
4454.2176980672375,6959.908578234051
4454.240862310024,6109.0245743945325
4454.264026673275,5614.768957623007
4454.287191156994,5459.113584231548
4454.31035576118,5680.680088813982
4454.333520485834,6485.525617159269
4454.356685330957,7326.692809699624
4454.379850296548,7998.457017173169
4454.40301538261,8592.367892449465
4454.426180589142,8804.89610208229
4454.449345916145,8613.62163824663
4454.4725113636205,8007.038795027394
4454.495676931568,7335.146948785149
4454.5188426199875,6302.825888618518
4454.542008428882,5317.398972446923
4454.565174358249,4654.82478875984
4454.588340408092,3935.2414283137705
4454.611506578411,3488.36239824349
4454.634672869205,3245.621690033251
4454.657839280476,3155.7615248573193
4454.681005812225,3271.547118411226
4454.704172464451,3547.430572597283
4454.727339237156,4008.7840963034732
4454.750506130341,4721.320563080769
4454.773673144005,5426.190449738166
4454.79684027815,5937.564345875901
4454.820007532776,6407.658401992129
4454.843174907884,6581.30199615535
4454.866342403473,6697.838939904133
4454.889510019546,6786.371502820159
4454.912677756102,7080.016654377529
4454.935845613144,7577.477421744339
4454.959013590669,8325.305919768673
4454.982181688681,9097.505450414894
4455.005349907178,10011.935417412635
4455.028518246162,10667.619374108273
4455.051686705633,10783.996971703718
4455.074855285593,10692.346551169863
4455.098023986041,10233.974150927728
4455.121192806979,9533.779692437203
4455.144361748406,8751.321590630994
4455.167530810323,8219.143646165187
4455.190699992732,7955.364559715541
4455.213869295633,8123.215558409645
4455.237038719026,8765.079311098476
4455.260208262912,9881.428289134341
4455.283377927292,11050.652254480829
4455.306547712166,12413.750376268063
4455.329717617535,13507.708447081632
4455.352887643399,14285.28593471197
4455.37605778976,14814.82685384841
4455.399228056617,14924.659113611535
4455.422398443972,14884.292493908872
4455.445568951825,14530.411859405087
4455.468739580177,13913.452765932698
4455.491910329028,13156.114584050554
4455.515081198378,12390.79295262214
4455.538252188229,11437.378807065845
4455.561423298582,10801.926183879785
4455.584594529436,10250.747985324575
4455.607765880793,9528.495007833053
4455.630937352652,8712.587644056019
4455.654108945016,7716.944507521599
4455.677280657883,6680.3800928828
4455.700452491255,5782.6901271525985
4455.723624445134,5054.305142818779
4455.746796519518,4702.985402936511
4455.7699687144095,4765.988528467121
4455.793141029808,5056.751313277963
4455.816313465714,5769.266794563691
4455.83948602213,6968.54924934716
4455.862658699055,8434.789142872018
4455.885831496489,9932.645659669442
4455.909004414434,11282.924919917148
4455.932177452891,12381.070208785906
4455.955350611858,13211.186428445722
4455.978523891339,13826.330010160116
4456.001697291333,14113.254265288273
4456.024870811841,14311.981921923016
4456.048044452862,14214.427265179034
4456.071218214399,13589.92662208647
4456.094392096451,13138.76002622451
4456.117566099019,12326.182565275174
4456.140740222105,11291.554405234165
4456.163914465707,10458.356953504337
4456.187088829828,9377.336543177047
4456.210263314468,8391.948180960619
4456.233437919626,7908.32666679146
4456.256612645306,7698.601433986347
4456.279787491505,7830.701518356656
4456.302962458226,8331.899833924244
4456.326137545469,9007.356877119448
4456.349312753233,9665.41464914751
4456.372488081522,10016.152654428151
4456.395663530333,10135.695012059663
4456.41883909967,10016.303784558631
4456.442014789531,9420.735631302095
4456.465190599917,8931.82810739886
4456.488366530831,8382.611120616753
4456.5115425822705,8122.304686380817
4456.5347187542375,8267.821414133436
4456.557895046733,9259.958204853046
4456.581071459757,10374.215798650359
4456.604247993311,11559.248806805701
4456.627424647395,12691.24786283162
4456.650601422009,13925.548546169925
4456.673778317154,14602.42455217701
4456.696955332832,15224.401098585313
4456.720132469041,15341.418330665123
4456.7433097257845,15141.841154738475
4456.766487103061,15048.352576613848
4456.789664600872,14598.791192726996
4456.8128422192185,14198.022137734331
4456.8360199581,13754.294641477829
4456.859197817518,13261.973319670731
4456.882375797473,12927.755793274644
4456.905553897966,12426.157434864297
4456.928732118997,12265.990283628425
4456.951910460566,12210.083635361434
4456.975088922674,12678.506825718427
4456.998267505323,13455.734024826363
4457.021446208513,14054.237881040897
4457.044625032244,14379.319224086858
4457.067803976516,14471.118690825195
4457.090983041332,14580.984057053049
4457.1141622266905,14119.727169165346
4457.1373415325925,13685.161410308947
4457.160520959039,13120.969499707388
4457.183700506031,12191.021024403324
4457.206880173568,11162.579528732218
4457.230059961651,10195.400896497686
4457.2532398702815,9061.041550873291
4457.27641989946,7892.479712280789
4457.299600049186,6928.512026819553
4457.322780319461,6223.647627706175
4457.345960710286,5963.4924853333605
4457.36914122166,6112.7442288983075
4457.392321853586,6430.918388900562
4457.415502606062,7203.188988459014
4457.43868347909,8210.21084571755
4457.461864472672,9328.326091506304
4457.485045586805,10671.103688580602
4457.508226821494,12018.06432321925
4457.5314081767365,13184.437994784283
4457.554589652534,13924.542197005001
4457.577771248887,14519.916340456462
4457.600952965797,14905.717901931675
4457.624134803263,14795.701254286178
4457.647316761288,14566.104756392344
4457.67049883987,14536.95083704571
4457.693681039011,14533.440424187864
4457.716863358712,14344.350516185486
4457.7400457989725,14402.348872113824
4457.763228359793,14132.895643245183
4457.7864110411765,13642.47759155332
4457.809593843121,13060.014577038994
4457.832776765628,12400.788869418082
4457.855959808699,11556.777982320034
4457.879142972333,10662.418211214119
4457.902326256532,9843.039454230982
4457.925509661296,8871.00440940356
4457.948693186626,8131.542073604432
4457.971876832522,7778.00558002461
4457.995060598985,7453.748776574955
4458.018244486016,7566.575046351366
4458.041428493615,7704.18600681391
4458.0646126217825,7887.763868912122
4458.08779687052,8082.848219852599
4458.110981239827,8082.893361764686
4458.134165729705,8162.5578634987105
4458.157350340155,8631.763792023758
4458.180535071177,9418.429603686282
4458.203719922771,10314.614055378821
4458.226904894938,11112.186985057839
4458.2500899876795,11723.490774005846
4458.273275200995,12239.626548221264
4458.296460534886,12321.878929140501
4458.3196459893525,11885.649381395626
4458.342831564396,11236.824522803376
4458.366017260016,10710.200523286028
4458.389203076214,10389.71127822788
4458.4123890129895,10140.700493127342
4458.435575070344,10308.642512749368
4458.458761248279,10993.36767101847
4458.481947546794,11943.646226568002
4458.505133965889,13177.490781473261
4458.528320505566,14225.993684604953
4458.551507165825,14985.361941781315
4458.574693946666,15453.575775418843
4458.597880848091,15654.472903788994
4458.6210678701,15658.834382493013
4458.644255012693,15508.217092046447
4458.6674422758715,15077.906996567413
4458.690629659636,14506.447931008925
4458.713817163986,13729.98628195207
4458.737004788924,12889.474075447535
4458.76019253445,12144.703294081353
4458.783380400563,11080.897069689796
4458.8065683872655,9978.130261673981
4458.829756494558,8816.246168829186
4458.85294472244,7551.537864554479
4458.876133070914,6327.096803610659
4458.899321539979,5201.042003042764
4458.922510129635,4298.159720052253
4458.945698839884,3559.0960665419475
4458.968887670727,3211.052248947877
4458.992076622164,3174.584173280225
4459.015265694195,3199.3781567799792
4459.0384548868215,3581.6950940991696
4459.061644200044,4213.660320735021
4459.084833633862,4856.122679554381
4459.108023188278,5598.1521011901805
4459.131212863292,6410.002798381524
4459.154402658904,6984.034503434977
4459.177592575114,7443.054309570948
4459.200782611925,7849.163168412206
4459.223972769336,8086.042497887603
4459.247163047347,8552.137065028704
4459.27035344596,9333.074560635308
4459.293543965176,10376.140047209228
4459.316734604993,11720.955860527916
4459.339925365414,12881.366425545837
4459.363116246439,13953.502394310026
4459.386307248069,14868.837280610827
4459.409498370304,15414.941929564353
4459.432689613145,15625.403412872212
4459.455880976592,15610.935063259521
4459.479072460647,15406.182348950217
4459.502264065309,14848.75133869391
4459.52545579058,14187.872530604453
4459.5486476364595,13338.478954932303
4459.571839602949,12596.782320769911
4459.595031690048,11896.646888122212
4459.618223897759,11358.13355932371
4459.641416226081,11250.830560668262
4459.664608675014,11309.853750698923
4459.687801244561,11858.032988390685
4459.710993934721,12861.47088961993
4459.734186745496,13898.698585336833
4459.757379676885,14593.076831340193
4459.780572728889,15222.709963551039
4459.803765901509,15508.958541308451
4459.8269591947455,15671.24795440909
4459.850152608599,15560.34893540441
4459.87334614307,15043.442573151731
4459.89653979816,14453.8034184808
4459.91973357387,13985.275563762318
4459.942927470198,13252.20406990981
4459.966121487147,12320.113916588409
4459.989315624717,11071.82495102423
4460.0125098829085,9870.524792365642
4460.035704261722,8725.273739704397
4460.058898761158,7554.682377713851
4460.082093381218,6722.782562771499
4460.105288121902,6053.151681609491
4460.12848298321,5839.675834060835
4460.151677965145,6074.248810372365
4460.1748730677045,6444.546586214514
4460.198068290891,7292.901855781317
4460.221263634704,8495.054007339102
4460.244459099145,9635.300634337564
4460.267654684215,10923.950946789155
4460.290850389914,12199.648020000162
4460.314046216243,13347.441990988387
4460.337242163202,14459.556966921591
4460.360438230791,15403.187076762148
4460.383634419013,15868.439004418975
4460.406830727867,16202.60957479854
4460.430027157354,16602.336705587913
4460.453223707474,16551.889728818704
4460.476420378228,16835.087695796763
4460.499617169617,16864.55628356611
4460.522814081641,16749.600213374422
4460.5460111143,16730.309749524757
4460.569208267598,16500.39338814776
4460.592405541532,16106.845848778108
4460.615602936104,15770.981349822223
4460.638800451314,15694.43500715161
4460.661998087163,15480.150260518836
4460.685195843652,15357.195717579236
4460.708393720782,15233.302794019457
4460.731591718552,15227.35255431773
4460.754789836965,15320.05382758815
4460.777988076019,14979.018952605427
4460.801186435716,14545.068974241492
4460.824384916057,13845.95617100675
4460.847583517042,13005.394269193708
4460.870782238671,12070.047140057983
4460.893981080947,10814.908109748425
4460.917180043868,9608.483025214638
4460.940379127435,8379.379367605075
4460.963578331651,7356.385296312822
4460.986777656513,6312.199848736502
4461.009977102025,5639.692018572704
4461.033176668186,5372.660202176428
4461.056376354995,5216.332917979958
4461.079576162457,5231.703776084467
4461.102776090568,5474.764328193167
4461.125976139332,5896.704060227866
4461.149176308748,6195.194834791966
4461.172376598816,6623.085789342631
4461.195577009538,7121.8275183956575
4461.218777540915,7004.857560114289
4461.241978192946,6877.126337926375
4461.265178965633,6530.354956857548
4461.2883798589755,6019.779751641809
4461.311580872974,5713.60526461096
4461.3347820076315,5620.516396875468
4461.357983262946,5473.937270600127
4461.381184638919,5600.799686174488
4461.404386135551,5426.340970546733
4461.4275877528435,5249.708070222144
4461.4507894907965,4858.87667713815
4461.4739913494095,4416.466023911073
4461.497193328685,3960.9368496033594
4461.520395428623,3598.0571078981275
4461.543597649224,3424.886644890175
4461.566799990488,3585.558942373259
4461.590002452416,4036.2255782827797
4461.61320503501,4915.800012361403
4461.636407738269,5936.44735762089
4461.659610562193,6939.601729835083
4461.682813506784,7865.004467377654
4461.706016572044,8638.66421619517
4461.729219757971,9128.930728387002
4461.752423064566,9149.625704988865
4461.775626491831,8660.831057567068
4461.798830039766,8073.39281018168
4461.82203370837,7302.530873809657
4461.845237497647,6534.041320461285
4461.868441407595,5919.161821183029
4461.891645438215,5888.258349392875
4461.914849589509,6102.895516505432
4461.938053861475,6717.142404650419
4461.961258254117,7737.930096372927
4461.984462767433,8766.31016662361
4462.007667401424,9723.334461004226
4462.030872156092,10469.06908206216
4462.0540770314365,10989.656515651892
4462.077282027459,11264.340644321675
4462.100487144158,11463.3225955522
4462.123692381537,11657.06752353537
4462.146897739594,11692.908672394831
4462.170103218332,11428.335999714975
4462.19330881775,11213.01749878077
4462.21651453785,10665.955437584216
4462.239720378631,9813.323902531529
4462.262926340095,8910.65998253066
4462.286132422241,8165.522271627184
4462.309338625071,7782.847376179959
4462.3325449485865,7717.131406447603
4462.355751392785,8221.72076727758
4462.3789579576705,9167.711326098643
4462.402164643242,10289.202858842284
4462.4253714495,11553.462065372845
4462.448578376446,12900.00435470716
4462.471785424079,14031.804399248289
4462.494992592401,14607.58911461086
4462.518199881412,14904.146746004417
4462.541407291114,14841.074342145721
4462.564614821506,14720.54046229052
4462.587822472589,14513.07304203941
4462.611030244365,14246.858913246155
4462.634238136832,14130.989350235335
4462.657446149992,13857.598696668218
4462.680654283847,13678.76890629662
