wave,flux
4450.003811362098,15035.180140729584
4450.026953690486,14835.389373012998
4450.050096139227,14394.229388761798
4450.073238708321,14115.573485740935
4450.096381397769,13476.594022036583
4450.119524207569,12638.942770363585
4450.142667137726,11940.180759134737
4450.165810188237,11204.67653336613
4450.188953359103,10224.101403361212
4450.212096650326,9048.603719089999
4450.2352400619075,8142.491258907368
4450.258383593846,7286.830118367456
4450.281527246142,6250.161469437029
4450.304671018797,5523.935497393678
4450.327814911813,4843.69694677016
4450.350958925188,4363.887448321192
4450.374103058924,4075.445973296032
4450.3972473130225,3714.8499982490766
4450.420391687483,3424.5743811979896
4450.443536182305,3521.6669180250674
4450.466680797492,3626.692876732663
4450.489825533042,3777.618760835803
4450.512970388957,4249.095724341685
4450.536115365237,4704.309231286068
4450.559260461882,5527.0888173969115
4450.582405678895,6340.4645533514395
4450.605551016274,6879.011439546507
4450.628696474022,7638.681426261994
4450.651842052138,7933.547110531598
4450.674987750623,7983.882888461568
4450.698133569476,8303.898421171938
4450.721279508702,8332.033861467384
4450.744425568297,8312.538236591696
4450.767571748264,8626.776021895192
4450.790718048604,9084.880146271587
4450.813864469315,9543.138142730724
4450.837011010401,10018.646719338178
4450.86015767186,10450.182802027044
4450.883304453694,11109.155101476566
4450.906451355903,11921.340208334215
4450.929598378489,12784.923376520283
4450.95274552145,13819.750079346959
4450.975892784789,14918.538854046243
4450.999040168505,15830.441662652307
4451.022187672601,16364.387694652445
4451.045335297074,16808.353446314824
4451.068483041929,17322.99378033662
4451.091630907163,17550.578042272777
4451.114778892777,17584.155504136266
4451.137926998774,17594.411926009754
4451.161075225153,17216.75598594798
4451.184223571914,17133.234664319178
4451.207372039059,17053.96591385516
4451.230520626587,16675.0812525374
4451.253669334501,16207.173781307318
4451.2768181628,15599.558592869786
4451.299967111485,14856.132807351561
4451.323116180556,14224.987591293604
4451.346265370014,13294.520096931854
4451.369414679861,12757.973280899596
4451.392564110095,11699.03777000792
4451.415713660719,10698.382839413302
4451.438863331732,9714.822432867706
4451.462013123136,8701.675623289051
4451.48516303493,7992.690413965968
4451.508313067117,7442.13218240537
4451.531463219695,7010.080739549839
4451.554613492666,6997.138585310874
4451.577763886031,7360.054940148874
4451.60091439979,8016.324316763975
4451.624065033943,9005.164724663297
4451.647215788492,10272.99562770797
4451.670366663436,11447.655277280237
4451.693517658777,12406.617606516886
4451.716668774516,13266.697208980575
4451.739820010652,14037.904059882572
4451.762971367186,14374.52248837966
4451.78612284412,14494.428354316262
4451.8092744414525,14285.410205599539
4451.832426159187,13793.113581746557
4451.855577997321,13311.649888392803
4451.878729955857,12688.437747850347
4451.901882034796,12216.448065631474
4451.925034234137,11628.928684952283
4451.948186553881,11268.143222845874
4451.97133899403,11397.529575554814
4451.994491554583,11556.532177386209
4452.017644235542,11808.1025816377
4452.040797036907,12443.629611599841
4452.063949958678,13432.451765158425
4452.087103000857,14255.941678771555
4452.1102561634425,14972.466877812552
4452.133409446437,15550.278063599635
4452.156562849841,16352.316102123921
4452.179716373655,16806.084698731378
4452.202870017878,16906.231548083902
4452.226023782513,17374.067984962785
4452.24917766756,17239.78073688667
4452.272331673018,17400.756402713094
4452.29548579889,17446.345498023788
4452.318640045174,17266.770734651556
4452.341794411874,16857.530865609602
4452.364948898987,16613.67478401534
4452.388103506516,16167.732831651167
4452.4112582344615,15666.50020597931
4452.434413082823,15091.831682314496
4452.457568051602,14578.005655405026
4452.480723140799,14049.362740727674
4452.503878350413,13346.192060941125
4452.527033680448,12692.576124444144
4452.550189130902,12180.771298427204
4452.5733447017765,11559.562039741033
4452.596500393071,11077.618610597305
4452.619656204789,10739.822743318486
4452.642812136928,10507.81168590542
4452.66596818949,10260.473874270665
4452.689124362475,10291.26354184442
4452.7122806558855,10556.580511911745
4452.735437069719,10719.901887240565
4452.7585936039795,11109.146159712182
4452.781750258665,11509.893990312965
4452.804907033777,11901.23021258794
4452.828063929317,12374.39009079626
4452.851220945285,12416.436021843148
4452.87437808168,12324.297510618844
4452.897535338506,12187.447066380897
4452.92069271576,11810.169449787652
4452.943850213445,11482.096089147173
4452.967007831562,11333.209121247422
4452.99016557011,11125.80803840737
4453.01332342909,11201.042622697323
4453.036481408502,11497.444225946047
4453.059639508349,11658.37425438279
4453.08279772863,11959.293730676594
4453.105956069345,11943.484753036897
4453.129114530496,11793.948475830943
4453.152273112083,11707.701641956619
4453.175431814107,11172.794366485456
4453.198590636567,10803.301610094792
4453.221749579466,10332.256272515468
4453.244908642802,9818.637287311085
4453.268067826579,9889.762988663379
4453.291227130795,9793.40854854702
4453.314386555451,10165.303801718375
4453.337546100549,10832.994273055512
4453.360705766087,11577.651236705282
4453.3838655520685,12572.275420790364
4453.407025458493,13320.391872952736
4453.430185485361,14108.432309152437
4453.453345632673,14657.360361270554
4453.476505900429,14971.067537467836
4453.4996662886315,14879.786327041857
4453.52282679728,14760.5978187469
4453.545987426375,14547.58727538496
4453.569148175917,14245.273327962526
4453.592309045907,13823.49089403246
4453.615470036346,13260.662493388409
4453.638631147233,12903.763861429934
4453.661792378571,12742.977202993454
4453.684953730359,12726.010331824304
4453.708115202598,12855.803633777316
4453.731276795288,13298.85358282376
4453.754438508431,13913.554915645405
4453.777600342027,14581.25325099377
4453.800762296077,15238.653479906954
4453.82392437058,15769.517976444482
4453.847086565538,16223.280286113444
4453.870248880952,16601.417714691044
4453.8934113168225,16748.268334190132
4453.916573873149,16826.333544447054
4453.939736549933,16936.624581620883
4453.962899347174,16986.795120622737
4453.986062264875,17018.579784899892
4454.009225303034,16673.534944909206
4454.032388461654,16185.448279268086
4454.055551740734,16026.18267050856
4454.078715140275,15502.950705217463
4454.101878660277,14774.438102930357
4454.125042300742,14094.965447949793
4454.14820606167,13063.959007903768
4454.171369943061,12362.869438233145
4454.194533944917,11344.260232123892
4454.2176980672375,10241.343185875643
4454.240862310024,9229.349165668147
4454.264026673275,8358.502686598302
4454.287191156994,7422.0628660670145
4454.31035576118,6753.573361439608
4454.333520485834,6128.399613084176
4454.356685330957,5858.196374482383
4454.379850296548,5658.291923211836
4454.40301538261,5940.829965308343
4454.426180589142,6521.672887628229
4454.449345916145,6989.191600960778
4454.4725113636205,7426.437731835782
4454.495676931568,7580.07460035551
4454.5188426199875,7692.507929094682
4454.542008428882,7434.214699336463
4454.565174358249,7014.421192342368
4454.588340408092,6296.727522536193
4454.611506578411,5680.974663026
4454.634672869205,4954.023434435372
4454.657839280476,4359.616232324633
4454.681005812225,3884.14940838832
4454.704172464451,3494.150472009409
4454.727339237156,3345.8454087896025
4454.750506130341,3292.7293582984694
4454.773673144005,3557.3747184298736
4454.79684027815,3845.1343541510105
4454.820007532776,4339.944830545275
4454.843174907884,4837.824834035909
4454.866342403473,5338.8562102707765
4454.889510019546,5848.796053192771
4454.912677756102,6179.982951211653
4454.935845613144,6539.730030882743
4454.959013590669,6993.531180665393
4454.982181688681,7147.849960539303
4455.005349907178,7390.578414645602
4455.028518246162,7752.547508833764
4455.051686705633,8256.160750246263
4455.074855285593,8782.172978303719
4455.098023986041,9306.941132217395
4455.121192806979,9725.52142125231
4455.144361748406,9834.531865863017
4455.167530810323,9657.029771552334
4455.190699992732,9355.729442769047
4455.213869295633,9048.56081373176
4455.237038719026,8731.135107776527
4455.260208262912,8633.083034139776
4455.283377927292,8579.236426220348
4455.306547712166,8846.49209721808
4455.329717617535,9544.650197762166
4455.352887643399,10357.087511373658
4455.37605778976,11473.371184538111
4455.399228056617,12508.873312444162
4455.422398443972,13326.545999571443
4455.445568951825,13974.30395544628
4455.468739580177,14281.283725348283
4455.491910329028,14405.815006923518
4455.515081198378,14218.737429551911
4455.538252188229,13647.729585876654
4455.561423298582,13047.304045118708
4455.584594529436,12498.405688494418
4455.607765880793,11702.603791152285
4455.630937352652,10949.236417769574
4455.654108945016,10086.322747981943
4455.677280657883,9325.070094498931
4455.700452491255,8578.03779376852
4455.723624445134,7761.206762529763
4455.746796519518,7019.086332390112
4455.7699687144095,6269.189999515244
4455.793141029808,5666.77020265475
4455.816313465714,5323.402435742819
4455.83948602213,5129.878354231625
4455.862658699055,5279.205883777658
4455.885831496489,5906.068078663467
4455.909004414434,6705.486492437557
4455.932177452891,7763.008292164406
4455.955350611858,9035.272168670012
4455.978523891339,10170.369818628451
4456.001697291333,11231.72591769303
4456.024870811841,12177.393192115815
4456.048044452862,12853.641219847937
4456.071218214399,13399.773530848273
4456.094392096451,13411.659599135295
4456.117566099019,13311.506988999325
4456.140740222105,13037.383350694292
4456.163914465707,12702.430322960705
4456.187088829828,12082.293639436724
4456.210263314468,11394.713428060955
4456.233437919626,10568.35890761445
4456.256612645306,9780.300542661878
4456.279787491505,8985.352444455712
4456.302962458226,8532.227024879134
4456.326137545469,8114.777905892819
4456.349312753233,7893.476193634483
4456.372488081522,8076.59823092931
4456.395663530333,8378.9426426378
4456.41883909967,8724.478581556445
4456.442014789531,8958.335029102014
4456.465190599917,9197.69098161767
4456.488366530831,9278.507323064447
4456.5115425822705,9275.217331197358
4456.5347187542375,9085.498978564743
4456.557895046733,8930.487655743134
4456.581071459757,8888.185963602737
4456.604247993311,8928.701378690163
4456.627424647395,9335.545708466965
4456.650601422009,9948.714434693382
4456.673778317154,10900.73835801469
4456.696955332832,11783.255101957224
4456.720132469041,12765.294730607937
4456.7433097257845,13727.819470166914
4456.766487103061,14416.211535178769
4456.789664600872,14633.19577735937
4456.8128422192185,14558.350888971596
4456.8360199581,14660.048619952018
4456.859197817518,14386.722767941335
4456.882375797473,14176.242084563375
4456.905553897966,13798.69988206342
4456.928732118997,13423.707429871643
4456.951910460566,13067.26608966177
4456.975088922674,12723.944101912335
4456.998267505323,12590.652375236084
4457.021446208513,12722.679983126394
4457.044625032244,12772.564914321629
4457.067803976516,12986.835307096191
4457.090983041332,13339.958632848808
4457.1141622266905,13593.070314815908
4457.1373415325925,13948.372270505413
4457.160520959039,13893.53945353027
4457.183700506031,13587.435099551802
4457.206880173568,13105.43149421272
4457.230059961651,12510.757116670944
4457.2532398702815,11886.290083537166
4457.27641989946,11151.622330809314
4457.299600049186,10159.55152912276
4457.322780319461,9254.46924726927
4457.345960710286,8428.155412965814
4457.36914122166,7616.725101356043
4457.392321853586,6953.411183403076
4457.415502606062,6694.172300792927
4457.43868347909,6504.005733970405
4457.461864472672,6766.21455086638
4457.485045586805,7338.652468372478
4457.508226821494,8145.4393359119595
4457.5314081767365,8945.114615740546
4457.554589652534,9921.865334867596
4457.577771248887,11045.176474305808
4457.600952965797,12058.420241484955
4457.624134803263,13029.822182280514
4457.647316761288,13675.891080380448
4457.67049883987,14222.077808027903
4457.693681039011,14566.414474296826
4457.716863358712,14463.048775630277
4457.7400457989725,14472.958976148402
4457.763228359793,14347.650739857152
4457.7864110411765,14100.522793055437
4457.809593843121,14048.864822333511
4457.832776765628,13720.675179684975
4457.855959808699,13168.580972970649
4457.879142972333,12816.361753169796
4457.902326256532,12296.0730257498
4457.925509661296,11382.422224978664
4457.948693186626,10647.956743789768
4457.971876832522,9924.497719037325
4457.995060598985,8996.10513093419
4458.018244486016,8301.11600782462
4458.041428493615,7890.213752099698
4458.0646126217825,7597.3638241087965
4458.08779687052,7345.129768269075
4458.110981239827,7226.97831010656
4458.134165729705,7389.825566585599
4458.157350340155,7638.2220111557235
4458.180535071177,7927.9656199041365
4458.203719922771,8250.031715134428
4458.226904894938,8533.021940942652
4458.2500899876795,8935.742410305622
4458.273275200995,9436.822100058544
4458.296460534886,10082.529325932332
4458.3196459893525,10648.475984600904
4458.342831564396,11086.590173040582
4458.366017260016,11262.079690196326
4458.389203076214,11403.015515683754
4458.4123890129895,11471.861158220643
4458.435575070344,11103.292444356917
4458.458761248279,10767.26776803604
4458.481947546794,10715.177238604057
4458.505133965889,10724.928431047027
4458.528320505566,11097.985712149648
4458.551507165825,11827.79509373622
4458.574693946666,12608.016616965664
4458.597880848091,13376.065176127728
4458.6210678701,14138.858660250935
4458.644255012693,14869.994051843185
4458.6674422758715,15237.182718918632
4458.690629659636,15294.969956969504
4458.713817163986,15087.068196266528
4458.737004788924,14809.7954222899
4458.76019253445,14296.442952548743
4458.783380400563,13544.854335727901
4458.8065683872655,12700.616699787251
4458.829756494558,11788.523110617356
4458.85294472244,10833.593333346153
4458.876133070914,9829.81052819322
4458.899321539979,8763.810422644781
4458.922510129635,7605.661378146136
4458.945698839884,6658.7684436045065
4458.968887670727,5805.20340769719
4458.992076622164,4939.440285059482
4459.015265694195,4273.715027666272
4459.0384548868215,3730.7497299062757
4459.061644200044,3399.8031232297685
4459.084833633862,3443.2183506995866
4459.108023188278,3672.366771078392
4459.131212863292,4022.157702296686
4459.154402658904,4413.760268911056
4459.177592575114,4890.7017955042365
4459.200782611925,5601.258286498526
4459.223972769336,6284.065311700272
4459.247163047347,6943.099524290792
4459.27035344596,7557.44319839184
4459.293543965176,8070.371311815546
4459.316734604993,8481.945499097697
4459.339925365414,9148.340898056838
4459.363116246439,10188.304261577447
4459.386307248069,10941.380708265217
4459.409498370304,11892.662290965067
4459.432689613145,12999.729309899229
4459.455880976592,13810.380790067993
4459.479072460647,14447.507840795168
4459.502264065309,14809.548288829463
4459.52545579058,14847.045520556974
4459.5486476364595,14606.346834563965
4459.571839602949,14329.228102916686
4459.595031690048,13941.182973066745
4459.618223897759,13394.071958295866
4459.641416226081,12956.14252364421
4459.664608675014,12438.843789910497
4459.687801244561,12044.766271686975
4459.710993934721,11880.771511072304
4459.734186745496,11812.327008251264
4459.757379676885,12141.719205605126
4459.780572728889,12629.56365276385
4459.803765901509,13228.223270703069
4459.8269591947455,13961.270120742209
4459.850152608599,14596.847837523741
4459.87334614307,15033.060428211013
4459.89653979816,15287.04334371777
4459.91973357387,15144.313440679685
4459.942927470198,14815.457686434998
4459.966121487147,14390.008043845284
4459.989315624717,13729.659699625074
4460.0125098829085,12905.19847923018
4460.035704261722,11926.613266848703
4460.058898761158,10986.07560565947
4460.082093381218,10117.813163466168
4460.105288121902,9158.567454751368
4460.12848298321,8221.256217100587
4460.151677965145,7276.827078688648
4460.1748730677045,6704.004686808463
4460.198068290891,6436.28095895274
4460.221263634704,6512.667190377489
4460.244459099145,6739.646146515134
4460.267654684215,7382.820922201329
4460.290850389914,8129.436971067346
4460.314046216243,9056.715505339254
4460.337242163202,10232.927665052375
4460.360438230791,11468.267434574582
4460.383634419013,12764.674074898363
4460.406830727867,13765.92522681721
4460.430027157354,14761.38576715776
4460.453223707474,15518.514789045645
4460.476420378228,16020.589910557628
4460.499617169617,16504.406687828385
4460.522814081641,16667.995773155115
4460.5460111143,16788.088712895107
4460.569208267598,16945.614028096916
4460.592405541532,16722.017009160103
4460.615602936104,16790.12475163575
4460.638800451314,16609.721603107875
4460.661998087163,16381.386223937776
4460.685195843652,16370.537609119761
4460.708393720782,16119.133558063924
4460.731591718552,15798.545167396132
4460.754789836965,15629.069715196189
4460.777988076019,15355.10274236171
4460.801186435716,15033.870977330178
4460.824384916057,14797.758079407646
4460.847583517042,14398.428948442524
4460.870782238671,13943.045036738817
4460.893981080947,13400.175648041874
4460.917180043868,12624.322272417612
4460.940379127435,11686.24343084886
4460.963578331651,10826.647497890002
4460.986777656513,9852.38469466251
4461.009977102025,8923.291863249737
4461.033176668186,7966.0738481512335
4461.056376354995,6960.474960655545
4461.079576162457,6263.11390138228
4461.102776090568,5867.807922747035
4461.125976139332,5531.397082960174
4461.149176308748,5485.137417362289
4461.172376598816,5549.83580184189
4461.195577009538,5528.59660987914
4461.218777540915,5821.67995917153
4461.241978192946,6040.728862030459
4461.265178965633,6300.28557407144
4461.2883798589755,6402.720731391946
4461.311580872974,6319.384034266178
4461.3347820076315,6292.800774622616
4461.357983262946,6153.421114042846
4461.381184638919,5825.202115891476
4461.404386135551,5579.371816715405
4461.4275877528435,5380.822388309126
4461.4507894907965,5090.780123329889
4461.4739913494095,5018.295923545496
4461.497193328685,4747.8648617583785
4461.520395428623,4461.801400606739
4461.543597649224,4254.31517939073
4461.566799990488,4014.2436268940055
4461.590002452416,3808.5263106608195
4461.61320503501,3704.088194919107
4461.636407738269,3742.757326715663
4461.659610562193,3920.0030533718755
4461.682813506784,4398.173108448924
4461.706016572044,5038.762364439092
4461.729219757971,5771.277136966144
4461.752423064566,6516.2633206431665
4461.775626491831,7216.981718052217
4461.798830039766,7675.416335924777
4461.82203370837,7863.681160247121
4461.845237497647,7877.962944186051
4461.868441407595,7614.132254999755
4461.891645438215,7417.678166823419
4461.914849589509,6961.440001815838
4461.938053861475,6496.727612895516
4461.961258254117,6224.4317668724325
4461.984462767433,6279.177119734557
4462.007667401424,6574.345082850996
4462.030872156092,7235.593453884493
4462.0540770314365,8056.194484544966
4462.077282027459,8858.21435956961
4462.100487144158,9520.413575526096
4462.123692381537,9995.998852238818
4462.146897739594,10508.977032525045
4462.170103218332,10817.605958484633
4462.19330881775,10893.50680956585
4462.21651453785,10832.625839167125
4462.239720378631,10760.465069352023
4462.262926340095,10466.28034385647
4462.286132422241,10269.921718335814
4462.309338625071,9906.156050023576
4462.3325449485865,9394.066373114396
4462.355751392785,8868.768107108543
4462.3789579576705,8457.303978753704
4462.402164643242,8459.200181181568
4462.4253714495,8672.263767125765
4462.448578376446,8933.060228556056
4462.471785424079,9805.646504245358
4462.494992592401,10915.967803774352
4462.518199881412,11949.68782279731
4462.541407291114,12887.711771393178
4462.564614821506,13667.942021860981
4462.587822472589,14281.22630187511
4462.611030244365,14532.10508157077
4462.634238136832,14683.547865232584
4462.657446149992,14515.658531580772
4462.680654283847,14315.987886482191
