wave,flux
4450.003811362098,17516.654308055986
4450.026953690486,17661.531678460666
4450.050096139227,17445.434959323185
4450.073238708321,17274.251266452466
4450.096381397769,16842.752938571575
4450.119524207569,16061.142165420935
4450.142667137726,15188.767764869817
4450.165810188237,14384.518058770067
4450.188953359103,13367.823315095377
4450.212096650326,12377.118996405738
4450.2352400619075,11300.620577943191
4450.258383593846,10137.772578743838
4450.281527246142,8963.619682290244
4450.304671018797,7837.639781848668
4450.327814911813,6872.771784774019
4450.350958925188,5988.345437788423
4450.374103058924,5330.35132502375
4450.3972473130225,4879.317761125402
4450.420391687483,4539.608275665159
4450.443536182305,4313.571302140251
4450.466680797492,4312.619905843111
4450.489825533042,4415.6642027493235
4450.512970388957,4577.617105294582
4450.536115365237,4987.583353160775
4450.559260461882,5589.40246351
4450.582405678895,6219.667817316911
4450.605551016274,7259.541938619321
4450.628696474022,7932.746589938969
4450.651842052138,8575.682899196501
4450.674987750623,9183.54127656015
4450.698133569476,9542.703000288844
4450.721279508702,9726.998909287959
4450.744425568297,9857.661931703171
4450.767571748264,10148.846354148216
4450.790718048604,10267.972857801404
4450.813864469315,10600.545184976996
4450.837011010401,11111.947906164763
4450.86015767186,11787.964472894839
4450.883304453694,12372.143276801327
4450.906451355903,13181.46688991905
4450.929598378489,14004.568432413285
4450.95274552145,14900.549879943788
4450.975892784789,16026.92949465239
4450.999040168505,17091.717740590022
4451.022187672601,18073.058177437313
4451.045335297074,19073.493382432138
4451.068483041929,19801.814783856105
4451.091630907163,20301.147566690965
4451.114778892777,20573.065135885503
4451.137926998774,20764.817701644508
4451.161075225153,20986.61029866325
4451.184223571914,20653.043242363878
4451.207372039059,20288.856652763938
4451.230520626587,20147.723552680647
4451.253669334501,19706.537624511137
4451.2768181628,19143.152830003684
4451.299967111485,18318.238757405034
4451.323116180556,17777.332301802526
4451.346265370014,16743.319979187574
4451.369414679861,15997.730862554894
4451.392564110095,15062.897554780697
4451.415713660719,13977.153153530578
4451.438863331732,12832.517177451144
4451.462013123136,11773.996881956362
4451.48516303493,10749.560188365258
4451.508313067117,9934.224570147673
4451.531463219695,9252.58719814948
4451.554613492666,8661.832605320209
4451.577763886031,8520.753828336032
4451.60091439979,8769.462484217944
4451.624065033943,9406.814151438128
4451.647215788492,10360.930239298888
4451.670366663436,11499.072910034572
4451.693517658777,12853.598248913393
4451.716668774516,14144.46576220279
4451.739820010652,15273.53360424647
4451.762971367186,16280.401786420456
4451.78612284412,16704.824204767112
4451.8092744414525,16905.198327677685
4451.832426159187,16721.00815827297
4451.855577997321,16351.482035875693
4451.878729955857,16059.047944246982
4451.901882034796,15579.823649942591
4451.925034234137,15012.378121334717
4451.948186553881,14378.362519265349
4451.97133899403,13856.124793328227
4451.994491554583,13712.16779141429
4452.017644235542,13668.107229210518
4452.040797036907,13905.65777663312
4452.063949958678,14583.398515523026
4452.087103000857,15441.773189558486
4452.1102561634425,16504.61442643742
4452.133409446437,17339.552814506216
4452.156562849841,18180.90861578981
4452.179716373655,18864.392880327847
4452.202870017878,19467.434805299214
4452.226023782513,20053.04270085415
4452.24917766756,20477.38151991042
4452.272331673018,20430.28752304739
4452.29548579889,20665.408012834734
4452.318640045174,20520.05144119421
4452.341794411874,20165.357192475454
4452.364948898987,20016.189464824223
4452.388103506516,19682.85076589763
4452.4112582344615,19216.89842572216
4452.434413082823,18667.507200728534
4452.457568051602,18187.69557838777
4452.480723140799,17711.729910422568
4452.503878350413,16724.96232593998
4452.527033680448,16119.247569159692
4452.550189130902,15297.907174150896
4452.5733447017765,14841.003447312009
4452.596500393071,14006.235914844123
4452.619656204789,13533.950267957911
4452.642812136928,13084.360081985298
4452.66596818949,12613.836713635223
4452.689124362475,12546.082293572208
4452.7122806558855,12387.71753713144
4452.735437069719,12483.97145061383
4452.7585936039795,12743.44447525952
4452.781750258665,12869.614275305932
4452.804907033777,13296.169373385943
4452.828063929317,13796.86117638305
4452.851220945285,14286.694368321383
4452.87437808168,14617.553121797962
4452.897535338506,14696.003068588867
4452.92069271576,14589.079361878437
4452.943850213445,14268.19211030515
4452.967007831562,13923.74864028772
4452.99016557011,13766.869404852901
4453.01332342909,13651.855153963459
4453.036481408502,13396.541873796505
4453.059639508349,13313.561442046757
4453.08279772863,13484.763937664153
4453.105956069345,13685.481100444149
4453.129114530496,13832.542569412723
4453.152273112083,14039.186591610189
4453.175431814107,13703.693397683572
4453.198590636567,13450.741567769774
4453.221749579466,13141.752417737316
4453.244908642802,12505.505079667968
4453.268067826579,12045.257722890252
4453.291227130795,11967.971787748507
4453.314386555451,12009.624202652383
4453.337546100549,12125.019983954053
4453.360705766087,12663.451725244622
4453.3838655520685,13481.877268761491
4453.407025458493,14245.965987531841
4453.430185485361,15386.092331964406
4453.453345632673,16409.14486353611
4453.476505900429,16991.192747188852
4453.4996662886315,17394.90328422805
4453.52282679728,17540.72868414871
4453.545987426375,17607.76359959807
4453.569148175917,17450.825824717795
4453.592309045907,16872.698534589126
4453.615470036346,16517.30357413051
4453.638631147233,16095.969131338226
4453.661792378571,15560.905808707712
4453.684953730359,15277.37404004891
4453.708115202598,15337.950520067454
4453.731276795288,15438.206915717132
4453.754438508431,15705.040801304109
4453.777600342027,16393.09817045789
4453.800762296077,17167.419194547827
4453.82392437058,17940.14842156675
4453.847086565538,18600.121027035384
4453.870248880952,19067.48380132241
4453.8934113168225,19489.406439224946
4453.916573873149,19851.973667227234
4453.939736549933,20080.043032227077
4453.962899347174,20091.218864536553
4453.986062264875,20060.715940997074
4454.009225303034,20089.20363250763
4454.032388461654,19890.41065232725
4454.055551740734,19521.004739049848
4454.078715140275,19001.982309962637
4454.101878660277,18344.405306810808
4454.125042300742,17665.192424326484
4454.14820606167,16747.55759286847
4454.171369943061,15796.287018412093
4454.194533944917,14931.86604362235
4454.2176980672375,13714.266367579576
4454.240862310024,12514.144438557618
4454.264026673275,11529.797405352074
4454.287191156994,10372.219775085745
4454.31035576118,9262.810635362286
4454.333520485834,8273.790229771137
4454.356685330957,7671.369326168944
4454.379850296548,7122.894534179657
4454.40301538261,6818.113842008148
4454.426180589142,6964.123597914488
4454.449345916145,7349.521011822231
4454.4725113636205,7725.83779849728
4454.495676931568,8208.139935880234
4454.5188426199875,8718.034376442676
4454.542008428882,8745.682534847605
4454.565174358249,8728.495031259848
4454.588340408092,8376.258110243862
4454.611506578411,7709.560927882097
4454.634672869205,6982.703103249481
4454.657839280476,6386.425498977219
4454.681005812225,5579.07659704087
4454.704172464451,4940.21820472239
4454.727339237156,4430.277783631976
4454.750506130341,4173.657088687467
4454.773673144005,4116.176760026452
4454.79684027815,4160.595167026734
4454.820007532776,4570.9767306577
4454.843174907884,4887.628382577107
4454.866342403473,5424.794042229351
4454.889510019546,5985.830990142496
4454.912677756102,6877.6167419529465
4454.935845613144,7199.037220506828
4454.959013590669,7644.42659357454
4454.982181688681,8061.8938423969985
4455.005349907178,8399.706996923982
4455.028518246162,8509.381096594929
4455.051686705633,9055.597252961323
4455.074855285593,9384.282969966396
4455.098023986041,9973.260710614522
4455.121192806979,10368.844365989391
4455.144361748406,10943.408780415559
4455.167530810323,11364.547402317974
4455.190699992732,11422.711923853276
4455.213869295633,11301.8360887298
4455.237038719026,11108.575606651473
4455.260208262912,10839.989133854056
4455.283377927292,10436.839978040865
4455.306547712166,10553.476583164542
4455.329717617535,10741.435049123327
4455.352887643399,11175.268527776645
4455.37605778976,11974.994666105613
4455.399228056617,13108.078196085109
4455.422398443972,14235.218323473715
4455.445568951825,15188.427131640072
4455.468739580177,16033.607240049847
4455.491910329028,16522.218690613947
4455.515081198378,16829.535423323243
4455.538252188229,16626.23385189314
4455.561423298582,16224.006156132577
4455.584594529436,15712.32504595533
4455.607765880793,14919.87846774768
4455.630937352652,14060.83007997174
4455.654108945016,13166.088168304772
4455.677280657883,12293.683577289852
4455.700452491255,11212.0508265463
4455.723624445134,10329.841425384837
4455.746796519518,9609.584131796297
4455.7699687144095,8669.528351321196
4455.793141029808,7933.765130069619
4455.816313465714,7312.098289932913
4455.83948602213,6765.8206176080985
4455.862658699055,6559.184508449352
4455.885831496489,6610.917592202744
4455.909004414434,6951.146214723384
4455.932177452891,7807.428131873747
4455.955350611858,8848.28906697856
4455.978523891339,10156.428302034145
4456.001697291333,11506.34010783673
4456.024870811841,12696.412277976266
4456.048044452862,13965.476452866451
4456.071218214399,14859.084482453009
4456.094392096451,15517.406119115867
4456.117566099019,15742.310822664931
4456.140740222105,15640.173279722176
4456.163914465707,15404.692399732383
4456.187088829828,15001.405267170618
4456.210263314468,14287.89424228619
4456.233437919626,13681.154901442811
4456.256612645306,12959.059929929548
4456.279787491505,11985.772777328122
4456.302962458226,11194.575686346498
4456.326137545469,10450.618102250455
4456.349312753233,9891.804729824695
4456.372488081522,9556.050244464233
4456.395663530333,9539.493548358141
4456.41883909967,9660.779563146223
4456.442014789531,9996.19849152434
4456.465190599917,10382.329246183896
4456.488366530831,10760.97375480646
4456.5115425822705,10950.041374195423
4456.5347187542375,10839.26083074694
4456.557895046733,10983.27111018173
4456.581071459757,10648.732079368545
4456.604247993311,10759.751043435095
4456.627424647395,10838.938194333572
4456.650601422009,11142.395095830787
4456.673778317154,11551.079926513094
4456.696955332832,12507.58624923288
4456.720132469041,13480.769663142155
4456.7433097257845,14612.552204066891
4456.766487103061,15746.818348845289
4456.789664600872,16493.827536069974
4456.8128422192185,17199.414157286305
4456.8360199581,17286.971187052095
4456.859197817518,17406.10967280876
4456.882375797473,17282.665278042423
4456.905553897966,16946.979963348454
4456.928732118997,16539.027684223118
4456.951910460566,16100.481015749845
4456.975088922674,15808.437808436784
4456.998267505323,15603.204132925548
4457.021446208513,15402.698428008565
4457.044625032244,15252.009801815313
4457.067803976516,15142.02523631803
4457.090983041332,15386.463024038303
4457.1141622266905,15701.04921641676
4457.1373415325925,15938.657001009426
4457.160520959039,16005.912650594437
4457.183700506031,15987.677773789866
4457.206880173568,16070.355965139968
4457.230059961651,15566.047542223712
4457.2532398702815,14946.289564239036
4457.27641989946,14178.85371010479
4457.299600049186,13476.56527016725
4457.322780319461,12318.902414572283
4457.345960710286,11365.883694242217
4457.36914122166,10392.166462320156
4457.392321853586,9484.108525930189
4457.415502606062,8751.681052539412
4457.43868347909,8177.989047033894
4457.461864472672,8003.549949113771
4457.485045586805,8040.274431514453
4457.508226821494,8421.309554804237
4457.5314081767365,9228.506284206389
4457.554589652534,10226.396174515477
4457.577771248887,11235.217963867477
4457.600952965797,12495.073557820817
4457.624134803263,13774.909070989137
4457.647316761288,14807.638262475059
4457.67049883987,15769.850516501894
4457.693681039011,16785.19909129493
4457.716863358712,17047.815197978493
4457.7400457989725,17041.6408022781
4457.763228359793,17278.521362724256
4457.7864110411765,17082.492479397
4457.809593843121,16939.375901594773
4457.832776765628,16588.082656868122
4457.855959808699,16172.868398570032
4457.879142972333,15761.887053122064
4457.902326256532,15294.091340244124
4457.925509661296,14568.517614214767
4457.948693186626,13794.307904274343
4457.971876832522,13055.627011574668
4457.995060598985,12140.353035937016
4458.018244486016,11183.975807763321
4458.041428493615,10416.059899200474
4458.0646126217825,9711.915026578758
4458.08779687052,9235.453860948028
4458.110981239827,8863.307622174643
4458.134165729705,8722.126326580898
4458.157350340155,8735.432029243428
4458.180535071177,8947.86130163188
4458.203719922771,9390.282327524319
4458.226904894938,9701.772334243351
4458.2500899876795,10064.737584797776
4458.273275200995,10404.398257196612
4458.296460534886,10812.040867783664
4458.3196459893525,11419.183658433954
4458.342831564396,12070.974188381982
4458.366017260016,12737.826554207477
4458.389203076214,13222.10505450744
4458.4123890129895,13503.32592193479
4458.435575070344,13418.84089476905
4458.458761248279,13310.295277498508
4458.481947546794,13152.45166500235
4458.505133965889,12920.575463664532
4458.528320505566,12996.292476615488
4458.551507165825,13302.292389812686
4458.574693946666,13770.27403158216
4458.597880848091,14443.324287832142
4458.6210678701,15497.910472055008
4458.644255012693,16375.257693166797
4458.6674422758715,17149.774041859622
4458.690629659636,17732.329955987963
4458.713817163986,18044.996363246893
4458.737004788924,18224.76444439653
4458.76019253445,17838.059853891842
4458.783380400563,16827.915132237977
4458.8065683872655,16169.43200306018
4458.829756494558,15280.04214086781
4458.85294472244,14318.481212878027
4458.876133070914,13205.309589774515
4458.899321539979,12083.799535133447
4458.922510129635,10851.675404600912
4458.945698839884,9636.133393485266
4458.968887670727,8359.421774908418
4458.992076622164,7303.82259450137
4459.015265694195,6266.828042233263
4459.0384548868215,5354.047046094475
4459.061644200044,4699.995120805901
4459.084833633862,4290.46834424313
4459.108023188278,4213.55301831775
4459.131212863292,4327.934459514352
4459.154402658904,4536.064710235091
4459.177592575114,5015.100919888781
4459.200782611925,5702.893742472717
4459.223972769336,6437.8954409513135
4459.247163047347,7293.621171209213
4459.27035344596,8131.520894317941
4459.293543965176,8762.370827855346
4459.316734604993,9464.39916397242
4459.339925365414,10227.391567192559
4459.363116246439,10848.410108139286
4459.386307248069,11739.11017598722
4459.409498370304,12767.693693308674
4459.432689613145,13792.310835795719
4459.455880976592,14596.197381038888
4459.479072460647,15865.917597473926
4459.502264065309,16597.53564399024
4459.52545579058,17043.702613225836
4459.5486476364595,17345.449292630165
4459.571839602949,17252.5986130852
4459.595031690048,17157.05720959884
4459.618223897759,16868.850267208472
4459.641416226081,16426.85023804829
4459.664608675014,15865.381134961375
4459.687801244561,15301.528713245454
4459.710993934721,14690.332386249742
4459.734186745496,14304.030428185828
4459.757379676885,14271.875768376798
4459.780572728889,14301.264329667174
4459.803765901509,14729.61731237584
4459.8269591947455,15331.523972439274
4459.850152608599,16098.527462941862
4459.87334614307,17003.70905453659
4459.89653979816,17427.164846212767
4459.91973357387,17676.469839575027
4459.942927470198,17731.055357523128
4459.966121487147,17350.2544500554
4459.989315624717,16853.098141094502
4460.0125098829085,16180.218249646608
4460.035704261722,15360.281363189804
4460.058898761158,14585.28469839544
4460.082093381218,13415.056736050845
4460.105288121902,12404.185361149079
4460.12848298321,11285.067705016774
4460.151677965145,10385.847317037913
4460.1748730677045,9376.354559659148
4460.198068290891,8530.580538395347
4460.221263634704,8031.340314316266
4460.244459099145,7795.051645238299
4460.267654684215,8121.079758539047
4460.290850389914,8674.65229489494
4460.314046216243,9514.277007708022
4460.337242163202,10601.19360440208
4460.360438230791,11919.992927736635
4460.383634419013,13260.926914891397
4460.406830727867,14506.292078152352
4460.430027157354,15728.220361170852
4460.453223707474,16909.344798299597
4460.476420378228,17963.116230200783
4460.499617169617,18709.78262104238
4460.522814081641,19016.880667485828
4460.5460111143,19514.066298837573
4460.569208267598,19874.475609281588
4460.592405541532,20015.28252501401
4460.615602936104,20078.92726070801
4460.638800451314,19873.698204087712
4460.661998087163,19860.97355461743
4460.685195843652,19628.338840605786
4460.708393720782,19377.941148734393
4460.731591718552,19171.2651718046
4460.754789836965,19138.65899112222
4460.777988076019,18804.00189894467
4460.801186435716,18319.453222818676
4460.824384916057,18219.867041135276
4460.847583517042,17627.553975074385
4460.870782238671,17174.988309612887
4460.893981080947,16671.02449491617
4460.917180043868,16227.04750949292
4460.940379127435,15120.319625137783
4460.963578331651,14312.923590488108
4460.986777656513,13428.09569754925
4461.009977102025,12241.249553832165
4461.033176668186,11043.26605282272
4461.056376354995,9949.218216879815
4461.079576162457,9045.362983865134
4461.102776090568,8113.785839597653
4461.125976139332,7340.859744982086
4461.149176308748,6800.351614541416
4461.172376598816,6515.273896387343
4461.195577009538,6519.229352625156
4461.218777540915,6566.996465702182
4461.241978192946,6804.994340274334
4461.265178965633,6912.10075801897
4461.2883798589755,7209.164598986689
4461.311580872974,7339.795441602887
4461.3347820076315,7603.029368381426
4461.357983262946,7569.028054644605
4461.381184638919,7342.6530452441375
4461.404386135551,7075.160271419567
4461.4275877528435,6752.565979513689
4461.4507894907965,6373.577214166498
4461.4739913494095,6061.870303331785
4461.497193328685,5746.723414823955
4461.520395428623,5524.166640957992
4461.543597649224,5227.6589264782
4461.566799990488,5132.028105337407
4461.590002452416,4831.423392971333
4461.61320503501,4564.75635219085
4461.636407738269,4477.547381186629
4461.659610562193,4441.71531761334
4461.682813506784,4721.32697323197
4461.706016572044,5203.777677197133
4461.729219757971,5862.441335793289
4461.752423064566,6657.527325902684
4461.775626491831,7324.512034004584
4461.798830039766,8097.247864633154
4461.82203370837,8695.368890740841
4461.845237497647,9145.838512969061
4461.868441407595,9299.452362529179
4461.891645438215,9249.860600217966
4461.914849589509,8869.689632426554
4461.938053861475,8455.344475477192
4461.961258254117,8216.657869034327
4461.984462767433,7799.346704796012
4462.007667401424,7656.886262341881
4462.030872156092,7923.009038000456
4462.0540770314365,8374.458390255337
4462.077282027459,9128.032213737559
4462.100487144158,9945.46745710421
4462.123692381537,10731.838063194207
4462.146897739594,11631.347645406364
4462.170103218332,12341.646852003509
4462.19330881775,12581.149830284256
4462.21651453785,12643.295797322478
4462.239720378631,12891.423165345575
4462.262926340095,12685.501562454581
4462.286132422241,12321.941945480618
4462.309338625071,12231.031697967741
4462.3325449485865,11843.15520776579
4462.355751392785,11379.591660478047
4462.3789579576705,10957.929313822891
4462.402164643242,10451.553080142323
4462.4253714495,10222.942466964236
4462.448578376446,10474.184330014261
4462.471785424079,10880.498588314962
4462.494992592401,11335.56226477772
4462.518199881412,12337.606063096533
4462.541407291114,13574.804080615846
4462.564614821506,14600.437859813437
4462.587822472589,15786.858566785771
4462.611030244365,16497.057881799457
4462.634238136832,17123.116150764483
4462.657446149992,17237.870947325802
4462.680654283847,17281.447901812353
