wave,flux
4450.003811362098,16196.232277141198
4450.026953690486,15933.697952915754
4450.050096139227,15605.174701010266
4450.073238708321,15337.911840177181
4450.096381397769,14842.557675316211
4450.119524207569,13983.625320272015
4450.142667137726,13224.330963429355
4450.165810188237,12409.429054479784
4450.188953359103,11402.923169069323
4450.212096650326,10414.827534586051
4450.2352400619075,9338.804975552921
4450.258383593846,8192.138578733788
4450.281527246142,7207.7926696088225
4450.304671018797,6348.0399484452
4450.327814911813,5480.830932874085
4450.350958925188,4908.931929075355
4450.374103058924,4485.242017793146
4450.3972473130225,4026.2918205859123
4450.420391687483,3853.995247439389
4450.443536182305,3820.57966839635
4450.466680797492,3810.9156766755177
4450.489825533042,3919.4595776963947
4450.512970388957,4420.381311815376
4450.536115365237,4947.995815660637
4450.559260461882,5594.940475729574
4450.582405678895,6403.83886135408
4450.605551016274,7038.527631095591
4450.628696474022,7781.629824292932
4450.651842052138,8232.32505200744
4450.674987750623,8614.582768021945
4450.698133569476,8830.308129939498
4450.721279508702,8871.722967685575
4450.744425568297,8873.321019982908
4450.767571748264,9363.44254981506
4450.790718048604,9629.284646885155
4450.813864469315,9955.106842064602
4450.837011010401,10516.181721668037
4450.86015767186,11040.26608790018
4450.883304453694,11612.78754414765
4450.906451355903,12422.804223064171
4450.929598378489,13446.286625342367
4450.95274552145,14316.49971492753
4450.975892784789,15404.821899111825
4450.999040168505,16654.85881964227
4451.022187672601,17315.99916867156
4451.045335297074,17874.622097377633
4451.068483041929,18540.427149373383
4451.091630907163,18774.943143082546
4451.114778892777,18802.043693191346
4451.137926998774,18863.46842414295
4451.161075225153,18901.9759178205
4451.184223571914,18680.247271262244
4451.207372039059,18387.253916873757
4451.230520626587,18074.370281363896
4451.253669334501,17522.042179522352
4451.2768181628,16847.47218560341
4451.299967111485,16396.290672037496
4451.323116180556,15885.327291252117
4451.346265370014,14790.862923690838
4451.369414679861,13921.925881001915
4451.392564110095,13016.75784957663
4451.415713660719,12034.492206134813
4451.438863331732,10830.266930846818
4451.462013123136,10072.135533053006
4451.48516303493,8990.646281471947
4451.508313067117,8498.173225960052
4451.531463219695,7811.565015969429
4451.554613492666,7539.264013979181
4451.577763886031,7800.889843001993
4451.60091439979,8331.415521860814
4451.624065033943,9207.799573714925
4451.647215788492,10233.92569707508
4451.670366663436,11485.866322708873
4451.693517658777,12834.408323566837
4451.716668774516,13857.154542226222
4451.739820010652,14638.873928570018
4451.762971367186,15233.941272748745
4451.78612284412,15504.949997143727
4451.8092744414525,15414.065419883662
4451.832426159187,15131.1822814267
4451.855577997321,14643.386374997877
4451.878729955857,13996.984322588525
4451.901882034796,13472.985161170347
4451.925034234137,12887.28698730204
4451.948186553881,12324.507214844682
4451.97133899403,12192.50120130026
4451.994491554583,12297.523233157634
4452.017644235542,12534.313892144217
4452.040797036907,13025.679141262426
4452.063949958678,13820.503864106246
4452.087103000857,14743.082758092816
4452.1102561634425,15780.425878815178
4452.133409446437,16448.281558617342
4452.156562849841,17227.622615127933
4452.179716373655,17495.193080894012
4452.202870017878,18073.87864668439
4452.226023782513,18554.728236155453
4452.24917766756,18732.177490753264
4452.272331673018,18670.106186599172
4452.29548579889,18624.654573897533
4452.318640045174,18494.399912593835
4452.341794411874,18416.20946784472
4452.364948898987,18190.322392975293
4452.388103506516,17489.633843662945
4452.4112582344615,17142.102150741892
4452.434413082823,16612.700550935282
4452.457568051602,16013.010858560225
4452.480723140799,15413.654382884615
4452.503878350413,14791.256712657043
4452.527033680448,14063.908657958385
4452.550189130902,13285.292606804494
4452.5733447017765,12530.16054244286
4452.596500393071,12132.687416678868
4452.619656204789,11831.502397572582
4452.642812136928,11442.305843713435
4452.66596818949,11153.101294102002
4452.689124362475,11163.225448080695
4452.7122806558855,11287.157302546302
4452.735437069719,11380.573313674146
4452.7585936039795,11660.305318026898
4452.781750258665,12157.204228656909
4452.804907033777,12515.09969239658
4452.828063929317,12939.851345852145
4452.851220945285,13300.51423026789
4452.87437808168,13359.662917822838
4452.897535338506,13274.144536375705
4452.92069271576,13036.644600753621
4452.943850213445,12790.111427034111
4452.967007831562,12386.939684413088
4452.99016557011,12163.06466213251
4453.01332342909,12063.8001486257
4453.036481408502,12158.769130768173
4453.059639508349,12289.072116691685
4453.08279772863,12476.147440539477
4453.105956069345,12769.415564083642
4453.129114530496,12872.793265370337
4453.152273112083,12756.929254824823
4453.175431814107,12447.747447935717
4453.198590636567,11966.469545515196
4453.221749579466,11516.857888216291
4453.244908642802,11042.606656133226
4453.268067826579,10612.075503458464
4453.291227130795,10511.734544687348
4453.314386555451,10977.531723569944
4453.337546100549,11259.479774522779
4453.360705766087,12187.657419332332
4453.3838655520685,13031.994099529747
4453.407025458493,13952.98178141975
4453.430185485361,14696.159634642607
4453.453345632673,15410.85070646293
4453.476505900429,15790.862595965222
4453.4996662886315,16044.070731556207
4453.52282679728,15956.351487472562
4453.545987426375,16023.77385215448
4453.569148175917,15449.41565646296
4453.592309045907,15076.853934800356
4453.615470036346,14569.885484923183
4453.638631147233,14073.418039241962
4453.661792378571,13869.414841216398
4453.684953730359,13815.952249788186
4453.708115202598,13826.748171472194
4453.731276795288,14255.336020777588
4453.754438508431,14726.333908194134
4453.777600342027,15425.67443546404
4453.800762296077,16072.902834180233
4453.82392437058,16714.77003506007
4453.847086565538,17309.278903749233
4453.870248880952,17811.84999527902
4453.8934113168225,17943.126572510722
4453.916573873149,18066.600712163014
4453.939736549933,18305.766279345313
4453.962899347174,18353.56762182123
4453.986062264875,18466.927622675037
4454.009225303034,18235.918593026414
4454.032388461654,17843.89540764891
4454.055551740734,17514.119518641983
4454.078715140275,16927.783777673194
4454.101878660277,16341.341819025241
4454.125042300742,15553.78570306203
4454.14820606167,14605.848485152452
4454.171369943061,13769.241430836797
4454.194533944917,12893.559141787102
4454.2176980672375,11620.586748542215
4454.240862310024,10612.129657632551
4454.264026673275,9484.508412101579
4454.287191156994,8558.825929120047
4454.31035576118,7586.804549211786
4454.333520485834,6946.152608568475
4454.356685330957,6564.9434092088995
4454.379850296548,6267.52651531226
4454.40301538261,6308.40323026452
4454.426180589142,6538.517968541387
4454.449345916145,7093.956649439031
4454.4725113636205,7559.330498941198
4454.495676931568,8009.659118750173
4454.5188426199875,8314.77532265953
4454.542008428882,8113.516747104029
4454.565174358249,7708.224391842815
4454.588340408092,7197.306289819803
4454.611506578411,6549.14415772337
4454.634672869205,5689.061400055162
4454.657839280476,5081.671929292733
4454.681005812225,4341.5809574548975
4454.704172464451,3975.2695398220403
4454.727339237156,3834.705253802993
4454.750506130341,3636.186045644745
4454.773673144005,3841.3844191100065
4454.79684027815,4014.271637809703
4454.820007532776,4324.311887199636
4454.843174907884,4757.769000709253
4454.866342403473,5274.885753898424
4454.889510019546,5959.247211717348
4454.912677756102,6444.042373582101
4454.935845613144,6853.025037154017
4454.959013590669,7183.480761980041
4454.982181688681,7487.107589155469
4455.005349907178,7772.077989008049
4455.028518246162,8135.826161106587
4455.051686705633,8599.404909491104
4455.074855285593,9026.321091859309
4455.098023986041,9735.492111608426
4455.121192806979,10100.997616595614
4455.144361748406,10401.13928082098
4455.167530810323,10465.376721101646
4455.190699992732,10309.248247600744
4455.213869295633,10053.086719879511
4455.237038719026,9571.296168316934
4455.260208262912,9368.427361416198
4455.283377927292,9341.611397841894
4455.306547712166,9575.86440299895
4455.329717617535,10122.973013472218
4455.352887643399,10790.652933264117
4455.37605778976,11709.263912754559
4455.399228056617,12726.502277096797
4455.422398443972,13837.780665401218
4455.445568951825,14639.385686885196
4455.468739580177,15143.054167062846
4455.491910329028,15403.100188918783
4455.515081198378,15282.460227164951
4455.538252188229,15026.947307663782
4455.561423298582,14558.335570059671
4455.584594529436,13868.639486407357
4455.607765880793,13084.937605214202
4455.630937352652,12193.459605626927
4455.654108945016,11176.629676669967
4455.677280657883,10387.178536872227
4455.700452491255,9557.811231264486
4455.723624445134,8770.1987828803
4455.746796519518,7992.572766382483
4455.7699687144095,7248.661295728597
4455.793141029808,6621.2398335363105
4455.816313465714,5993.157062103992
4455.83948602213,5726.362225136401
4455.862658699055,5859.384780792106
4455.885831496489,6242.62411775655
4455.909004414434,6813.486574801057
4455.932177452891,7812.507458941146
4455.955350611858,9081.545536455013
4455.978523891339,10269.074634505734
4456.001697291333,11463.510970544952
4456.024870811841,12745.8794095449
4456.048044452862,13585.925924784102
4456.071218214399,14120.15426128265
4456.094392096451,14265.650728994136
4456.117566099019,14339.927829395163
4456.140740222105,14164.121441328094
4456.163914465707,13782.087646205016
4456.187088829828,13250.005692136605
4456.210263314468,12571.175832110634
4456.233437919626,11822.266220245872
4456.256612645306,10970.556653482747
4456.279787491505,10155.895900172316
4456.302962458226,9470.990327154623
4456.326137545469,9097.89423544512
4456.349312753233,8662.517101158955
4456.372488081522,8609.22311272215
4456.395663530333,8764.558075129407
4456.41883909967,9192.37010638433
4456.442014789531,9382.215240942423
4456.465190599917,9901.402352381212
4456.488366530831,9991.875852370227
4456.5115425822705,10021.550607986743
4456.5347187542375,9942.144779466453
4456.557895046733,9734.810783247545
4456.581071459757,9675.642192206984
4456.604247993311,9587.668143465455
4456.627424647395,9944.888218304959
4456.650601422009,10332.142849433745
4456.673778317154,11110.814848202454
4456.696955332832,12142.754200861982
4456.720132469041,13184.962708670246
4456.7433097257845,14253.296418642009
4456.766487103061,15031.77099886252
4456.789664600872,15563.640760865888
4456.8128422192185,15749.69951327417
4456.8360199581,15884.847641285955
4456.859197817518,15964.079076336131
4456.882375797473,15461.145473129563
4456.905553897966,15202.201892058629
4456.928732118997,14787.904272470689
4456.951910460566,14355.10892107067
4456.975088922674,14117.8670659766
4456.998267505323,13927.105431615671
4457.021446208513,13856.359451789504
4457.044625032244,13918.981076828017
4457.067803976516,13962.412748835935
4457.090983041332,14267.89899339129
4457.1141622266905,14638.825912357963
4457.1373415325925,14774.380504147219
4457.160520959039,14609.698172177446
4457.183700506031,14724.900700087985
4457.206880173568,14376.39638902298
4457.230059961651,13830.913543505729
4457.2532398702815,13074.017102457703
4457.27641989946,12385.101494961493
4457.299600049186,11411.113527095797
4457.322780319461,10382.884342300269
4457.345960710286,9370.490389856268
4457.36914122166,8644.881191644141
4457.392321853586,7727.185017327779
4457.415502606062,7253.9002454607
4457.43868347909,7043.986166656428
4457.461864472672,7135.671802728618
4457.485045586805,7625.361705331095
4457.508226821494,8225.409630875527
4457.5314081767365,9025.897183150812
4457.554589652534,10067.463838167552
4457.577771248887,11260.524778322779
4457.600952965797,12265.270853851314
4457.624134803263,13408.221458928389
4457.647316761288,14417.6047669328
4457.67049883987,15031.73282685224
4457.693681039011,15568.58479713199
4457.716863358712,15787.017965186044
4457.7400457989725,15733.23911766167
4457.763228359793,15440.789620446707
4457.7864110411765,15390.522662704447
4457.809593843121,15241.685291117969
4457.832776765628,14915.963752968855
4457.855959808699,14421.326042566121
4457.879142972333,14046.02398919102
4457.902326256532,13451.79551756126
4457.925509661296,12655.234681437412
4457.948693186626,11870.119295948018
4457.971876832522,11204.610676346701
4457.995060598985,10343.129854272684
4458.018244486016,9434.03120592213
4458.041428493615,8747.497947228721
4458.0646126217825,8342.589836480012
4458.08779687052,8051.598639032469
4458.110981239827,7860.826737270807
4458.134165729705,7911.335104914935
4458.157350340155,8107.7581339975
4458.180535071177,8417.712547900748
4458.203719922771,8668.361066577607
4458.226904894938,9018.752465765996
4458.2500899876795,9376.079745009554
4458.273275200995,9749.904149231108
4458.296460534886,10338.77592315453
4458.3196459893525,10893.164303243228
4458.342831564396,11584.479729141516
4458.366017260016,12086.048695967944
4458.389203076214,12147.789926982648
4458.4123890129895,12158.314642544226
4458.435575070344,12023.91243937235
4458.458761248279,11864.729823677631
4458.481947546794,11772.297238461462
4458.505133965889,11698.48378388443
4458.528320505566,11876.542922039178
4458.551507165825,12356.367257100475
4458.574693946666,13123.473220177497
4458.597880848091,14023.837414226815
4458.6210678701,14979.036883167526
4458.644255012693,15590.888970083864
4458.6674422758715,16118.725123590117
4458.690629659636,16540.71403058001
4458.713817163986,16406.441124762503
4458.737004788924,16003.034767435365
4458.76019253445,15429.071397924017
4458.783380400563,14890.38793325316
4458.8065683872655,14218.64911167153
4458.829756494558,13415.396020889702
4458.85294472244,12217.677578314926
4458.876133070914,11062.55555427339
4458.899321539979,10025.507026528618
4458.922510129635,8833.239353324077
4458.945698839884,7774.179506309027
4458.968887670727,6718.511335157046
4458.992076622164,5808.045412929038
4459.015265694195,5003.827412689777
4459.0384548868215,4299.557344356893
4459.061644200044,3822.0518245318876
4459.084833633862,3702.19456993855
4459.108023188278,3851.850717575464
4459.131212863292,4155.795770684389
4459.154402658904,4433.524826180985
4459.177592575114,5039.914560914148
4459.200782611925,5768.7485687900025
4459.223972769336,6348.319101340822
4459.247163047347,7113.947876641448
4459.27035344596,7845.7184121891
4459.293543965176,8466.043694409505
4459.316734604993,9068.801532505913
4459.339925365414,9635.355711997478
4459.363116246439,10385.042387450689
4459.386307248069,11357.113723822025
4459.409498370304,12247.663248173927
4459.432689613145,13213.047639524428
4459.455880976592,14383.7734944435
4459.479072460647,15243.006429581217
4459.502264065309,15679.524060655842
4459.52545579058,15970.8312407526
4459.5486476364595,15968.84799922075
4459.571839602949,15767.164785516756
4459.595031690048,15381.051879869676
4459.618223897759,14997.678367548697
4459.641416226081,14219.85979797899
4459.664608675014,13743.51675312541
4459.687801244561,13211.559532477895
4459.710993934721,12923.206807350689
4459.734186745496,12826.333968792795
4459.757379676885,12933.9580807266
4459.780572728889,13395.519701794416
4459.803765901509,13858.98978831029
4459.8269591947455,14555.746588307646
4459.850152608599,15414.5924045777
4459.87334614307,15892.079778454414
4459.89653979816,16174.701282899974
4459.91973357387,16192.38620816079
4459.942927470198,15961.340315927479
4459.966121487147,15576.696487865827
4459.989315624717,14897.016795704852
4460.0125098829085,14114.085451359359
4460.035704261722,13254.615600455285
4460.058898761158,12401.816665607656
4460.082093381218,11368.798278103428
4460.105288121902,10335.367899300081
4460.12848298321,9457.679400272133
4460.151677965145,8439.99873306227
4460.1748730677045,7625.702865257414
4460.198068290891,7244.882800740257
4460.221263634704,7041.339155876555
4460.244459099145,7134.017162190706
4460.267654684215,7511.070704011399
4460.290850389914,8322.58323949121
4460.314046216243,9420.66119922047
4460.337242163202,10585.694353706285
4460.360438230791,11661.950022667183
4460.383634419013,12944.48924501271
4460.406830727867,14133.960993281802
4460.430027157354,15233.316016805937
4460.453223707474,16130.445696409794
4460.476420378228,16856.336077429125
4460.499617169617,17509.72598126727
4460.522814081641,17863.57812306648
4460.5460111143,17933.688791227116
4460.569208267598,18188.74283321885
4460.592405541532,18127.00889207399
4460.615602936104,18119.355032762352
4460.638800451314,18113.53318899024
4460.661998087163,17777.19466609115
4460.685195843652,17933.88543284834
4460.708393720782,17603.65991902604
4460.731591718552,17206.439493613136
4460.754789836965,16927.008720206475
4460.777988076019,16641.076153103633
4460.801186435716,16363.399496912742
4460.824384916057,15987.678386789377
4460.847583517042,15604.187934290674
4460.870782238671,15355.750519737387
4460.893981080947,14729.153417256508
4460.917180043868,14032.13001609613
4460.940379127435,13399.708079188506
4460.963578331651,12180.855138075456
4460.986777656513,11090.236570166544
4461.009977102025,10038.792078511122
4461.033176668186,8988.906994336376
4461.056376354995,7991.405566564189
4461.079576162457,7260.509087632798
4461.102776090568,6653.229114787877
4461.125976139332,6244.533066398934
4461.149176308748,5944.02256253621
4461.172376598816,5814.670466062064
4461.195577009538,5921.963519219042
4461.218777540915,6123.598932366864
4461.241978192946,6223.149893453379
4461.265178965633,6623.702269394137
4461.2883798589755,6971.586282345686
4461.311580872974,6884.98662167855
4461.3347820076315,6984.916297327595
4461.357983262946,6655.843446390838
4461.381184638919,6491.574313025953
4461.404386135551,6126.497788687744
4461.4275877528435,5769.597238707611
4461.4507894907965,5419.546231683707
4461.4739913494095,5418.329578203105
4461.497193328685,5134.263159444404
4461.520395428623,4862.410132801854
4461.543597649224,4619.455836565428
4461.566799990488,4392.857232350199
4461.590002452416,4182.516263932084
4461.61320503501,4024.395779158657
4461.636407738269,4077.71933684127
4461.659610562193,4267.9978533803
4461.682813506784,4655.410748363578
4461.706016572044,5243.291448662764
4461.729219757971,5924.323129816495
4461.752423064566,6563.334033244114
4461.775626491831,7409.420875914114
4461.798830039766,7896.876901399518
4461.82203370837,8167.584347619165
4461.845237497647,8516.457028751987
4461.868441407595,8437.63666081717
4461.891645438215,8111.466352112622
4461.914849589509,7700.106441606105
4461.938053861475,7207.972146348825
4461.961258254117,6961.459321651181
4461.984462767433,6920.792925551374
4462.007667401424,7045.498642933844
4462.030872156092,7445.521867884022
4462.0540770314365,8178.312678700404
4462.077282027459,8993.59463837546
4462.100487144158,9835.353803052187
4462.123692381537,10566.79013004228
4462.146897739594,11108.801016386742
4462.170103218332,11477.632778762303
4462.19330881775,11689.218977164308
4462.21651453785,11686.032872540887
4462.239720378631,11614.859558310663
4462.262926340095,11515.366125192078
4462.286132422241,11091.114826435747
4462.309338625071,10808.904743518666
4462.3325449485865,10425.513054315787
4462.355751392785,9842.392773854634
4462.3789579576705,9542.954311094945
4462.402164643242,9247.692365563573
4462.4253714495,9277.760854288797
4462.448578376446,9488.87373335875
4462.471785424079,10123.437742507836
4462.494992592401,11047.607704422779
4462.518199881412,12126.249464063143
4462.541407291114,13192.905991198786
4462.564614821506,14275.766954911229
4462.587822472589,15204.552147585999
4462.611030244365,15502.18227449461
4462.634238136832,15855.729535778306
4462.657446149992,15719.346300921387
4462.680654283847,15428.179017385859
