wave,flux
5000.025812696027,20600.972965475168
5000.051815424163,19948.24847175631
5000.0778182875265,19306.925861504253
5000.103821286119,18518.888246297283
5000.12982441994,17643.022237177272
5000.155827688991,16822.555011278182
5000.181831093272,15962.347931964843
5000.207834632784,14959.640029585873
5000.2338383075285,14099.930519460071
5000.259842117506,13492.051512104266
5000.285846062716,12820.476976803358
5000.311850143161,12380.36571030673
5000.33785435884,12209.58484856418
5000.363858709754,12291.485875274131
5000.389863195905,12638.210542159017
5000.415867817292,13070.808773207991
5000.441872573917,13964.15672384796
5000.4678774657805,14777.459388491594
5000.493882492882,15599.784512064693
5000.519887655224,16285.02415096531
5000.545892952806,16891.432550528672
5000.571898385629,17324.594717487762
5000.597903953694,17364.271005397437
5000.623909657001,17070.363056928578
5000.649915495552,16725.30395871151
5000.675921469346,16507.075362521377
5000.701927578384,16082.692713239669
5000.727933822669,15492.753716187337
5000.7539402021985,15242.248808058008
5000.779946716975,15154.405875116858
5000.805953366999,15337.170619524126
5000.831960152272,15605.55870041796
5000.857967072792,15921.464048703518
5000.883974128563,16264.328408537684
5000.9099813195835,16582.07304236506
5000.935988645855,16599.049714644636
5000.961996107378,16746.674305627304
5000.988003704153,17155.13661970746
5001.014011436181,17472.429239821766
5001.040019303464,17791.100454928608
5001.066027306,18308.859241827788
5001.092035443791,18866.563803296285
5001.118043716839,19167.169760060453
5001.1440521251425,19653.380766851016
5001.170060668704,19867.65489772394
5001.196069347523,20009.3350950097
5001.222078161601,19871.96201521367
5001.248087110937,19709.18262927489
5001.274096195534,19558.82124158955
5001.300105415392,19565.517583600355
5001.326114770512,19245.038395945372
5001.352124260892,18868.434316372637
5001.3781338865365,18755.931849972185
5001.4041436474445,18515.140162012543
5001.430153543616,18104.826317830113
5001.456163575053,17838.941728277678
5001.482173741756,17492.421634762857
5001.508184043724,17054.357700441567
5001.534194480961,16922.57478331589
5001.560205053464,16344.203345241334
5001.586215761236,16118.17960768082
5001.612226604278,15676.398826501178
5001.638237582589,15039.89384291986
5001.664248696171,14513.886725382834
5001.690259945024,13746.646216059997
5001.716271329149,12903.363287937618
5001.742282848547,11963.08455824621
5001.768294503218,10943.794610886003
5001.794306293164,10203.218881068977
5001.820318218383,9578.564978355778
5001.84633027888,9021.820715416989
5001.872342474651,9018.573127685697
5001.8983548056995,9474.030116483225
5001.924367272026,10160.388309353068
5001.9503798736305,11277.823954704345
5001.976392610514,12667.973402280173
5002.002405482678,14182.997332661627
5002.028418490122,15796.001421661616
5002.054431632847,17143.558852728325
5002.080444910854,18227.95173458906
5002.106458324142,19161.93547359935
5002.1324718727155,20064.75260739033
5002.158485556572,20684.778204625385
5002.184499375713,20836.489427169945
5002.210513330139,20988.052177316436
5002.236527419852,21105.637999426683
5002.262541644852,21120.736432686354
5002.288556005138,21222.444872843247
5002.314570500714,21129.956962180586
5002.340585131577,20904.646798947713
5002.36659989773,20770.246258993135
5002.392614799174,20566.98429765971
5002.418629835909,20323.900068085106
5002.444645007936,20033.78054960524
5002.4706603152545,19461.14785090992
5002.496675757866,18995.972956347552
5002.522691335772,18359.502392737177
5002.548707048972,17789.282450117873
5002.574722897468,17119.450419750523
5002.600738881259,16426.45298216768
5002.626755000347,15746.774483760577
5002.652771254732,15024.68399358114
5002.678787644415,14242.594969222999
5002.704804169397,13567.617069969121
5002.730820829678,13152.776370514539
5002.75683762526,12857.354328701475
5002.782854556142,12674.365171813091
5002.8088716223265,12751.878980317131
5002.834888823812,13108.032054815094
5002.860906160601,13969.2162225499
5002.886923632695,15036.583341673739
5002.912941240092,16161.404903261993
5002.938958982793,17531.10766616602
5002.9649768608015,18698.15455650625
5002.990994874116,19747.8812483533
5003.017013022737,20376.356831711466
5003.043031306666,20872.697367727655
5003.069049725905,21307.35829480021
5003.095068280452,21497.322254610062
5003.121086970309,21534.815709305323
5003.147105795477,21566.316414283992
5003.173124755956,21641.34405217173
5003.199143851748,21715.65420291216
5003.225163082852,21736.689352427464
5003.251182449269,21741.189057405874
5003.277201951001,21504.146481789874
5003.3032215880485,21702.99567723332
5003.32924136041,21454.836878715803
5003.35526126809,21409.901035234026
5003.381281311085,21180.619972935223
5003.407301489398,20951.45934115851
5003.433321803031,20978.824822167633
5003.459342251982,20739.150489105596
5003.4853628362525,20413.579397076322
5003.511383555844,20174.90603791769
5003.537404410757,19917.690582613588
5003.563425400991,19661.668414772317
5003.589446526548,19346.898102958472
5003.615467787429,18985.49042893687
5003.641489183634,18536.75792835436
5003.667510715163,17973.366509758096
5003.693532382018,17680.46986514331
5003.719554184199,17129.160840504275
5003.745576121707,16892.46371515907
5003.771598194542,16692.198507251298
5003.797620402706,16575.6602201732
5003.823642746199,16628.984477188897
5003.849665225021,16957.17799834812
5003.875687839174,17214.54444539217
5003.901710588658,17263.625368881992
5003.927733473473,17218.13921702944
5003.953756493622,16950.8570048353
5003.979779649103,16713.707429487156
5004.005802939919,16481.077740341705
5004.031826366068,16239.107445569838
5004.057849927553,16190.8346716077
5004.083873624375,16275.687469273524
5004.109897456533,16473.849878258177
5004.135921424028,16842.176449082603
5004.161945526862,17386.332235559385
5004.187969765035,18028.39111761751
5004.213994138547,18527.228878180504
5004.240018647399,19055.464474572545
5004.266043291592,19043.01882820441
5004.292068071127,19420.38450961505
5004.318092986004,19386.68070199392
5004.344118036223,19482.704350494845
5004.370143221788,19696.059688594054
5004.396168542696,19834.397022379228
5004.422193998949,20032.83889810164
5004.448219590549,20357.127578656295
5004.474245317495,20605.644771673713
5004.500271179789,20971.25271127664
5004.52629717743,21292.175569344854
5004.5523233104195,21364.580308910714
5004.578349578759,21419.873912567702
5004.604375982449,21381.847060132626
5004.630402521489,21529.73876223724
5004.656429195881,21373.830031936945
5004.682456005625,21541.890118834453
5004.708482950721,21362.89407140924
5004.734510031172,21141.9193397819
5004.760537246977,20926.639159280556
5004.7865645981365,20613.941257630227
5004.812592084652,20332.285658836016
5004.838619706525,19861.1534363596
5004.8646474637535,19494.141726936487
5004.890675356341,18816.290283569735
5004.916703384286,18232.970237728696
5004.942731547591,17870.33743230458
5004.968759846256,17348.00060045343
5004.994788280281,16721.523599867785
5005.020816849668,16127.348379087185
5005.046845554417,15556.496172505613
5005.072874394528,15020.239855128066
5005.098903370003,14413.550764540787
5005.124932480842,13785.359785016191
5005.150961727047,13446.03210713003
5005.176991108617,13430.524771196604
5005.203020625552,13640.778786436253
5005.229050277856,13959.712613022191
5005.255080065526,14617.04560486137
5005.281109988566,15994.857263173119
5005.3071400469735,16689.270850683955
5005.333170240751,17360.533834345537
5005.3592005699,17893.73338779254
5005.38523103442,17969.71840872952
5005.411261634312,17872.882846415516
5005.4372923695755,17385.92612076344
5005.463323240213,16633.6142649908
5005.489354246225,15927.394957993103
5005.515385387611,15077.771179341958
5005.541416664373,14093.387154495944
5005.567448076511,13153.496195333333
5005.593479624025,12181.44840172608
5005.619511306918,11127.098205219263
5005.645543125189,10326.047063888618
5005.671575078838,9597.20487057132
5005.697607167867,9009.010405621519
5005.723639392277,8814.949983873516
5005.749671752068,8814.42182446935
5005.77570424724,9018.598467820753
5005.8017368777955,9441.735116913267
5005.8277696437335,10050.26271543061
5005.853802545055,10592.515266289765
5005.879835581762,10927.198296139119
5005.905868753854,11097.665185129734
5005.931902061331,10987.355642435085
5005.957935504196,10528.152228716828
5005.983969082448,9912.282502531829
5006.010002796088,9243.209381810446
5006.036036645117,8539.657892387877
5006.062070629536,7944.259870007313
5006.088104749344,7606.868053791737
5006.114139004544,7577.861697757048
5006.140173395135,7736.33115271713
5006.166207921118,8251.879865050645
5006.192242582495,9270.807531419503
5006.218277379266,10627.190824012165
5006.244312311431,12259.223907609019
5006.270347378991,13801.566749662521
5006.296382581946,15263.09198721568
5006.322417920299,16947.00674018894
5006.348453394048,18088.088514677045
5006.374489003196,19093.592840119956
5006.400524747743,19890.70829151261
5006.426560627688,20193.075280341753
5006.452596643034,20455.097350990203
5006.47863279378,20706.067655705712
5006.504669079928,20800.91534924927
5006.530705501478,20866.783391801324
5006.556742058431,20947.39496031895
5006.582778750788,20899.084198126566
5006.608815578549,20694.012108714094
5006.634852541715,20676.810748913515
5006.660889640287,20714.159702536
5006.686926874265,20786.88451698556
5006.71296424365,20644.613171499903
5006.739001748444,20439.156688681127
5006.765039388645,20625.270435456812
5006.791077164256,20512.793137267377
5006.817115075277,20413.68345749646
5006.843153121708,20045.898650164607
5006.869191303552,19662.832413970937
5006.895229620806,19197.77276609292
5006.921268073474,18702.977375368217
5006.947306661555,17829.47428668605
5006.97334538505,16945.955168974288
5006.999384243961,16199.838869750483
5007.025423238286,15120.93628814604
5007.051462368028,13946.785071002032
5007.077501633187,12924.856726288732
5007.103541033764,11802.963638912513
5007.129580569759,10685.650189709353
5007.155620241173,9762.166262278322
5007.181660048007,9024.688312485663
5007.207699990262,8367.624912056172
5007.233740067937,8127.490304469011
5007.259780281035,8270.142419878144
5007.285820629555,8872.0562442456
5007.311861113499,9730.509623756265
5007.337901732866,11024.88753982732
5007.363942487658,12298.978316662382
5007.389983377876,13852.279073317544
5007.41602440352,15263.457842600174
5007.442065564591,16733.225860326034
5007.468106861089,17900.060201587683
5007.494148293015,18794.678025024637
5007.520189860371,19276.41068703978
5007.546231563156,19652.101773780272
5007.572273401372,19858.686392481468
5007.598315375018,19909.706692548578
5007.624357484096,19959.993075782266
5007.650399728607,19781.891409002266
5007.676442108551,19480.60554106121
5007.702484623929,19373.03790868106
5007.728527274741,19374.84943810336
5007.754570060989,19323.25219921677
5007.780612982673,19583.485690706882
5007.806656039793,20004.030726823094
5007.832699232351,20495.32113467354
5007.858742560347,20877.79969775961
5007.884786023782,21328.00662029999
5007.910829622656,21720.691902237562
5007.936873356971,22070.729566039638
5007.962917226726,22279.708656290528
5007.988961231923,22300.621258811712
5008.015005372563,22311.592933999054
5008.041049648646,22378.28626971332
5008.067094060171,22345.112986630826
5008.0931386071425,22430.52013334909
5008.119183289558,22535.31960900579
5008.14522810742,22440.20562529926
5008.171273060728,22405.816686994247
5008.197318149483,22568.05614947702
5008.223363373687,22593.633117966772
5008.249408733339,22575.197849830653
5008.27545422844,22728.160891448893
5008.301499858992,22794.36197950496
5008.327545624995,22807.741565939392
5008.353591526448,22598.787351498602
5008.379637563355,22542.31176204604
5008.405683735714,22397.27641606667
5008.431730043527,22154.01353247065
5008.457776486794,22105.362138366
5008.483823065515,21972.674834017493
5008.509869779693,21687.619959774427
5008.535916629327,21575.223951234748
5008.561963614418,21376.774381648207
5008.588010734968,21209.82394945593
5008.614057990975,21311.5024108356
5008.640105382442,21149.02660483228
5008.666152909369,21085.390445627978
5008.692200571756,21130.46676236033
5008.718248369605,21139.233188086473
5008.744296302916,21428.65848114658
5008.77034437169,21865.306688583147
5008.796392575927,22154.232920892293
5008.822440915628,22325.17611205422
5008.848489390794,22377.06287780586
5008.874538001426,22437.96461383859
5008.900586747524,22495.83744178023
5008.926635629089,22419.283687386374
5008.952684646122,22502.848669871764
5008.978733798623,22468.007486391463
5009.004783086593,22507.494135510355
5009.030832510033,22382.34063145137
5009.056882068944,22454.314593782678
5009.082931763326,22597.736528089317
5009.108981593179,22441.380519060178
5009.135031558506,22427.469604236976
5009.161081659306,22641.055447176444
5009.187131895579,22451.19291493709
5009.213182267327,22477.199292296278
5009.239232774552,22325.559820001457
5009.265283417251,22175.992694192606
5009.291334195428,22232.47994651518
5009.317385109083,22205.088694749702
5009.343436158216,21904.93728010793
5009.369487342828,21635.29784598396
5009.395538662919,21421.698954155363
5009.421590118491,21145.220272269667
5009.447641709544,20867.534395094626
5009.473693436078,20554.791541721705
5009.499745298095,20249.532712476816
5009.525797295596,20059.635123331336
5009.55184942858,19884.33578711162
5009.577901697049,19566.785845257735
5009.603954101003,19403.768058497822
5009.630006640443,19120.011322124883
5009.65605931537,18991.172336872896
5009.682112125784,19020.56510147628
5009.708165071686,19177.051568637682
5009.7342181530785,19359.37816015144
5009.760271369959,19637.971934561818
5009.78632472233,19810.518158161096
5009.812378210192,19721.415998928635
5009.838431833546,19761.479184990465
5009.864485592391,19441.287592946395
5009.890539486731,18906.59986775076
5009.916593516564,18303.767084390816
5009.942647681891,17653.533326801316
5009.968701982713,16922.108862395227
5009.994756419032,16166.347384955976
5010.020810990847,15550.351724074459
5010.046865698159,14965.449252776341
5010.072920540969,14440.685143841289
5010.098975519279,14092.154734010473
5010.125030633087,13921.448811051054
5010.151085882395,13896.910497258612
5010.177141267204,13880.687782710324
5010.2031967875155,14029.3219766826
5010.229252443328,14372.803795760301
5010.255308234644,14944.75879021641
5010.281364161464,15593.499231090054
5010.307420223788,16346.989251335088
5010.333476421617,17372.340948162742
5010.359532754951,18543.7745406969
5010.3855892237925,19559.673275996363
5010.4116458281405,20447.409386899948
5010.437702567997,21130.419817924623
5010.463759443362,21571.076777441882
5010.489816454236,21966.916466854964
5010.51587360062,22223.532754139753
5010.541930882514,22204.83858869515
5010.56798829992,22235.108488633516
5010.5940458528385,22195.92680961208
5010.62010354127,21983.39993906552
5010.646161365214,21587.78786868378
5010.672219324672,21261.566474050705
5010.698277419646,20898.4098872066
5010.724335650135,20412.401668907343
5010.7503940161405,19902.888019763708
5010.7764525176635,19251.8343079681
5010.802511154703,18644.097424850028
5010.828569927262,18166.884581963386
5010.85462883534,17521.072945217733
5010.880687878937,16971.210532155772
5010.906747058056,16710.053520892652
5010.932806372695,16499.278344815142
5010.958865822856,16476.52158061158
5010.98492540854,16746.136556379413
5011.0109851297475,17526.01045822874
5011.0370449864795,18167.403588976762
5011.063104978735,19025.54861193775
5011.089165106517,20206.721020794106
5011.115225369825,20876.217227044213
5011.14128576866,21349.87385234473
5011.167346303022,21773.07816141902
5011.193406972913,22048.24546940235
5011.219467778333,22154.18899003863
5011.2455287192815,22315.098948274113
5011.271589795761,22375.951515495013
5011.297651007772,22393.859737914663
5011.323712355315,22473.333092929857
5011.34977383839,22473.041200602976
5011.375835456999,22410.86666206297
5011.401897211142,22395.402959635067
5011.427959100819,22327.20166262841
5011.454021126031,22106.09922633886
5011.4800832867795,21865.91552177706
5011.506145583065,21602.740210622032
5011.532208014888,21306.867064928687
5011.558270582248,20975.361458464293
5011.584333285148,20551.131561930204
5011.610396123588,20168.643062525956
5011.636459097567,19613.842914302935
5011.662522207088,19021.87052916989
5011.68858545215,18522.341600034477
5011.714648832754,17728.329098965613
5011.740712348902,16970.358136655785
5011.766776000594,16124.34386599976
5011.79283978783,15405.899501016283
5011.818903710611,14662.977454993033
5011.844967768939,13742.852121939954
5011.871031962813,12966.074701602558
5011.897096292234,11964.134322356957
5011.923160757203,10924.499625024226
5011.949225357721,9814.420509601063
5011.975290093788,8810.137176079112
5012.001354965406,7877.278284382299
5012.027419972574,7208.964383002504
5012.053485115294,6701.914239075497
5012.079550393566,6513.836703407962
5012.105615807392,6748.893613235745
5012.13168135677,7268.822842247806
5012.157747041703,7957.079744985104
5012.183812862192,8958.09942901389
5012.209878818236,10013.104855004944
5012.235944909837,11115.305404951558
5012.262011136994,12250.67333235023
5012.28807749971,13050.47603635763
5012.3141439979845,13627.47330616241
5012.340210631818,14125.95399667439
5012.366277401212,14342.550071772657
5012.392344306166,14217.758187403653
5012.418411346682,14011.165922217644
5012.44447852276,13885.538519038333
5012.470545834401,13935.802539264067
5012.496613281605,14112.629799243263
5012.522680864374,14501.316298390628
5012.548748582707,15234.26505472108
5012.574816436606,15803.070294870618
5012.600884426071,16373.571393653225
5012.626952551104,16923.19670407508
5012.653020811705,17371.01655482145
5012.679089207873,17640.495456352233
5012.705157739611,17657.721593754355
5012.73122640692,17848.304057943184
5012.757295209798,18496.66905621905
5012.7833641482475,19092.172250928972
5012.80943322227,19561.636301457213
5012.835502431864,20117.479012239448
5012.861571777033,20706.514194906205
5012.887641257775,21173.95630578416
5012.9137108740915,21365.50482651955
5012.939780625984,21501.10390824099
5012.965850513452,21359.134986253484
5012.991920536498,21093.699675246695
5013.017990695121,20796.4409166676
5013.044060989323,20414.522533414667
5013.070131419104,20136.43984333377
5013.096201984464,19595.180150757817
5013.122272685405,18906.65818209712
5013.148343521927,18235.599864907974
5013.17441449403,17432.69939413832
5013.200485601717,16764.73046659426
5013.226556844987,15963.35983159638
5013.2526282238405,15285.791919227104
5013.278699738279,14738.945266135477
5013.304771388303,14276.198417068532
5013.330843173913,13887.74521601707
5013.35691509511,13772.816423482522
5013.382987151894,13857.107030466805
5013.409059344267,14048.658515659827
5013.435131672228,14329.889743367305
5013.46120413578,14337.618671770944
5013.487276734921,14411.729540193051
5013.513349469653,14137.842244166446
5013.539422339977,13556.520148094927
5013.565495345894,12956.11110136016
5013.5915684874035,12135.67816143073
5013.617641764507,11515.838731674627
5013.643715177206,10894.328544928407
5013.6697887254995,10419.269743657462
5013.695862409389,10301.774433227074
5013.721936228875,10468.904312925906
5013.748010183958,11012.992482707186
5013.77408427464,11860.19481999659
5013.800158500921,12839.361289725497
5013.826232862801,13939.566601960087
5013.852307360281,14893.1801005355
5013.8783819933615,15503.546603235072
5013.904456762045,15986.596799635274
5013.930531666329,16165.426099993781
5013.956606706218,16090.773661890968
5013.982681881709,15837.013033147105
5014.008757192805,15274.129682239782
5014.034832639507,14650.135755203077
5014.060908221814,13862.708056023566
5014.086983939728,12810.083914507335
5014.113059793249,11909.748997394228
5014.139135782378,11019.5104363252
5014.165211907116,9950.519825285473
5014.1912881674625,9159.140713365085
5014.21736456342,8701.227605730342
