wave,flux
5000.025812696027,17000.529479623718
5000.051815424163,16713.967214655142
5000.0778182875265,16085.287931916691
5000.103821286119,15518.461707454058
5000.12982441994,14910.91781040401
5000.155827688991,14298.220540349595
5000.181831093272,13694.8391720272
5000.207834632784,12995.029563431914
5000.2338383075285,12237.991240223757
5000.259842117506,11533.658697947842
5000.285846062716,11025.55705637041
5000.311850143161,10691.49194340888
5000.33785435884,10257.460151143066
5000.363858709754,10215.453661870806
5000.389863195905,10446.104584068462
5000.415867817292,10540.912605720869
5000.441872573917,10952.405362610742
5000.4678774657805,11577.477778884273
5000.493882492882,12265.06621103068
5000.519887655224,12829.438823279776
5000.545892952806,13394.977480392372
5000.571898385629,13808.541579988632
5000.597903953694,14086.03338015534
5000.623909657001,14136.6158567681
5000.649915495552,13958.39182857218
5000.675921469346,13763.297039336547
5000.701927578384,13482.700539890036
5000.727933822669,13227.405776197304
5000.7539402021985,12789.110415906376
5000.779946716975,12726.386669207572
5000.805953366999,12493.410090341184
5000.831960152272,12689.222093218787
5000.857967072792,12955.002577585126
5000.883974128563,13163.219576438089
5000.9099813195835,13472.393567454299
5000.935988645855,13664.2276434424
5000.961996107378,13800.88514114829
5000.988003704153,14011.462857488435
5001.014011436181,14215.70714080448
5001.040019303464,14527.02316706347
5001.066027306,14906.366806066017
5001.092035443791,15175.016723668903
5001.118043716839,15534.110522487596
5001.1440521251425,15814.74955976502
5001.170060668704,16108.839055060222
5001.196069347523,16434.416212088705
5001.222078161601,16310.80840687943
5001.248087110937,16309.72543336484
5001.274096195534,16116.819995596334
5001.300105415392,15971.985981151727
5001.326114770512,15789.376475743287
5001.352124260892,15639.258715551128
5001.3781338865365,15539.431931199624
5001.4041436474445,15296.152630269844
5001.430153543616,15004.428743269142
5001.456163575053,14782.006985163602
5001.482173741756,14518.3452917599
5001.508184043724,14221.974055370923
5001.534194480961,13916.157439912748
5001.560205053464,13626.56742472931
5001.586215761236,13310.718602248855
5001.612226604278,13023.36316859502
5001.638237582589,12560.736200065974
5001.664248696171,12342.403522400218
5001.690259945024,11766.326174445117
5001.716271329149,11165.90142704327
5001.742282848547,10298.60729381994
5001.768294503218,9614.429593918536
5001.794306293164,8926.248592446866
5001.820318218383,8325.75731389231
5001.84633027888,7915.308618423059
5001.872342474651,7617.066213929556
5001.8983548056995,7619.496551864645
5001.924367272026,7945.974722454154
5001.9503798736305,8639.046814812953
5001.976392610514,9626.318566859856
5002.002405482678,10668.30680095916
5002.028418490122,11982.89291145495
5002.054431632847,13193.95249839657
5002.080444910854,14336.37840705559
5002.106458324142,15260.843953260393
5002.1324718727155,15880.855323280173
5002.158485556572,16560.907397056457
5002.184499375713,17019.270763870136
5002.210513330139,17224.937566600274
5002.236527419852,17372.850138376125
5002.262541644852,17468.171220793967
5002.288556005138,17391.58770244101
5002.314570500714,17295.12278656897
5002.340585131577,17338.388343033774
5002.36659989773,17248.642583070134
5002.392614799174,17042.892342090916
5002.418629835909,16920.522559647277
5002.444645007936,16489.23195692062
5002.4706603152545,16249.555597573377
5002.496675757866,15880.546773375496
5002.522691335772,15339.636991430134
5002.548707048972,14830.56950370115
5002.574722897468,14353.164964866615
5002.600738881259,13785.22940528058
5002.626755000347,13293.723534723697
5002.652771254732,12839.030642120135
5002.678787644415,12264.546805583737
5002.704804169397,11651.420633001107
5002.730820829678,11251.939602549724
5002.75683762526,10935.53002344797
5002.782854556142,10592.634361922292
5002.8088716223265,10580.399698303445
5002.834888823812,10734.154737493793
5002.860906160601,11152.745520043489
5002.886923632695,11711.399942079383
5002.912941240092,12664.597841208646
5002.938958982793,13642.214713311938
5002.9649768608015,14748.697503582958
5002.990994874116,15718.872087907845
5003.017013022737,16422.058666115117
5003.043031306666,16825.68356572945
5003.069049725905,17112.443202032922
5003.095068280452,17587.17513961869
5003.121086970309,17848.1794130091
5003.147105795477,17709.56831612095
5003.173124755956,17727.645937814905
5003.199143851748,17845.242761116067
5003.225163082852,17715.83038274639
5003.251182449269,17683.67540412385
5003.277201951001,17692.930752984797
5003.3032215880485,17717.609903280896
5003.32924136041,17734.631772570952
5003.35526126809,17543.504450636447
5003.381281311085,17268.04113683251
5003.407301489398,17487.73332099949
5003.433321803031,17154.433087012036
5003.459342251982,17161.15813549166
5003.4853628362525,16987.67617813822
5003.511383555844,16757.488477555264
5003.537404410757,16586.123793753035
5003.563425400991,16299.846914007461
5003.589446526548,16071.813228159637
5003.615467787429,15851.682062695443
5003.641489183634,15486.179667704462
5003.667510715163,15131.14073447575
5003.693532382018,14811.918550245111
5003.719554184199,14480.363310567607
5003.745576121707,13991.335408982328
5003.771598194542,13748.797670658141
5003.797620402706,13647.147502110409
5003.823642746199,13480.304373077928
5003.849665225021,13686.396755201526
5003.875687839174,13790.563374698368
5003.901710588658,14073.085763642192
5003.927733473473,14146.656345993635
5003.953756493622,14071.328579638172
5003.979779649103,13945.541677082987
5004.005802939919,13543.517712158187
5004.031826366068,13460.375591640477
5004.057849927553,13461.653913066455
5004.083873624375,13303.846358586012
5004.109897456533,13403.789268956603
5004.135921424028,13697.691552288992
5004.161945526862,14145.315602687415
5004.187969765035,14395.020887382243
5004.213994138547,14912.882857857996
5004.240018647399,15293.02749387374
5004.266043291592,15529.181229060268
5004.292068071127,15898.204124425487
5004.318092986004,15822.889255999095
5004.344118036223,15889.312045753333
5004.370143221788,16199.011641102406
5004.396168542696,16291.87602999126
5004.422193998949,16353.716701400435
5004.448219590549,16546.56511186971
5004.474245317495,16834.26182687686
5004.500271179789,17120.282907510868
5004.52629717743,17228.402582066472
5004.5523233104195,17343.14962753479
5004.578349578759,17547.85775540372
5004.604375982449,17592.62112713784
5004.630402521489,17626.293566387463
5004.656429195881,17641.283630279362
5004.682456005625,17508.59225588334
5004.708482950721,17638.83243062858
5004.734510031172,17662.792612755442
5004.760537246977,17216.48750904601
5004.7865645981365,17081.365459602173
5004.812592084652,16869.922274912547
5004.838619706525,16525.833513046473
5004.8646474637535,16229.217221391049
5004.890675356341,15790.651810325275
5004.916703384286,15267.508671453621
5004.942731547591,14836.241398376085
5004.968759846256,14462.569889869748
5004.994788280281,14028.705975138355
5005.020816849668,13551.832217647763
5005.046845554417,13146.211254703074
5005.072874394528,12755.438234770972
5005.098903370003,12240.215370231212
5005.124932480842,11754.623545573131
5005.150961727047,11447.507005313877
5005.176991108617,11165.642717373308
5005.203020625552,11049.709116312097
5005.229050277856,11312.792427472015
5005.255080065526,11769.555562063053
5005.281109988566,12372.840046686075
5005.3071400469735,13145.472071486025
5005.333170240751,13867.465758333396
5005.3592005699,14312.738091889449
5005.38523103442,14634.630525221759
5005.411261634312,14586.628546321486
5005.4372923695755,14362.231852390587
5005.463323240213,13973.62537016517
5005.489354246225,13453.219591920682
5005.515385387611,12846.107655167312
5005.541416664373,12116.914206558109
5005.567448076511,11324.671898412875
5005.593479624025,10536.691628392706
5005.619511306918,9804.022709604533
5005.645543125189,9056.795438906029
5005.671575078838,8462.498858986723
5005.697607167867,7881.361574165782
5005.723639392277,7354.242164925853
5005.749671752068,7258.469239707535
5005.77570424724,7328.152165324305
5005.8017368777955,7483.542275622714
5005.8277696437335,7890.527852836981
5005.853802545055,8199.078199286705
5005.879835581762,8575.974461448164
5005.905868753854,8952.571532337366
5005.931902061331,9020.786327746098
5005.957935504196,8819.682929351315
5005.983969082448,8485.663424622482
5006.010002796088,7972.361288443814
5006.036036645117,7497.7384304675
5006.062070629536,7049.826695297166
5006.088104749344,6558.446676717697
5006.114139004544,6341.822083339637
5006.140173395135,6313.481064721289
5006.166207921118,6572.40135700346
5006.192242582495,7155.260939259686
5006.218277379266,8102.712046969714
5006.244312311431,9060.981402280939
5006.270347378991,10455.991472546213
5006.296382581946,11536.547014069729
5006.322417920299,12982.154110587542
5006.348453394048,14089.838719921752
5006.374489003196,15038.760275143848
5006.400524747743,15735.925165997853
5006.426560627688,16385.784422489265
5006.452596643034,16718.661914351935
5006.47863279378,16809.105128304574
5006.504669079928,17111.103073818238
5006.530705501478,17064.91771288656
5006.556742058431,16966.434852180308
5006.582778750788,17119.896580062392
5006.608815578549,17043.379954585744
5006.634852541715,17098.939030867583
5006.660889640287,17120.603016556568
5006.686926874265,17069.89064882335
5006.71296424365,17152.62842859157
5006.739001748444,17089.61016838398
5006.765039388645,17039.399094394543
5006.791077164256,16856.241840374147
5006.817115075277,16775.552385695915
5006.843153121708,16626.05665235312
5006.869191303552,16421.63030091621
5006.895229620806,15946.205549485045
5006.921268073474,15483.685230364845
5006.947306661555,14944.258320563411
5006.97334538505,14304.29267300723
5006.999384243961,13684.527924020307
5007.025423238286,12976.861498583567
5007.051462368028,12157.063928997195
5007.077501633187,11226.057390638478
5007.103541033764,10276.017162178703
5007.129580569759,9443.166277172935
5007.155620241173,8686.332493323534
5007.181660048007,8007.4338875065605
5007.207699990262,7387.44409012537
5007.233740067937,6913.394300597878
5007.259780281035,6855.631815509032
5007.285820629555,6963.315117827822
5007.311861113499,7572.379876820838
5007.337901732866,8313.066211762274
5007.363942487658,9376.842281719244
5007.389983377876,10390.884047703832
5007.41602440352,11572.608035100255
5007.442065564591,12941.902383557233
5007.468106861089,13988.649880753588
5007.494148293015,14723.225247636215
5007.520189860371,15496.108070304428
5007.546231563156,15993.229959705406
5007.572273401372,16242.328632415667
5007.598315375018,16332.04414799348
5007.624357484096,16313.715509591802
5007.650399728607,16320.91256232635
5007.676442108551,16227.826834591435
5007.702484623929,16085.59547247481
5007.728527274741,16078.19935138685
5007.754570060989,16053.004106912018
5007.780612982673,16086.747972401674
5007.806656039793,16231.44088841249
5007.832699232351,16416.640494944662
5007.858742560347,16953.664320698164
5007.884786023782,17200.353836078797
5007.910829622656,17666.070269271484
5007.936873356971,17859.672103509492
5007.962917226726,18175.179585752863
5007.988961231923,18327.051856423663
5008.015005372563,18357.711744618686
5008.041049648646,18275.829412296054
5008.067094060171,18410.56475668213
5008.0931386071425,18453.30749028668
5008.119183289558,18387.824196945334
5008.14522810742,18506.84144522661
5008.171273060728,18541.206632420697
5008.197318149483,18497.687935883627
5008.223363373687,18526.00220382327
5008.249408733339,18644.847198719253
5008.27545422844,18723.91275959912
5008.301499858992,18630.07981244886
5008.327545624995,18626.82433015382
5008.353591526448,18635.663384404957
5008.379637563355,18511.17883242965
5008.405683735714,18390.657030632006
5008.431730043527,18312.423692856428
5008.457776486794,18340.21077372008
5008.483823065515,18184.167659659564
5008.509869779693,17997.979098410724
5008.535916629327,17813.909564543883
5008.561963614418,17809.706885854484
5008.588010734968,17584.31731224104
5008.614057990975,17619.945103571867
5008.640105382442,17372.379494975747
5008.666152909369,17395.947802259267
5008.692200571756,17488.134542761054
5008.718248369605,17501.910244865107
5008.744296302916,17521.573360388265
5008.77034437169,17696.089268890075
5008.796392575927,18083.48995682499
5008.822440915628,18294.84974151695
5008.848489390794,18292.333184702595
5008.874538001426,18367.24717577074
5008.900586747524,18361.482943072893
5008.926635629089,18394.617242120243
5008.952684646122,18522.606977839227
5008.978733798623,18341.842085967994
5009.004783086593,18382.731259261913
5009.030832510033,18400.38243140552
5009.056882068944,18459.704240685664
5009.082931763326,18603.535464241297
5009.108981593179,18484.801087219414
5009.135031558506,18500.085087794585
5009.161081659306,18479.90754478223
5009.187131895579,18525.885906724758
5009.213182267327,18446.342527756216
5009.239232774552,18403.98070407099
5009.265283417251,18367.296255072837
5009.291334195428,18288.814442606432
5009.317385109083,18175.326467464314
5009.343436158216,18090.39391287949
5009.369487342828,18015.72865054655
5009.395538662919,17896.579835888133
5009.421590118491,17647.467939221082
5009.447641709544,17253.96988586485
5009.473693436078,17035.19098313659
5009.499745298095,16950.255365029803
5009.525797295596,16727.508921025612
5009.55184942858,16499.860989210534
5009.577901697049,16260.626622866817
5009.603954101003,16049.2782536385
5009.630006640443,15845.54935748956
5009.65605931537,15733.924706552505
5009.682112125784,15655.01973969808
5009.708165071686,15760.240928789788
5009.7342181530785,15754.27370701924
5009.760271369959,15760.466475120998
5009.78632472233,16117.104822887906
5009.812378210192,16120.020214636676
5009.838431833546,16098.954216423424
5009.864485592391,15945.904442154355
5009.890539486731,15734.935480703374
5009.916593516564,15374.03388817343
5009.942647681891,14923.342526551249
5009.968701982713,14384.27686686604
5009.994756419032,13768.524220022895
5010.020810990847,13162.14057622614
5010.046865698159,12537.281326040662
5010.072920540969,12228.862129443596
5010.098975519279,11898.414168394804
5010.125030633087,11522.430246397125
5010.151085882395,11478.16787377435
5010.177141267204,11485.02153527303
5010.2031967875155,11540.632135742939
5010.229252443328,11737.656088063648
5010.255308234644,12068.623600114806
5010.281364161464,12426.57706358467
5010.307420223788,13008.329711061115
5010.333476421617,13783.01017093202
5010.359532754951,14601.654484617984
5010.3855892237925,15435.352118628207
5010.4116458281405,16121.046422448566
5010.437702567997,16788.961629496258
5010.463759443362,17364.929683821912
5010.489816454236,17781.188549098933
5010.51587360062,17990.001873087705
5010.541930882514,18142.22950131508
5010.56798829992,18257.067299721322
5010.5940458528385,18271.033662984355
5010.62010354127,18070.142259566117
5010.646161365214,17943.97253524819
5010.672219324672,17728.590840458684
5010.698277419646,17331.57036207563
5010.724335650135,17048.55882275671
5010.7503940161405,16643.71071487459
5010.7764525176635,16083.357013541452
5010.802511154703,15635.897688371957
5010.828569927262,15146.673542847659
5010.85462883534,14664.791975274531
5010.880687878937,14354.578802694525
5010.906747058056,14079.406032815448
5010.932806372695,13859.200900119797
5010.958865822856,13724.304810108571
5010.98492540854,13761.22295315781
5011.0109851297475,14031.362969369948
5011.0370449864795,14608.372770897464
5011.063104978735,15198.277481177656
5011.089165106517,15984.33343001889
5011.115225369825,16794.65750756947
5011.14128576866,17063.28904929604
5011.167346303022,17588.5140269034
5011.193406972913,17774.96683747126
5011.219467778333,18136.867793202087
5011.2455287192815,18287.351257656755
5011.271589795761,18418.75762928992
5011.297651007772,18523.071185522578
5011.323712355315,18474.835021876966
5011.34977383839,18416.879843100116
5011.375835456999,18394.564938018026
5011.401897211142,18525.484433340393
5011.427959100819,18467.6510483493
5011.454021126031,18152.06461011682
5011.4800832867795,18100.30680291515
5011.506145583065,17941.23129597729
5011.532208014888,17704.048556188154
5011.558270582248,17463.177858522078
5011.584333285148,17024.595706703323
5011.610396123588,16763.560399317383
5011.636459097567,16420.245119754625
5011.662522207088,15974.188108023503
5011.68858545215,15556.63156246811
5011.714648832754,14902.279333458122
5011.740712348902,14184.468787251304
5011.766776000594,13529.20767857258
5011.79283978783,13031.497563975896
5011.818903710611,12398.913640246903
5011.844967768939,11758.279162578949
5011.871031962813,11086.378500922166
5011.897096292234,10385.397104733636
5011.923160757203,9561.849685182497
5011.949225357721,8745.584634125842
5011.975290093788,7932.02439852988
5012.001354965406,7154.197277717638
5012.027419972574,6475.17920397552
5012.053485115294,5970.176485199884
5012.079550393566,5593.267565305228
5012.105615807392,5538.28924668078
5012.13168135677,5683.112989217352
5012.157747041703,6118.77913885357
5012.183812862192,6844.868770894542
5012.209878818236,7608.822683524085
5012.235944909837,8342.91870318301
5012.262011136994,9286.748054976193
5012.28807749971,10203.211961097213
5012.3141439979845,10825.57332207864
5012.340210631818,11423.53874562588
5012.366277401212,11786.066494640421
5012.392344306166,11766.735744847168
5012.418411346682,11658.76136321645
5012.44447852276,11510.995147399826
5012.470545834401,11569.485262887341
5012.496613281605,11583.484268214543
5012.522680864374,11721.989799379995
5012.548748582707,12113.443450791914
5012.574816436606,12510.332690043682
5012.600884426071,13160.892942189459
5012.626952551104,13727.738730861041
5012.653020811705,13948.211811540332
5012.679089207873,14300.05200397875
5012.705157739611,14553.429589392956
5012.73122640692,14861.147395042855
5012.757295209798,15045.10697264735
5012.7833641482475,15384.494240632881
5012.80943322227,15716.136279203187
5012.835502431864,16292.563989764312
5012.861571777033,16659.57027983902
5012.887641257775,17241.29115816092
5012.9137108740915,17536.855122611407
5012.939780625984,17585.36194102893
5012.965850513452,17487.209590948536
5012.991920536498,17462.814273613196
5013.017990695121,17275.93364909022
5013.044060989323,16989.637380317487
5013.070131419104,16654.29795922412
5013.096201984464,16246.591575670345
5013.122272685405,15880.701089575314
5013.148343521927,15410.265912458564
5013.17441449403,14843.084657110796
5013.200485601717,14256.573464745192
5013.226556844987,13572.683489645871
5013.2526282238405,12999.429272402445
5013.278699738279,12510.827505975984
5013.304771388303,11952.344425746565
5013.330843173913,11589.278858854048
5013.35691509511,11417.267031215148
5013.382987151894,11396.328993853685
5013.409059344267,11436.476129568051
5013.435131672228,11615.948015228812
5013.46120413578,11672.249189827444
5013.487276734921,11781.12662134045
5013.513349469653,11711.011157977866
5013.539422339977,11376.457394914529
5013.565495345894,10988.307195295745
5013.5915684874035,10482.5174294552
5013.617641764507,10078.344437028427
5013.643715177206,9486.796106758164
5013.6697887254995,8919.290432826618
5013.695862409389,8653.124458576269
5013.721936228875,8669.216285956938
5013.748010183958,8831.699204120978
5013.77408427464,9297.718398096058
5013.800158500921,9925.95956306444
5013.826232862801,10743.331113055698
5013.852307360281,11473.17164740798
5013.8783819933615,12246.027114372338
5013.904456762045,12797.78038631552
5013.930531666329,13074.625803622142
5013.956606706218,13189.076709521083
5013.982681881709,13109.424914758052
5014.008757192805,12715.839302139777
5014.034832639507,12280.273773849329
5014.060908221814,11771.500592269042
5014.086983939728,11067.668186041708
5014.113059793249,10399.946350806287
5014.139135782378,9673.366051048333
5014.165211907116,8880.194868261224
5014.1912881674625,8206.96426420649
5014.21736456342,7636.0978682018595
