wave,flux
4450.003811362098,14071.988891990468
4450.026953690486,14277.786090973354
4450.050096139227,14081.184355799362
4450.073238708321,14022.42540477698
4450.096381397769,13708.600642439907
4450.119524207569,13269.524862898726
4450.142667137726,12787.670283528929
4450.165810188237,12169.938988185924
4450.188953359103,11324.074624772744
4450.212096650326,10579.072967267779
4450.2352400619075,9712.267615195851
4450.258383593846,8741.04965660238
4450.281527246142,7823.212867417822
4450.304671018797,6923.891691162237
4450.327814911813,6151.94450769344
4450.350958925188,5471.724627461859
4450.374103058924,4781.787064173846
4450.3972473130225,4247.275077191258
4450.420391687483,3884.5408622775867
4450.443536182305,3624.3180949035564
4450.466680797492,3516.034137591468
4450.489825533042,3478.840348506071
4450.512970388957,3616.1535376912598
4450.536115365237,3842.45897702883
4450.559260461882,4134.374686278682
4450.582405678895,4643.630430228704
4450.605551016274,5361.4736467068815
4450.628696474022,5904.695572073821
4450.651842052138,6735.273389405866
4450.674987750623,7078.867368158761
4450.698133569476,7624.142317091392
4450.721279508702,7912.368140111789
4450.744425568297,8069.414232171432
4450.767571748264,8075.656618927867
4450.790718048604,8302.66031079837
4450.813864469315,8501.782256657969
4450.837011010401,8825.299686838549
4450.86015767186,9191.19608513097
4450.883304453694,9678.095536657633
4450.906451355903,10214.279951210789
4450.929598378489,10797.678257229833
4450.95274552145,11598.105791301892
4450.975892784789,12419.172560872918
4450.999040168505,13132.727934286335
4451.022187672601,13985.032482687628
4451.045335297074,14857.726067405209
4451.068483041929,15581.676678561555
4451.091630907163,16068.650322216983
4451.114778892777,16277.827262333763
4451.137926998774,16636.167405627504
4451.161075225153,16703.103774369007
4451.184223571914,16458.645805060525
4451.207372039059,16550.02076997672
4451.230520626587,16479.89665676537
4451.253669334501,16176.903577926636
4451.2768181628,15790.635229457948
4451.299967111485,15367.345481597056
4451.323116180556,14758.41028738346
4451.346265370014,14111.44666554363
4451.369414679861,13344.762369194726
4451.392564110095,12631.633656005797
4451.415713660719,11815.233503978947
4451.438863331732,10929.287931202365
4451.462013123136,10221.41497343686
4451.48516303493,9521.604786497175
4451.508313067117,8751.228604764505
4451.531463219695,8005.724337864317
4451.554613492666,7674.631171863294
4451.577763886031,7281.49040724309
4451.60091439979,6971.725506730026
4451.624065033943,7304.3078795964675
4451.647215788492,7773.244868213769
4451.670366663436,8646.371429205301
4451.693517658777,9536.371730834695
4451.716668774516,10546.888913922186
4451.739820010652,11694.844462037645
4451.762971367186,12562.890756194496
4451.78612284412,13022.827434661802
4451.8092744414525,13407.27061205648
4451.832426159187,13467.27857299515
4451.855577997321,13543.088325825189
4451.878729955857,13334.442933850185
4451.901882034796,12895.34942873858
4451.925034234137,12376.59366071291
4451.948186553881,12031.352699259347
4451.97133899403,11613.9720027128
4451.994491554583,11243.359075646036
4452.017644235542,11165.26213877817
4452.040797036907,11227.27104858839
4452.063949958678,11600.360153360876
4452.087103000857,12125.804563368029
4452.1102561634425,12752.90329945291
4452.133409446437,13539.803969823994
4452.156562849841,14233.323927490444
4452.179716373655,14862.37100537392
4452.202870017878,15500.23541134672
4452.226023782513,15882.150362037688
4452.24917766756,16289.60112762764
4452.272331673018,16422.60892767692
4452.29548579889,16683.643463234854
4452.318640045174,16835.35997548724
4452.341794411874,16516.499311155836
4452.364948898987,16290.540453796673
4452.388103506516,15985.119846390351
4452.4112582344615,15586.3577782049
4452.434413082823,15393.527579057116
4452.457568051602,15128.668670788562
4452.480723140799,14702.059234107073
4452.503878350413,13946.503449302312
4452.527033680448,13461.447795465456
4452.550189130902,12892.620389459329
4452.5733447017765,12438.103381695119
4452.596500393071,11862.976339446723
4452.619656204789,11334.991333659449
4452.642812136928,10712.402579088159
4452.66596818949,10510.571844842214
4452.689124362475,10384.670361658546
4452.7122806558855,10053.36380649055
4452.735437069719,10026.736046610897
4452.7585936039795,10218.165450513141
4452.781750258665,10346.097696422561
4452.804907033777,10476.557639721563
4452.828063929317,10799.418681658815
4452.851220945285,11249.558899800653
4452.87437808168,11508.774673464197
4452.897535338506,11703.175223392187
4452.92069271576,11847.100259549012
4452.943850213445,11751.748223029283
4452.967007831562,11487.870426086241
4452.99016557011,11294.330532787106
4453.01332342909,11056.146084460059
4453.036481408502,10876.724348362679
4453.059639508349,10813.876160052145
4453.08279772863,10756.096410908085
4453.105956069345,11002.855409055781
4453.129114530496,11143.10150014151
4453.152273112083,11088.88453256871
4453.175431814107,11176.189938092124
4453.198590636567,11015.473973411647
4453.221749579466,10779.840928948144
4453.244908642802,10524.210311776562
4453.268067826579,10229.480916881526
4453.291227130795,9886.480766459155
4453.314386555451,9806.066505801016
4453.337546100549,9870.625988747255
4453.360705766087,9981.997798419694
4453.3838655520685,10401.21515168799
4453.407025458493,10993.016434327095
4453.430185485361,11846.479714178207
4453.453345632673,12605.578775661488
4453.476505900429,13292.77094797978
4453.4996662886315,13799.768244710162
4453.52282679728,14140.369979638901
4453.545987426375,14079.417670097997
4453.569148175917,14113.046600697855
4453.592309045907,13813.891633080058
4453.615470036346,13475.257089873487
4453.638631147233,13366.408105420025
4453.661792378571,12990.977635169524
4453.684953730359,12720.118426186322
4453.708115202598,12711.060818808191
4453.731276795288,12630.222713451927
4453.754438508431,12691.29477886747
4453.777600342027,12865.167197733905
4453.800762296077,13315.35496716229
4453.82392437058,13900.86700162551
4453.847086565538,14465.868952484196
4453.870248880952,15156.005793492539
4453.8934113168225,15465.889156772133
4453.916573873149,15670.699863731026
4453.939736549933,15970.669306004691
4453.962899347174,16194.927702125422
4453.986062264875,16372.223112326543
4454.009225303034,16325.820279558693
4454.032388461654,16104.89279190469
4454.055551740734,15781.289226951103
4454.078715140275,15436.846464584389
4454.101878660277,15068.34603570743
4454.125042300742,14713.29655167817
4454.14820606167,14059.32082803091
4454.171369943061,13265.431250815267
4454.194533944917,12579.503228216588
4454.2176980672375,11768.243619023138
4454.240862310024,10818.095417522805
4454.264026673275,9925.177764375174
4454.287191156994,9087.830983765074
4454.31035576118,8197.083317154655
4454.333520485834,7493.59456175005
4454.356685330957,6758.848118169693
4454.379850296548,6038.819803545071
4454.40301538261,5775.774917977106
4454.426180589142,5665.01603779273
4454.449345916145,5700.11754529028
4454.4725113636205,5958.78151791164
4454.495676931568,6201.68764760037
4454.5188426199875,6493.081014403723
4454.542008428882,6845.779058419817
4454.565174358249,7037.359221544865
4454.588340408092,6809.819386376007
4454.611506578411,6481.549296749468
4454.634672869205,6036.452916881124
4454.657839280476,5509.505310337597
4454.681005812225,4901.586601269142
4454.704172464451,4444.89474321873
4454.727339237156,3962.369046835907
4454.750506130341,3686.6605058515584
4454.773673144005,3551.5938168880416
4454.79684027815,3388.7202846386913
4454.820007532776,3511.3415807285787
4454.843174907884,3737.12625031116
4454.866342403473,4042.7568719181136
4454.889510019546,4458.868631557254
4454.912677756102,5000.925923389569
4454.935845613144,5517.488120866813
4454.959013590669,6059.441348908703
4454.982181688681,6312.648970108101
4455.005349907178,6705.922066068195
4455.028518246162,7030.8384963580065
4455.051686705633,6953.477202682188
4455.074855285593,7388.810691442569
4455.098023986041,7676.419885420349
4455.121192806979,8184.012550122804
4455.144361748406,8668.456667267374
4455.167530810323,8965.84863355564
4455.190699992732,9145.39861193298
4455.213869295633,9231.149371033875
4455.237038719026,9098.531582819349
4455.260208262912,8978.284506485825
4455.283377927292,8832.25840592607
4455.306547712166,8600.186383920332
4455.329717617535,8657.164908647752
4455.352887643399,8904.946583272571
4455.37605778976,9368.102178745412
4455.399228056617,9956.937195828203
4455.422398443972,10716.05818287468
4455.445568951825,11623.192663181282
4455.468739580177,12385.620917729742
4455.491910329028,12977.111428201857
4455.515081198378,13346.409460473331
4455.538252188229,13379.990290209966
4455.561423298582,13304.01102561005
4455.584594529436,13037.539260130985
4455.607765880793,12425.716838715645
4455.630937352652,11774.2025379208
4455.654108945016,11128.624569091548
4455.677280657883,10301.396184436027
4455.700452491255,9544.001804870697
4455.723624445134,8787.6899011655
4455.746796519518,8074.310474162971
4455.7699687144095,7543.444278659925
4455.793141029808,7019.286459052428
4455.816313465714,6472.372081549078
4455.83948602213,5986.686018690901
4455.862658699055,5586.35588655087
4455.885831496489,5431.796674751251
4455.909004414434,5629.9178277451965
4455.932177452891,5948.728518394969
4455.955350611858,6477.754402448899
4455.978523891339,7351.6163952469005
4456.001697291333,8377.812152896311
4456.024870811841,9380.998983655832
4456.048044452862,10500.526752695114
4456.071218214399,11527.928280956361
4456.094392096451,12059.349208390287
4456.117566099019,12505.115393746793
4456.140740222105,12701.704714005667
4456.163914465707,12539.725064452905
4456.187088829828,12149.212081546273
4456.210263314468,11803.00186706768
4456.233437919626,11405.231541213838
4456.256612645306,10883.06510241484
4456.279787491505,10311.89153767123
4456.302962458226,9632.20941263243
4456.326137545469,9042.547737752968
4456.349312753233,8454.406087035195
4456.372488081522,7998.211667053206
4456.395663530333,7696.408795240787
4456.41883909967,7678.235905302262
4456.442014789531,7886.31271368113
4456.465190599917,8027.86679310466
4456.488366530831,8419.12921667529
4456.5115425822705,8683.619519245249
4456.5347187542375,8970.092358774556
4456.557895046733,9042.281710421621
4456.581071459757,8948.916250546032
4456.604247993311,8764.383975103723
4456.627424647395,8918.451542413854
4456.650601422009,8913.164142371155
4456.673778317154,9217.648754773065
4456.696955332832,9720.30697699109
4456.720132469041,10352.50580749155
4456.7433097257845,11160.49059959834
4456.766487103061,12163.695964665361
4456.789664600872,12814.174008399223
4456.8128422192185,13206.11012600509
4456.8360199581,13807.413620113908
4456.859197817518,13864.125191049188
4456.882375797473,13945.326182328605
4456.905553897966,13773.925654030398
4456.928732118997,13631.448375920938
4456.951910460566,13227.924202022583
4456.975088922674,13137.610736683511
4456.998267505323,12836.936023510132
4457.021446208513,12729.245935288793
4457.044625032244,12363.59231091567
4457.067803976516,12381.339139277437
4457.090983041332,12358.743482407324
4457.1141622266905,12479.65107486267
4457.1373415325925,12675.223752097454
4457.160520959039,12782.00452860089
4457.183700506031,12911.096587977689
4457.206880173568,12836.195749528903
4457.230059961651,12515.251304647882
4457.2532398702815,12595.421230937007
4457.27641989946,11806.580053809377
4457.299600049186,11292.168679967748
4457.322780319461,10567.92152796816
4457.345960710286,9783.844972268033
4457.36914122166,8925.634658266332
4457.392321853586,8260.639520938095
4457.415502606062,7578.315623279758
4457.43868347909,7184.697427062401
4457.461864472672,6558.96686735012
4457.485045586805,6586.11101670644
4457.508226821494,6803.453431494896
4457.5314081767365,7154.814415376582
4457.554589652534,7818.194844005044
4457.577771248887,8492.685487205326
4457.600952965797,9459.060715422243
4457.624134803263,10359.378706699319
4457.647316761288,11267.862835088028
4457.67049883987,12116.25976133743
4457.693681039011,12878.31709196801
4457.716863358712,13483.70814735544
4457.7400457989725,13737.537576557885
4457.763228359793,14010.703678053002
4457.7864110411765,13962.927128424113
4457.809593843121,13768.589551530868
4457.832776765628,13407.659980712855
4457.855959808699,13281.40758823882
4457.879142972333,13134.206911486863
4457.902326256532,12689.843774501727
4457.925509661296,12161.068635890553
4457.948693186626,11657.601541692153
4457.971876832522,11003.94221305992
4457.995060598985,10363.900602504487
4458.018244486016,9673.49686784886
4458.041428493615,8913.775617720194
4458.0646126217825,8437.985519618664
4458.08779687052,7883.319018588093
4458.110981239827,7525.792158149718
4458.134165729705,7265.143559737141
4458.157350340155,7149.205365989213
4458.180535071177,7151.518404490366
4458.203719922771,7414.816848204954
4458.226904894938,7817.823705151386
4458.2500899876795,8120.1087857015345
4458.273275200995,8367.753531133585
4458.296460534886,8600.443330337388
4458.3196459893525,8845.622828474608
4458.342831564396,9310.425735745834
4458.366017260016,9734.079070567886
4458.389203076214,10230.870409193414
4458.4123890129895,10742.7330196129
4458.435575070344,11018.719383598844
4458.458761248279,10828.94851444229
4458.481947546794,10832.444703957928
4458.505133965889,10713.726296078074
4458.528320505566,10667.654130421088
4458.551507165825,10717.726868368221
4458.574693946666,10958.65729303923
4458.597880848091,11296.902313553863
4458.6210678701,11906.435633825968
4458.644255012693,12696.3173118188
4458.6674422758715,13519.447775725917
4458.690629659636,14097.370551758637
4458.713817163986,14385.981123995469
4458.737004788924,14441.478698278512
4458.76019253445,14290.260984481187
4458.783380400563,13785.690636095598
4458.8065683872655,13416.51789875186
4458.829756494558,12804.327749582164
4458.85294472244,11919.866189093465
4458.876133070914,11276.680081199727
4458.899321539979,10401.098377571901
4458.922510129635,9336.50943565924
4458.945698839884,8380.704440043268
4458.968887670727,7462.316970739752
4458.992076622164,6574.024229374154
4459.015265694195,5680.421131060949
4459.0384548868215,4941.439077703662
4459.061644200044,4299.968752775678
4459.084833633862,3814.3304346544637
4459.108023188278,3499.6925225985296
4459.131212863292,3446.1956527889515
4459.154402658904,3569.676638682507
4459.177592575114,3837.713035959087
4459.200782611925,4167.136646194178
4459.223972769336,4772.579286080537
4459.247163047347,5421.936764488203
4459.27035344596,6038.0784003181
4459.293543965176,6736.682142080973
4459.316734604993,7353.00895618405
4459.339925365414,7997.97685558816
4459.363116246439,8508.38053710682
4459.386307248069,9207.359296396047
4459.409498370304,9848.145022431836
4459.432689613145,10447.302530524521
4459.455880976592,11326.626801342776
4459.479072460647,12055.430057878499
4459.502264065309,12957.755596905083
4459.52545579058,13344.747200378306
4459.5486476364595,13830.854572323868
4459.571839602949,14020.3610326437
4459.595031690048,13951.42050394422
4459.618223897759,13691.24255880639
4459.641416226081,13445.75125684952
4459.664608675014,13101.23897204209
4459.687801244561,12800.318881038562
4459.710993934721,12307.335141972402
4459.734186745496,11939.244290357601
4459.757379676885,11774.673778573684
4459.780572728889,11694.590691148447
4459.803765901509,11868.386667790513
4459.8269591947455,12118.38826634622
4459.850152608599,12672.026636101422
4459.87334614307,13279.993895519796
4459.89653979816,13893.215857717643
4459.91973357387,13957.102348460045
4459.942927470198,14147.490804049226
4459.966121487147,14122.855171278961
4459.989315624717,13905.740329595414
4460.0125098829085,13669.52520316911
4460.035704261722,12779.107969161274
4460.058898761158,12142.326459986958
4460.082093381218,11611.327940468196
4460.105288121902,10477.304435480939
4460.12848298321,9749.999670993315
4460.151677965145,8930.747716530428
4460.1748730677045,8063.947258714729
4460.198068290891,7396.909725971583
4460.221263634704,6953.38521061914
4460.244459099145,6722.493346689367
4460.267654684215,6488.883277755096
4460.290850389914,6725.806882557685
4460.314046216243,7217.653099866076
4460.337242163202,8043.48459991767
4460.360438230791,8872.587432198465
4460.383634419013,9858.304083156707
4460.406830727867,11213.37100951519
4460.430027157354,12108.950566040568
4460.453223707474,13060.287319366262
4460.476420378228,13860.424064742745
4460.499617169617,14753.540766963444
4460.522814081641,15442.373148077573
4460.5460111143,15733.328007634767
4460.569208267598,15950.670336242234
4460.592405541532,16104.308125289725
4460.615602936104,16295.537258114953
4460.638800451314,16021.143328610857
4460.661998087163,16012.489838430505
4460.685195843652,15955.692585248004
4460.708393720782,15867.877598788911
4460.731591718552,15605.638706006293
4460.754789836965,15523.814627517067
4460.777988076019,15275.71221881444
4460.801186435716,14820.570223596595
4460.824384916057,14619.488851517573
4460.847583517042,14467.55025051865
4460.870782238671,14054.68168420819
4460.893981080947,13869.219485820717
4460.917180043868,13284.619280793826
4460.940379127435,12723.808884147673
4460.963578331651,12198.614808481841
4460.986777656513,11360.376851752306
4461.009977102025,10327.469195102824
4461.033176668186,9676.122480936634
4461.056376354995,8790.824746819204
4461.079576162457,7752.048427877158
4461.102776090568,7138.006218886675
4461.125976139332,6405.359239928545
4461.149176308748,5853.654358988392
4461.172376598816,5513.386718754509
4461.195577009538,5273.05535472541
4461.218777540915,5303.257736003775
4461.241978192946,5323.5752453625
4461.265178965633,5442.126167524211
4461.2883798589755,5715.818678672602
4461.311580872974,5766.447447844743
4461.3347820076315,5962.220818902149
4461.357983262946,6091.826737396778
4461.381184638919,5962.573770132452
4461.404386135551,5790.290168965815
4461.4275877528435,5620.447921565846
4461.4507894907965,5243.627093353968
4461.4739913494095,4957.1108205660585
4461.497193328685,4787.426325841991
4461.520395428623,4612.77268445926
4461.543597649224,4295.782550085093
4461.566799990488,4181.449601907117
4461.590002452416,4111.421641225811
4461.61320503501,3854.6755274450766
4461.636407738269,3658.7208209793193
4461.659610562193,3739.556361507818
4461.682813506784,3780.5253791867917
4461.706016572044,4012.290522412852
4461.729219757971,4412.33263252843
4461.752423064566,4777.872840496641
4461.775626491831,5428.947197804098
4461.798830039766,6150.896383310573
4461.82203370837,6679.215999623599
4461.845237497647,7079.563326611615
4461.868441407595,7505.3152886341795
4461.891645438215,7553.139887320952
4461.914849589509,7410.307474244612
4461.938053861475,7212.1890442756
4461.961258254117,6894.17429443786
4461.984462767433,6627.656921644979
4462.007667401424,6299.015548485417
4462.030872156092,6257.191664186908
4462.0540770314365,6531.274642192781
4462.077282027459,6986.667916582111
4462.100487144158,7573.909232152959
4462.123692381537,8269.577054670568
4462.146897739594,8940.52317008263
4462.170103218332,9517.584841641976
4462.19330881775,9968.700289258393
4462.21651453785,10255.401437007307
4462.239720378631,10379.578393875747
4462.262926340095,10289.50396981201
4462.286132422241,10219.001964937666
4462.309338625071,10036.01837784517
4462.3325449485865,9865.854325364442
4462.355751392785,9562.002139583286
4462.3789579576705,9184.561261599685
4462.402164643242,8787.591521523364
4462.4253714495,8638.445409146849
4462.448578376446,8510.285432630577
4462.471785424079,8588.371307699013
4462.494992592401,8964.636074797318
4462.518199881412,9528.189560812669
4462.541407291114,10247.163332710454
4462.564614821506,10988.569913828851
4462.587822472589,12126.373572618368
4462.611030244365,12765.852744556161
4462.634238136832,13407.292262660569
4462.657446149992,13866.954437946506
4462.680654283847,13942.008280093023
4462.703862538396,13820.4562224139
