wave,flux
5000.025812696027,18669.348494232545
5000.051815424163,18476.4748023856
5000.0778182875265,18100.770876446946
5000.103821286119,17529.787192277236
5000.12982441994,17048.9319402054
5000.155827688991,16711.190882204366
5000.181831093272,16245.583751102911
5000.207834632784,15686.380862900754
5000.2338383075285,15250.601498585225
5000.259842117506,14768.387947531672
5000.285846062716,14267.36825141124
5000.311850143161,14101.344937315183
5000.33785435884,13792.351404306399
5000.363858709754,13737.454517675353
5000.389863195905,13992.577739160542
5000.415867817292,14111.90864706911
5000.441872573917,14473.161782232562
5000.4678774657805,14854.539455872571
5000.493882492882,15350.157408928482
5000.519887655224,15639.894808829382
5000.545892952806,15876.26367813177
5000.571898385629,16108.000111119003
5000.597903953694,16245.303246555377
5000.623909657001,16278.525230761721
5000.649915495552,16061.1207537361
5000.675921469346,15908.08176659265
5000.701927578384,15852.709567302172
5000.727933822669,15730.410479022485
5000.7539402021985,15696.740214463081
5000.779946716975,15641.177079028543
5000.805953366999,15770.153700796049
5000.831960152272,15963.251988327818
5000.857967072792,16157.782119017545
5000.883974128563,16486.68082018158
5000.9099813195835,16799.69123154802
5000.935988645855,16981.169075667774
5000.961996107378,17130.10539287108
5000.988003704153,17245.470940350322
5001.014011436181,17506.019519136116
5001.040019303464,17743.81956226868
5001.066027306,17707.807531474296
5001.092035443791,18023.04659232516
5001.118043716839,17936.693298627964
5001.1440521251425,18156.292020341378
5001.170060668704,18032.407715556164
5001.196069347523,18104.40699947639
5001.222078161601,18085.694449432238
5001.248087110937,17927.15607599112
5001.274096195534,17810.406431285555
5001.300105415392,17529.254798065373
5001.326114770512,17306.709040214944
5001.352124260892,17065.19844021076
5001.3781338865365,16736.32507839623
5001.4041436474445,16398.87834553091
5001.430153543616,16037.887567432996
5001.456163575053,15677.533221630707
5001.482173741756,15290.442732850239
5001.508184043724,14928.610981411808
5001.534194480961,14623.956468890672
5001.560205053464,14550.8572443189
5001.586215761236,14274.245521474422
5001.612226604278,14137.972516176462
5001.638237582589,13863.5343260248
5001.664248696171,13486.682396877313
5001.690259945024,13080.06764553181
5001.716271329149,12482.819086906455
5001.742282848547,12013.353573905544
5001.768294503218,11531.416896706987
5001.794306293164,11014.390615712997
5001.820318218383,10562.97643989997
5001.84633027888,10241.75531943234
5001.872342474651,10239.15985613221
5001.8983548056995,10393.598610407034
5001.924367272026,10729.653501659921
5001.9503798736305,11336.060816045192
5001.976392610514,11928.537988414546
5002.002405482678,13001.08574974532
5002.028418490122,13885.29484495751
5002.054431632847,14743.528885678297
5002.080444910854,15757.166778854795
5002.106458324142,16564.94634186312
5002.1324718727155,17169.904489581753
5002.158485556572,17780.630362476706
5002.184499375713,18452.19932752777
5002.210513330139,18891.906303000433
5002.236527419852,19047.799241314387
5002.262541644852,19317.22758325686
5002.288556005138,19589.410079484565
5002.314570500714,19400.4413132867
5002.340585131577,19178.00339329559
5002.36659989773,19279.400810039624
5002.392614799174,18963.77871205691
5002.418629835909,18713.777098088056
5002.444645007936,18625.542645417012
5002.4706603152545,18340.49235535622
5002.496675757866,17759.425164301756
5002.522691335772,17576.656980404725
5002.548707048972,17206.38067453517
5002.574722897468,16896.475169807738
5002.600738881259,16534.619610322017
5002.626755000347,16192.221210890606
5002.652771254732,15741.671790182847
5002.678787644415,15292.973110032575
5002.704804169397,14978.22039964125
5002.730820829678,14574.07798912541
5002.75683762526,14405.299499178287
5002.782854556142,14438.734024790794
5002.8088716223265,14515.747993201945
5002.834888823812,14414.196865175385
5002.860906160601,14820.482890921297
5002.886923632695,15394.910903973714
5002.912941240092,15992.947439584044
5002.938958982793,16665.237248721554
5002.9649768608015,17244.627645521185
5002.990994874116,18025.81697904523
5003.017013022737,18466.248942874492
5003.043031306666,18971.218754979567
5003.069049725905,19416.313257701036
5003.095068280452,19561.429140621316
5003.121086970309,19635.638004198783
5003.147105795477,19766.055118733064
5003.173124755956,19965.49870973867
5003.199143851748,20022.68216175422
5003.225163082852,20012.35652353159
5003.251182449269,20175.767028795955
5003.277201951001,20130.185981677576
5003.3032215880485,20079.057079138496
5003.32924136041,20003.241171681173
5003.35526126809,19928.758703562064
5003.381281311085,19615.444223504164
5003.407301489398,19781.418662982756
5003.433321803031,19680.95329469294
5003.459342251982,19505.323332931464
5003.4853628362525,19417.269739275194
5003.511383555844,19387.939776154202
5003.537404410757,19307.295136965946
5003.563425400991,19056.585569058443
5003.589446526548,18971.043754509497
5003.615467787429,18904.132059206215
5003.641489183634,18528.85273441749
5003.667510715163,18485.411548855354
5003.693532382018,18332.75478467983
5003.719554184199,17951.347986008015
5003.745576121707,17811.24787708251
5003.771598194542,17602.240836413843
5003.797620402706,17524.07329210425
5003.823642746199,17296.231637298482
5003.849665225021,17365.348935423237
5003.875687839174,17367.605231263096
5003.901710588658,17191.11379102502
5003.927733473473,17140.99352955504
5003.953756493622,17085.3893278508
5003.979779649103,17000.914177469047
5004.005802939919,16802.66064127973
5004.031826366068,16619.869577718066
5004.057849927553,16656.30133018742
5004.083873624375,16756.67900690482
5004.109897456533,16885.580941157987
5004.135921424028,16983.106866398823
5004.161945526862,17244.734034770372
5004.187969765035,17792.47563268909
5004.213994138547,17914.861889404325
5004.240018647399,18248.061246020807
5004.266043291592,18743.406793748763
5004.292068071127,18642.53816534642
5004.318092986004,18920.57069272385
5004.344118036223,19007.032201752187
5004.370143221788,19011.167063958084
5004.396168542696,19288.62482068093
5004.422193998949,19487.703504616795
5004.448219590549,19397.294975639434
5004.474245317495,19338.124007086524
5004.500271179789,19480.889090266333
5004.52629717743,19699.901750831694
5004.5523233104195,19798.052536737323
5004.578349578759,19840.264699888896
5004.604375982449,19993.28975885861
5004.630402521489,19881.562902452828
5004.656429195881,19887.132245298922
5004.682456005625,19846.02206446612
5004.708482950721,19734.291519169103
5004.734510031172,19470.615923205452
5004.760537246977,19292.428654792195
5004.7865645981365,19139.641200653023
5004.812592084652,18803.009580986043
5004.838619706525,18486.5393757891
5004.8646474637535,18239.699046783546
5004.890675356341,17877.65991060252
5004.916703384286,17500.896348679933
5004.942731547591,17150.8333258647
5004.968759846256,16870.088522066162
5004.994788280281,16561.90254467853
5005.020816849668,16127.397611803512
5005.046845554417,15629.034233623912
5005.072874394528,15084.156211426085
5005.098903370003,14827.795066000246
5005.124932480842,14657.543302562199
5005.150961727047,14294.903818528688
5005.176991108617,14088.92912891954
5005.203020625552,14013.648923020635
5005.229050277856,14112.266176499026
5005.255080065526,14422.598096336204
5005.281109988566,14755.262511553203
5005.3071400469735,14746.379818832273
5005.333170240751,15098.668939364188
5005.3592005699,15472.583327719643
5005.38523103442,15425.34552199056
5005.411261634312,15390.692882470707
5005.4372923695755,15279.493197720325
5005.463323240213,14970.743955557013
5005.489354246225,14576.069525982048
5005.515385387611,14093.573346177895
5005.541416664373,13622.429105193634
5005.567448076511,13042.29523530595
5005.593479624025,12382.71445556047
5005.619511306918,11722.739127503504
5005.645543125189,11042.391034080396
5005.671575078838,10579.674717573313
5005.697607167867,9961.551272959941
5005.723639392277,9843.673478302908
5005.749671752068,9553.425684841975
5005.77570424724,9388.09909979732
5005.8017368777955,9369.168447538183
5005.8277696437335,9440.007993416888
5005.853802545055,9577.337928918707
5005.879835581762,9772.331533373417
5005.905868753854,9874.652008499066
5005.931902061331,9928.190721708985
5005.957935504196,10003.215367028839
5005.983969082448,9910.87048001121
5006.010002796088,9662.165169911128
5006.036036645117,9377.067076835086
5006.062070629536,9141.056085085682
5006.088104749344,9048.092034202578
5006.114139004544,8839.178238821558
5006.140173395135,8928.998296026142
5006.166207921118,9230.621923660157
5006.192242582495,9683.758614396378
5006.218277379266,10400.604752232348
5006.244312311431,11204.189878512592
5006.270347378991,12223.225624257508
5006.296382581946,12991.398271913951
5006.322417920299,14196.646706807967
5006.348453394048,15176.254814490381
5006.374489003196,15923.871518223637
5006.400524747743,16726.541354501336
5006.426560627688,17490.551706976566
5006.452596643034,18032.214817711516
5006.47863279378,18476.33730766286
5006.504669079928,18829.92107728224
5006.530705501478,19085.645198510723
5006.556742058431,19198.696178225415
5006.582778750788,19209.098158995595
5006.608815578549,19450.735319161493
5006.634852541715,19509.556849615517
5006.660889640287,19338.63515434703
5006.686926874265,19363.66504068995
5006.71296424365,19443.94575248058
5006.739001748444,19209.00505018183
5006.765039388645,19070.160030750216
5006.791077164256,18791.24342116627
5006.817115075277,18427.177177452795
5006.843153121708,18239.838434064397
5006.869191303552,17905.407483726387
5006.895229620806,17307.762692445394
5006.921268073474,16853.87955499879
5006.947306661555,16406.17800588363
5006.97334538505,15830.753450865815
5006.999384243961,15284.124957560609
5007.025423238286,14713.234121953456
5007.051462368028,13985.023768461284
5007.077501633187,13252.800830340077
5007.103541033764,12648.75122929793
5007.129580569759,12001.135622813668
5007.155620241173,11304.810725385176
5007.181660048007,10818.143392866885
5007.207699990262,10445.792821973013
5007.233740067937,10105.943124019715
5007.259780281035,10073.246979253407
5007.285820629555,10290.206384957213
5007.311861113499,10541.409880618796
5007.337901732866,11347.449485585987
5007.363942487658,12078.31179402359
5007.389983377876,12929.431001026509
5007.41602440352,13920.604275536236
5007.442065564591,14840.062142917126
5007.468106861089,15676.538910215033
5007.494148293015,16437.21669608406
5007.520189860371,17203.211990395066
5007.546231563156,17782.715824146315
5007.572273401372,18172.115438737197
5007.598315375018,18434.01525827351
5007.624357484096,18543.147518164824
5007.650399728607,18700.709618985038
5007.676442108551,18829.77475692132
5007.702484623929,18869.17474890217
5007.728527274741,19086.285395419665
5007.754570060989,19128.237017454427
5007.780612982673,19201.624066873545
5007.806656039793,19304.80227756117
5007.832699232351,19361.87042764903
5007.858742560347,19531.818354105184
5007.884786023782,19728.805584840185
5007.910829622656,20057.628053120596
5007.936873356971,20282.299882539435
5007.962917226726,20329.358944077023
5007.988961231923,20380.77151057875
5008.015005372563,20508.98994184985
5008.041049648646,20571.39055992419
5008.067094060171,20442.0242224915
5008.0931386071425,20469.49074537015
5008.119183289558,20627.357251055822
5008.14522810742,20532.66590821924
5008.171273060728,20530.909860768592
5008.197318149483,20604.513954787766
5008.223363373687,20578.68773554284
5008.249408733339,20668.091925848672
5008.27545422844,20598.54477708002
5008.301499858992,20584.93467794509
5008.327545624995,20685.888719670857
5008.353591526448,20673.894261669404
5008.379637563355,20363.69515015349
5008.405683735714,20402.252243361396
5008.431730043527,20400.445873737623
5008.457776486794,20366.552598872586
5008.483823065515,20267.56882170278
5008.509869779693,20264.560111531857
5008.535916629327,20370.85765328597
5008.561963614418,20205.71473490984
5008.588010734968,20062.28314619965
5008.614057990975,19943.312432389157
5008.640105382442,19823.445890276336
5008.666152909369,19900.62959006422
5008.692200571756,20042.482170640804
5008.718248369605,20081.06559587083
5008.744296302916,20053.194369291014
5008.77034437169,20275.30979976081
5008.796392575927,20345.411058809615
5008.822440915628,20301.59881311812
5008.848489390794,20507.65346577176
5008.874538001426,20498.082468002875
5008.900586747524,20629.83880982263
5008.926635629089,20579.74407599843
5008.952684646122,20626.96567577797
5008.978733798623,20568.768114017847
5009.004783086593,20609.77104855139
5009.030832510033,20721.751269248973
5009.056882068944,20384.65545753007
5009.082931763326,20601.42232491784
5009.108981593179,20695.403858309743
5009.135031558506,20485.674550715572
5009.161081659306,20536.184891650028
5009.187131895579,20644.887391960154
5009.213182267327,20499.770643383144
5009.239232774552,20629.48924968511
5009.265283417251,20455.72734302381
5009.291334195428,20429.86107240902
5009.317385109083,20423.79709837285
5009.343436158216,20327.163713469836
5009.369487342828,20352.82230997274
5009.395538662919,20299.39288046183
5009.421590118491,20182.018523986302
5009.447641709544,20129.33138781153
5009.473693436078,19968.0781915727
5009.499745298095,19758.92836253331
5009.525797295596,19763.98766460129
5009.55184942858,19762.61959900083
5009.577901697049,19647.79247443208
5009.603954101003,19634.25504026173
5009.630006640443,19367.171731929873
5009.65605931537,19173.118656485152
5009.682112125784,18949.29344926492
5009.708165071686,19069.89679978323
5009.7342181530785,18921.390748654503
5009.760271369959,18928.783822801845
5009.78632472233,18650.249493298496
5009.812378210192,18580.32896560591
5009.838431833546,18402.095428695862
5009.864485592391,17940.973243111588
5009.890539486731,17716.75808668025
5009.916593516564,17321.237497496255
5009.942647681891,16994.276831171206
5009.968701982713,16716.70050100566
5009.994756419032,16259.602551775853
5010.020810990847,15829.854843248877
5010.046865698159,15502.978926825246
5010.072920540969,15225.792024443743
5010.098975519279,14936.948313289005
5010.125030633087,14658.667663882694
5010.151085882395,14502.117394037117
5010.177141267204,14441.119021262011
5010.2031967875155,14491.516555017284
5010.229252443328,14566.056894416603
5010.255308234644,14894.264681076029
5010.281364161464,15172.586888214495
5010.307420223788,15758.145049387325
5010.333476421617,16477.67125840093
5010.359532754951,17095.15525151535
5010.3855892237925,17594.68052145457
5010.4116458281405,18235.540823250747
5010.437702567997,18705.999370717
5010.463759443362,19255.39261912445
5010.489816454236,19498.29629563063
5010.51587360062,19681.589265516
5010.541930882514,19699.511647265725
5010.56798829992,19912.279733397885
5010.5940458528385,19876.044331410663
5010.62010354127,19764.891125078146
5010.646161365214,19695.19793178964
5010.672219324672,19522.248733661032
5010.698277419646,19387.021959302776
5010.724335650135,19151.444166211033
5010.7503940161405,18884.129213638895
5010.7764525176635,18735.392100976915
5010.802511154703,18487.640658772452
5010.828569927262,18133.49784642045
5010.85462883534,17759.41389221914
5010.880687878937,17526.289863047357
5010.906747058056,17391.851198098968
5010.932806372695,17188.377413682778
5010.958865822856,17108.37172446265
5010.98492540854,17358.796947539475
5011.0109851297475,17725.437407825804
5011.0370449864795,18064.19566349052
5011.063104978735,18351.448347966645
5011.089165106517,18802.877178639694
5011.115225369825,19215.552834902715
5011.14128576866,19420.304156994753
5011.167346303022,19867.699946896555
5011.193406972913,20162.29915397386
5011.219467778333,20210.26465400895
5011.2455287192815,20329.492262890904
5011.271589795761,20448.34119390737
5011.297651007772,20439.97351243074
5011.323712355315,20629.083767220156
5011.34977383839,20739.72826374306
5011.375835456999,20505.0238264359
5011.401897211142,20461.021055219153
5011.427959100819,20409.661975359257
5011.454021126031,20157.81070413493
5011.4800832867795,20147.371362912585
5011.506145583065,20080.168121284838
5011.532208014888,19710.389558326857
5011.558270582248,19450.018967811997
5011.584333285148,19244.51222074668
5011.610396123588,18910.76226375268
5011.636459097567,18550.76549334015
5011.662522207088,18103.433977502926
5011.68858545215,17593.465671471567
5011.714648832754,17071.996515960695
5011.740712348902,16430.35578904133
5011.766776000594,15704.115551752042
5011.79283978783,15128.023801066796
5011.818903710611,14528.498303374652
5011.844967768939,13962.060105538343
5011.871031962813,13325.372060569303
5011.897096292234,12580.003326077664
5011.923160757203,12033.71933416196
5011.949225357721,11364.482150707454
5011.975290093788,10698.249240943234
5012.001354965406,10053.290437562016
5012.027419972574,9488.878856723331
5012.053485115294,9079.552478676425
5012.079550393566,8790.800703132405
5012.105615807392,8751.369934713055
5012.13168135677,8873.109633007865
5012.157747041703,9069.806320240918
5012.183812862192,9436.81402376463
5012.209878818236,10059.02566592755
5012.235944909837,10752.0234814892
5012.262011136994,11405.630017073845
5012.28807749971,12131.325200822012
5012.3141439979845,12788.052968896505
5012.340210631818,13263.53462821925
5012.366277401212,13625.950917165093
5012.392344306166,13899.639566637079
5012.418411346682,14194.048954037567
5012.44447852276,14402.233084906016
5012.470545834401,14623.753313384956
5012.496613281605,14988.65035402354
5012.522680864374,15331.856704006039
5012.548748582707,15658.651551165789
5012.574816436606,15999.010705008044
5012.600884426071,16311.516428986137
5012.626952551104,16783.525822684947
5012.653020811705,17077.859747515053
5012.679089207873,17356.05876955024
5012.705157739611,17395.38669619689
5012.73122640692,17568.47983635541
5012.757295209798,17986.393307552797
5012.7833641482475,18383.573252607894
5012.80943322227,18582.296471618494
5012.835502431864,18784.0217405658
5012.861571777033,18957.414006467836
5012.887641257775,19157.394990440273
5012.9137108740915,19309.014221457128
5012.939780625984,19305.170770789773
5012.965850513452,19429.771020430882
5012.991920536498,19261.133505680165
5013.017990695121,18856.676998744962
5013.044060989323,18728.0961784471
5013.070131419104,18595.713319420673
5013.096201984464,18306.93788314271
5013.122272685405,17945.51191927672
5013.148343521927,17579.620917076983
5013.17441449403,17276.611304288108
5013.200485601717,16845.669423371906
5013.226556844987,16290.049453466741
5013.2526282238405,15683.554375171645
5013.278699738279,15331.391983265681
5013.304771388303,14946.251687968921
5013.330843173913,14497.482080160358
5013.35691509511,14169.483246080987
5013.382987151894,13917.395436752968
5013.409059344267,14051.562424710892
5013.435131672228,13913.498322215442
5013.46120413578,13884.136649632015
5013.487276734921,13636.66232299477
5013.513349469653,13468.925741466666
5013.539422339977,13175.770982496466
5013.565495345894,12835.37820374942
5013.5915684874035,12543.924861614496
5013.617641764507,12078.385251228721
5013.643715177206,11686.73859869145
5013.6697887254995,11316.427870895192
5013.695862409389,11190.011045454336
5013.721936228875,11090.421999134585
5013.748010183958,11332.108197107493
5013.77408427464,11641.474684323954
5013.800158500921,12051.84493006291
5013.826232862801,12523.74586057019
5013.852307360281,13066.427781595901
5013.8783819933615,13561.124020541989
5013.904456762045,14038.846660259893
5013.930531666329,14348.550435366744
5013.956606706218,14545.161693203296
5013.982681881709,14788.590519698046
5014.008757192805,14747.25256516041
5014.034832639507,14486.219451668596
5014.060908221814,14163.233414695778
5014.086983939728,13719.555382652137
5014.113059793249,13338.844127032404
5014.139135782378,12857.880233438817
5014.165211907116,12280.594178121015
5014.1912881674625,11912.59363633527
5014.21736456342,11609.16455913152
