wave,flux
4450.003811362098,14444.021977453309
4450.026953690486,15899.301696579398
4450.050096139227,17963.911518575518
4450.073238708321,20380.224055480077
4450.096381397769,22677.805172174234
4450.119524207569,24863.221253739994
4450.142667137726,26862.41345023961
4450.165810188237,28281.753085882607
4450.188953359103,29725.881355915368
4450.212096650326,31368.03952710484
4450.2352400619075,32768.308664553
4450.258383593846,34077.608941483784
4450.281527246142,35345.54288865564
4450.304671018797,36203.36646485109
4450.327814911813,36968.26402661994
4450.350958925188,37833.279045064606
4450.374103058924,38681.340031160966
4450.3972473130225,39708.88089563333
4450.420391687483,40946.177703691756
4450.443536182305,42283.88386952254
4450.466680797492,43316.3421907357
4450.489825533042,44016.02553015841
4450.512970388957,44871.372965146824
4450.536115365237,45556.41776617631
4450.559260461882,46222.08044538671
4450.582405678895,46623.02742373936
4450.605551016274,47258.87239907645
4450.628696474022,47518.15278260921
4450.651842052138,47389.095684879016
4450.674987750623,47187.02277340814
4450.698133569476,47533.11071097405
4450.721279508702,47094.40057558182
4450.744425568297,46440.29587447331
4450.767571748264,46299.35312987336
4450.790718048604,45931.33857778739
4450.813864469315,45079.29205368659
4450.837011010401,44053.56994810653
4450.86015767186,43067.76595771713
4450.883304453694,41632.39665455507
4450.906451355903,39707.80815793369
4450.929598378489,37582.320614925906
4450.95274552145,35105.76525131149
4450.975892784789,32775.14397804133
4450.999040168505,30391.972171340345
4451.022187672601,28682.667452478006
4451.045335297074,27942.80866523767
4451.068483041929,28210.72843258246
4451.091630907163,29153.426389148965
4451.114778892777,30756.69024354147
4451.137926998774,32869.62279991914
4451.161075225153,34775.03601466872
4451.184223571914,36765.81719649987
4451.207372039059,38867.50396855381
4451.230520626587,40579.57863083052
4451.253669334501,42061.31243573437
4451.2768181628,43203.511755615196
4451.299967111485,43884.81120314099
4451.323116180556,44164.25202403515
4451.346265370014,44362.68193368682
4451.369414679861,44453.774063061996
4451.392564110095,44269.71521523472
4451.415713660719,43973.902553296524
4451.438863331732,43556.928001757995
4451.462013123136,43393.91134844286
4451.48516303493,42999.876705088835
4451.508313067117,43093.5397188535
4451.531463219695,43355.90376150654
4451.554613492666,43537.336590024446
4451.577763886031,44120.3794077155
4451.60091439979,44724.89106962719
4451.624065033943,44779.068557882856
4451.647215788492,45377.45477404729
4451.670366663436,46405.85267259433
4451.693517658777,46667.98795791252
4451.716668774516,46967.53086216205
4451.739820010652,47253.73504333357
4451.762971367186,47683.250384118386
4451.78612284412,47825.31922910393
4451.8092744414525,47915.88013433305
4451.832426159187,47743.64592640072
4451.855577997321,47724.4876630681
4451.878729955857,47918.9307412881
4451.901882034796,47504.29041453823
4451.925034234137,47049.667344053916
4451.948186553881,46843.45805282857
4451.97133899403,46344.45917441907
4451.994491554583,45743.8242844734
4452.017644235542,45117.243302716255
4452.040797036907,44413.407524861526
4452.063949958678,43888.33357669966
4452.087103000857,42957.6059194468
4452.1102561634425,42354.14460860184
4452.133409446437,42324.05623490661
4452.156562849841,41630.76144398659
4452.179716373655,41614.34236470693
4452.202870017878,41493.068559307925
4452.226023782513,41363.546154897485
4452.24917766756,42128.81176970552
4452.272331673018,42669.90820195377
4452.29548579889,42879.097289216465
4452.318640045174,43125.24986115594
4452.341794411874,43394.45436209963
4452.364948898987,43181.98737900654
4452.388103506516,42927.68023108964
4452.4112582344615,42639.58936885738
4452.434413082823,42434.82693621159
4452.457568051602,42164.610102323415
4452.480723140799,41832.95707413763
4452.503878350413,42005.59207414045
4452.527033680448,42457.91948732286
4452.550189130902,42436.98844468237
4452.5733447017765,42395.07167054039
4452.596500393071,42542.52108202057
4452.619656204789,42740.48245216644
4452.642812136928,42270.07627727986
4452.66596818949,41717.72698202343
4452.689124362475,41050.15451539918
4452.7122806558855,40373.09933390013
4452.735437069719,39443.06745834981
4452.7585936039795,38603.65569067135
4452.781750258665,37745.617510011194
4452.804907033777,37781.66255180386
4452.828063929317,38355.01266344262
4452.851220945285,39079.294495334754
4452.87437808168,39929.582217238334
4452.897535338506,41018.44813707594
4452.92069271576,42391.3359400471
4452.943850213445,43174.21400204526
4452.967007831562,43871.15204299342
4452.99016557011,44529.90515555161
4453.01332342909,44709.54660198198
4453.036481408502,44803.54099969561
4453.059639508349,44976.70717833404
4453.08279772863,44994.3924441071
4453.105956069345,44598.49001594603
4453.129114530496,44213.191730261984
4453.152273112083,44074.56967037612
4453.175431814107,44070.41840644236
4453.198590636567,44135.61713233228
4453.221749579466,44368.895332442415
4453.244908642802,44469.221023776925
4453.268067826579,44671.685872805785
4453.291227130795,45174.249261049845
4453.314386555451,45415.426924992185
4453.337546100549,45829.471338578755
4453.360705766087,46129.44487057394
4453.3838655520685,46576.222809226
4453.407025458493,46798.42018821721
4453.430185485361,47206.27410368266
4453.453345632673,47041.24434123002
4453.476505900429,47238.07850867929
4453.4996662886315,47225.00442223251
4453.52282679728,46945.389855314024
4453.545987426375,47103.28245899715
4453.569148175917,46805.82299761393
4453.592309045907,46344.4151663027
4453.615470036346,45767.91442266078
4453.638631147233,45384.10128878527
4453.661792378571,44182.05759641984
4453.684953730359,42962.915282246424
4453.708115202598,41253.404711437535
4453.731276795288,39278.12086155621
4453.754438508431,36744.846729213576
4453.777600342027,34273.688374728976
4453.800762296077,31719.321714413665
4453.82392437058,29376.39673388372
4453.847086565538,28146.15530508114
4453.870248880952,27197.72715762111
4453.8934113168225,27423.383872658313
4453.916573873149,28391.99588243434
4453.939736549933,29160.695061541144
4453.962899347174,30107.358222983516
4453.986062264875,30699.358561692534
4454.009225303034,30994.14991073942
4454.032388461654,30889.78778980587
4454.055551740734,29965.23120162701
4454.078715140275,28576.955296356886
4454.101878660277,26924.280017283152
4454.125042300742,24791.716905065765
4454.14820606167,22639.887609369085
4454.171369943061,20810.107739776748
4454.194533944917,18708.570110654902
4454.2176980672375,16984.344168300504
4454.240862310024,16287.91063549785
4454.264026673275,16226.636767777374
4454.287191156994,16772.19275470296
4454.31035576118,17779.210296598427
4454.333520485834,19283.48781772552
4454.356685330957,20984.08618708171
4454.379850296548,22513.032359036297
4454.40301538261,23920.847297148688
4454.426180589142,24817.087515947023
4454.449345916145,25400.168149875935
4454.4725113636205,26191.896557274722
4454.495676931568,27380.360771823685
4454.5188426199875,28712.293883324168
4454.542008428882,29968.138665499562
4454.565174358249,31712.47935023573
4454.588340408092,33182.63949793218
4454.611506578411,34047.20867111276
4454.634672869205,34421.94573110286
4454.657839280476,34458.30341340298
4454.681005812225,33874.79598529623
4454.704172464451,32571.91226753081
4454.727339237156,31888.54368183405
4454.750506130341,31367.043247267025
4454.773673144005,31346.69305512048
4454.79684027815,31963.0776829082
4454.820007532776,32854.63072588151
4454.843174907884,34444.852786965974
4454.866342403473,36130.498586136484
4454.889510019546,37578.38998092335
4454.912677756102,39309.725945193415
4454.935845613144,40886.00978239589
4454.959013590669,42042.03912619489
4454.982181688681,42832.83238238568
4455.005349907178,43013.041641829754
4455.028518246162,43589.37881735809
4455.051686705633,43615.83775154163
4455.074855285593,43323.21673069537
4455.098023986041,42424.1513533969
4455.121192806979,42007.163318140716
4455.144361748406,40839.537062876654
4455.167530810323,39594.3728364358
4455.190699992732,37691.6666230015
4455.213869295633,35501.17601452565
4455.237038719026,33293.10231621473
4455.260208262912,30761.633167718468
4455.283377927292,27919.725817427483
4455.306547712166,26018.166304623814
4455.329717617535,24306.926035224093
4455.352887643399,23215.726910220008
4455.37605778976,23179.70585092057
4455.399228056617,24330.340475516838
4455.422398443972,26195.57718465658
4455.445568951825,28172.793028485114
4455.468739580177,30467.48700449936
4455.491910329028,32993.275564028045
4455.515081198378,34897.98063314994
4455.538252188229,36878.84651893259
4455.561423298582,38878.632638657364
4455.584594529436,40489.160719441636
4455.607765880793,41394.27728469391
4455.630937352652,41787.768360065194
4455.654108945016,42643.810280726015
4455.677280657883,42847.2244388121
4455.700452491255,42304.53345949341
4455.723624445134,41666.554931910156
4455.746796519518,40795.875716445385
4455.7699687144095,39640.32819573732
4455.793141029808,38724.90786818905
4455.816313465714,38049.38236411204
4455.83948602213,37546.72117855541
4455.862658699055,37604.37114750018
4455.885831496489,37632.61336493909
4455.909004414434,37876.32851777099
4455.932177452891,37932.57295990094
4455.955350611858,37743.29982075467
4455.978523891339,37378.08188513048
4456.001697291333,36176.791867041225
4456.024870811841,35217.046222982826
4456.048044452862,33885.10365460977
4456.071218214399,32512.38959227772
4456.094392096451,31763.2089685342
4456.117566099019,31463.246960942575
4456.140740222105,31914.370547181396
4456.163914465707,32664.5700482084
4456.187088829828,34063.21952850638
4456.210263314468,35733.80668500068
4456.233437919626,37232.115635611444
4456.256612645306,38292.102010317845
4456.279787491505,39783.30307843741
4456.302962458226,40956.33408524307
4456.326137545469,41811.40003642735
4456.349312753233,42543.140172986314
4456.372488081522,43010.368705506466
4456.395663530333,43016.252983292
4456.41883909967,43373.28800654466
4456.442014789531,43311.7766694453
4456.465190599917,42971.81357244066
4456.488366530831,42771.21620417226
4456.5115425822705,42956.29395160042
4456.5347187542375,43023.27880831125
4456.557895046733,43375.297189565106
4456.581071459757,43817.089066586675
4456.604247993311,43983.65519622935
4456.627424647395,44191.68778588626
4456.650601422009,44350.68726912891
4456.673778317154,44254.44541820632
4456.696955332832,43596.72725619226
4456.720132469041,43242.45748307598
4456.7433097257845,42417.53506325867
4456.766487103061,41508.13740455212
4456.789664600872,39177.10251913528
4456.8128422192185,37500.07115977054
4456.8360199581,35561.5102901699
4456.859197817518,33448.10971706369
4456.882375797473,31816.20018860031
4456.905553897966,30865.644537212655
4456.928732118997,29729.253967235432
4456.951910460566,30064.640909281938
4456.975088922674,30346.569781137045
4456.998267505323,31113.764602084368
4457.021446208513,31623.915475314072
4457.044625032244,33845.77782382406
4457.067803976516,35343.79968753598
4457.090983041332,36982.775893184
4457.1141622266905,38755.948696326486
4457.1373415325925,40181.09433748628
4457.160520959039,41315.00352107999
4457.183700506031,42477.57515950089
4457.206880173568,43458.09674345938
4457.230059961651,43829.50539422592
4457.2532398702815,44300.58900219192
4457.27641989946,44500.28412746
4457.299600049186,44589.68025663195
4457.322780319461,44503.36774028143
4457.345960710286,44839.466165937956
4457.36914122166,44333.81066815955
4457.392321853586,44027.28745839701
4457.415502606062,42975.56023206017
4457.43868347909,42045.532248592135
4457.461864472672,40320.32093785448
4457.485045586805,38790.653464723735
4457.508226821494,37643.517816987136
4457.5314081767365,36103.48688130037
4457.554589652534,34954.52535072952
4457.577771248887,34156.54535735882
4457.600952965797,33889.802539382596
4457.624134803263,33677.295884383544
4457.647316761288,33344.89752688146
4457.67049883987,33119.02767243639
4457.693681039011,33154.48803683042
4457.716863358712,33317.72593848049
4457.7400457989725,33880.35471329476
4457.763228359793,35291.59662350185
4457.7864110411765,36242.40250781725
4457.809593843121,37288.2478716593
4457.832776765628,38567.35590762143
4457.855959808699,39712.11035389578
4457.879142972333,40095.65080505524
4457.902326256532,40060.68059343791
4457.925509661296,39887.28605998606
4457.948693186626,40012.82373379729
4457.971876832522,39258.39672836351
4457.995060598985,39577.5593699319
4458.018244486016,39724.55041184706
4458.041428493615,40278.321796095304
4458.0646126217825,41284.35056457188
4458.08779687052,41726.94647766402
4458.110981239827,42492.47000837291
4458.134165729705,43216.845353686964
4458.157350340155,43852.468997456126
4458.180535071177,44445.809118359415
4458.203719922771,44558.53911707572
4458.226904894938,44750.323046059726
4458.2500899876795,44503.141976582534
4458.273275200995,44191.721960335366
4458.296460534886,43394.44718088611
4458.3196459893525,42307.77595711218
4458.342831564396,41106.40719019513
4458.366017260016,39262.43916696521
4458.389203076214,36968.62729395715
4458.4123890129895,34261.33925867826
4458.435575070344,31509.27536267378
4458.458761248279,28649.368970723248
4458.481947546794,25648.681401041362
4458.505133965889,22634.294678445338
4458.528320505566,20496.576309820724
4458.551507165825,19019.541306144423
4458.574693946666,17973.43792384209
4458.597880848091,18045.109300960892
4458.6210678701,18580.45064842927
4458.644255012693,19808.89055511686
4458.6674422758715,21696.79570541619
4458.690629659636,23345.883105584922
4458.713817163986,25072.470210920554
4458.737004788924,26508.894477586062
4458.76019253445,27918.627113318264
4458.783380400563,28962.601593680898
4458.8065683872655,29549.754346627986
4458.829756494558,30893.64238670954
4458.85294472244,32473.29449051515
4458.876133070914,34173.960530598844
4458.899321539979,36032.104591212716
4458.922510129635,37820.39572244371
4458.945698839884,39460.61490068703
4458.968887670727,40982.840117739
4458.992076622164,42523.384787072995
4459.015265694195,43363.62604587791
4459.0384548868215,43768.02606894995
4459.061644200044,44212.8542175034
4459.084833633862,44837.87544065564
4459.108023188278,44958.99613542559
4459.131212863292,44904.280536358034
4459.154402658904,44191.8112402363
4459.177592575114,43878.396949491915
4459.200782611925,43840.773923570014
4459.223972769336,43576.34221556791
4459.247163047347,43319.45038867222
4459.27035344596,44047.46799684236
4459.293543965176,44355.2640081395
4459.316734604993,44683.07618638611
4459.339925365414,45212.096655482215
4459.363116246439,45495.53057195622
4459.386307248069,45607.99682648807
4459.409498370304,45411.97593736645
4459.432689613145,45427.80737026915
4459.455880976592,45460.627352521864
4459.479072460647,44983.137524675985
4459.502264065309,44376.72447474658
4459.52545579058,43465.26377645144
4459.5486476364595,42150.49654423317
4459.571839602949,40288.54422228791
4459.595031690048,38372.74765812276
4459.618223897759,36616.69866440371
4459.641416226081,34635.061418620084
4459.664608675014,32812.93239046836
4459.687801244561,31779.223170818354
4459.710993934721,31759.69883033929
4459.734186745496,31921.358793603176
4459.757379676885,32701.739898396085
4459.780572728889,33763.05744628316
4459.803765901509,35041.584444383516
4459.8269591947455,36841.64682137874
4459.850152608599,38236.460461767754
4459.87334614307,39759.316820025866
4459.89653979816,41361.772621245575
4459.91973357387,42508.482641813454
4459.942927470198,43216.58373211587
4459.966121487147,44231.33507613164
4459.989315624717,45336.00819426786
4460.0125098829085,45852.65372802505
4460.035704261722,46156.12416685468
4460.058898761158,46702.93353972747
4460.082093381218,46764.88472222905
4460.105288121902,47232.39585283923
4460.12848298321,47330.356919073
4460.151677965145,47046.48737531745
4460.1748730677045,47056.74539824192
4460.198068290891,46966.38128533989
4460.221263634704,46589.960933933035
4460.244459099145,46377.95873889765
4460.267654684215,46177.3999155057
4460.290850389914,46455.52619412242
4460.314046216243,46067.327319287804
4460.337242163202,45621.14139616444
4460.360438230791,45552.429501824
4460.383634419013,45133.91443842062
4460.406830727867,44217.90598691936
4460.430027157354,42766.98290976727
4460.453223707474,41884.814151924635
4460.476420378228,40392.03526595174
4460.499617169617,38581.12913427075
4460.522814081641,36340.17164766509
4460.5460111143,34250.55185724077
4460.569208267598,32375.544504200483
4460.592405541532,30421.003478708397
4460.615602936104,28808.110046413614
4460.638800451314,27412.92163940768
4460.661998087163,26536.139575920806
4460.685195843652,25831.70628747676
4460.708393720782,26082.37018489699
4460.731591718552,26196.866362398654
4460.754789836965,26626.049415950925
4460.777988076019,26310.863468691514
4460.801186435716,26148.618200384775
4460.824384916057,25459.99041250222
4460.847583517042,24485.225014740376
4460.870782238671,23434.02114329711
4460.893981080947,22751.485591930847
4460.917180043868,22489.723992625644
4460.940379127435,22469.84962405438
4460.963578331651,22199.052435874295
4460.986777656513,22323.723320073488
4461.009977102025,21858.203404327272
4461.033176668186,20759.87717404575
4461.056376354995,19768.996256544466
4461.079576162457,18815.033474728225
4461.102776090568,18233.738193361947
4461.125976139332,18141.36628723193
4461.149176308748,18796.170078829207
4461.172376598816,19952.616674193036
4461.195577009538,21536.20787262109
4461.218777540915,23895.58804370083
4461.241978192946,25899.898496759204
4461.265178965633,27997.311305409137
4461.2883798589755,29860.909728704988
4461.311580872974,31130.955259765877
4461.3347820076315,31401.444748575053
4461.357983262946,31041.984544463463
4461.381184638919,30424.642595719502
4461.404386135551,29397.542634935708
4461.4275877528435,28220.387454744407
4461.4507894907965,27458.701752843328
4461.4739913494095,27049.290563034825
4461.497193328685,27346.24305214753
4461.520395428623,28557.387675265538
4461.543597649224,30176.934145790958
4461.566799990488,32037.33508552442
4461.590002452416,33989.76145652889
4461.61320503501,35531.10833587413
4461.636407738269,37060.399243701315
4461.659610562193,38034.84120419185
4461.682813506784,39209.97550272316
4461.706016572044,40299.88971433206
4461.729219757971,40759.91380675455
4461.752423064566,40914.19917461367
4461.775626491831,40641.71869543705
4461.798830039766,39929.682921685046
4461.82203370837,39269.13079024755
4461.845237497647,38128.059911820426
4461.868441407595,36775.647099280664
4461.891645438215,35762.609229895475
4461.914849589509,35472.829814192286
4461.938053861475,35570.69861805344
4461.961258254117,36121.4694583685
4461.984462767433,37044.397980254085
4462.007667401424,38346.4114655925
4462.030872156092,39776.272561004596
4462.0540770314365,40813.11716123538
4462.077282027459,41805.51319032924
4462.100487144158,42624.03129287432
4462.123692381537,43165.53550888936
4462.146897739594,43547.67794400731
4462.170103218332,43961.13602897103
4462.19330881775,44146.13217531687
4462.21651453785,44400.00927063152
4462.239720378631,44764.87649638309
4462.262926340095,45002.594271666676
4462.286132422241,44422.99758715305
4462.309338625071,43777.39723417305
4462.3325449485865,43095.06938594908
4462.355751392785,41988.50466795932
4462.3789579576705,41064.59839786407
4462.402164643242,39736.13002992737
4462.4253714495,38680.08319093934
4462.448578376446,38032.56997074555
4462.471785424079,37857.34643151869
4462.494992592401,38411.49503956133
4462.518199881412,38722.06891146167
4462.541407291114,39358.74247836864
4462.564614821506,39875.791224806504
4462.587822472589,40578.6700325243
4462.611030244365,41623.01683991862
4462.634238136832,42076.125389701054
4462.657446149992,42609.67943192238
4462.680654283847,43003.298388810384
4462.703862538396,43209.35517153421
4462.727070913639,43212.47664078763
4462.750279409578,43232.768847455445
