wave,flux
4450.003811362098,14055.035158050792
4450.026953690486,12626.956707545385
4450.050096139227,11524.708707726903
4450.073238708321,10472.407850183374
4450.096381397769,9693.050637844037
4450.119524207569,9598.64604008017
4450.142667137726,9553.985455537679
4450.165810188237,10096.260162097617
4450.188953359103,10871.703927428458
4450.212096650326,12050.96777833081
4450.2352400619075,13366.0524305198
4450.258383593846,14868.501632693504
4450.281527246142,16367.648195395925
4450.304671018797,17709.8317603304
4450.327814911813,19051.656245607675
4450.350958925188,20134.480025808116
4450.374103058924,21286.47070031457
4450.3972473130225,22379.28097703425
4450.420391687483,23332.098565432836
4450.443536182305,24302.084625903193
4450.466680797492,25098.854179875932
4450.489825533042,25686.693308672355
4450.512970388957,26114.784231886635
4450.536115365237,26719.443380528206
4450.559260461882,27554.136196509797
4450.582405678895,28284.307535113796
4450.605551016274,29345.413942849038
4450.628696474022,30463.202171301902
4450.651842052138,31161.26811055135
4450.674987750623,31816.6714008347
4450.698133569476,32109.17927234005
4450.721279508702,32678.692762278664
4450.744425568297,33263.532520070665
4450.767571748264,33447.834882236406
4450.790718048604,33812.302253262606
4450.813864469315,34051.14842030124
4450.837011010401,34114.44760406989
4450.86015767186,33445.76247959016
4450.883304453694,33551.95644833226
4450.906451355903,33177.1280658157
4450.929598378489,33266.04529833221
4450.95274552145,32418.24804994049
4450.975892784789,31896.627813538613
4450.999040168505,31122.87791867177
4451.022187672601,30351.8942069208
4451.045335297074,29179.75587603785
4451.068483041929,27597.039203019885
4451.091630907163,26020.01443413371
4451.114778892777,24388.751501773455
4451.137926998774,22674.820717138828
4451.161075225153,21022.55097525037
4451.184223571914,20074.162387078104
4451.207372039059,19502.12406241446
4451.230520626587,19346.949742603047
4451.253669334501,20037.284350879756
4451.2768181628,20921.53871583423
4451.299967111485,22051.694278813164
4451.323116180556,23683.971698286714
4451.346265370014,25242.95777200821
4451.369414679861,26595.556671723174
4451.392564110095,27730.058790259754
4451.415713660719,28948.149312993693
4451.438863331732,30158.18489709847
4451.462013123136,30610.105308062277
4451.48516303493,30985.808790240804
4451.508313067117,31314.108272025795
4451.531463219695,31569.495583561504
4451.554613492666,31517.968336203015
4451.577763886031,31081.92251776759
4451.60091439979,31096.94165059878
4451.624065033943,31014.91545010924
4451.647215788492,30682.244177784774
4451.670366663436,31031.357536961008
4451.693517658777,30988.77658172304
4451.716668774516,31295.826148773205
4451.739820010652,31140.3255039802
4451.762971367186,32057.587515570434
4451.78612284412,32380.51061482195
4451.8092744414525,33102.238337686314
4451.832426159187,33065.70948894472
4451.855577997321,33255.55107955105
4451.878729955857,33709.10869767424
4451.901882034796,33894.98341841338
4451.925034234137,34093.781431346724
4451.948186553881,34218.26665331057
4451.97133899403,34123.24486619496
4451.994491554583,34213.68470764463
4452.017644235542,34135.16311466099
4452.040797036907,34053.875252708836
4452.063949958678,33951.35341065677
4452.087103000857,33722.28845669431
4452.1102561634425,33455.91151620513
4452.133409446437,33175.615273100666
4452.156562849841,32782.802990601565
4452.179716373655,32282.16352661572
4452.202870017878,31593.819531825367
4452.226023782513,31073.82911329186
4452.24917766756,30904.493503007317
4452.272331673018,30524.055337913327
4452.29548579889,30108.681623290788
4452.318640045174,29886.220196836413
4452.341794411874,29641.870004031123
4452.364948898987,29417.505911851793
4452.388103506516,29547.546442206713
4452.4112582344615,29858.014935292384
4452.434413082823,30046.18507509107
4452.457568051602,30459.99972381004
4452.480723140799,30537.855163883945
4452.503878350413,30463.792590900885
4452.527033680448,30441.81684173697
4452.550189130902,30384.157840851894
4452.5733447017765,29999.277321849862
4452.596500393071,29777.039128681154
4452.619656204789,29487.13731492767
4452.642812136928,29332.89506914147
4452.66596818949,29152.813200874425
4452.689124362475,29352.47508700354
4452.7122806558855,29960.22101902328
4452.735437069719,29999.24022570049
4452.7585936039795,29988.721636488393
4452.781750258665,29814.714831022626
4452.804907033777,29642.27076748716
4452.828063929317,29261.800446223504
4452.851220945285,28834.84176407855
4452.87437808168,28403.311370598545
4452.897535338506,27765.846629017997
4452.92069271576,27168.35427759437
4452.943850213445,26762.55892533039
4452.967007831562,26622.095357376133
4452.99016557011,26777.246405892594
4453.01332342909,27393.950820261176
4453.036481408502,28253.59013066485
4453.059639508349,29061.061796898422
4453.08279772863,29957.50176750278
4453.105956069345,30538.057046338472
4453.129114530496,31142.019617535367
4453.152273112083,31598.881986896136
4453.175431814107,31893.982622316606
4453.198590636567,31991.127568119988
4453.221749579466,31918.20250364443
4453.244908642802,31801.81058099654
4453.268067826579,31539.77768981908
4453.291227130795,31419.69898113521
4453.314386555451,31353.598032008016
4453.337546100549,31230.568333720294
4453.360705766087,31060.58257902389
4453.3838655520685,31249.677394762748
4453.407025458493,31623.52716422758
4453.430185485361,32008.4538351253
4453.453345632673,32149.03667044787
4453.476505900429,32525.75815565879
4453.4996662886315,33010.23792798826
4453.52282679728,33437.17268857304
4453.545987426375,33477.934206809405
4453.569148175917,33776.13352130227
4453.592309045907,33669.73935886457
4453.615470036346,33898.2954884741
4453.638631147233,33786.596140004345
4453.661792378571,33955.28014475307
4453.684953730359,33565.33939003846
4453.708115202598,33329.12609573735
4453.731276795288,32857.33574551686
4453.754438508431,32797.942014151944
4453.777600342027,32316.714105387833
4453.800762296077,31455.28254891753
4453.82392437058,30682.29840648461
4453.847086565538,29480.429396038166
4453.870248880952,28365.724783452977
4453.8934113168225,26354.188248916285
4453.916573873149,24594.578899368502
4453.939736549933,22850.670922549874
4453.962899347174,20990.515957378968
4453.986062264875,19547.238143608753
4454.009225303034,18350.38287550122
4454.032388461654,18035.0207014068
4454.055551740734,17857.23634020863
4454.078715140275,18100.672056346048
4454.101878660277,18430.126742053937
4454.125042300742,19103.122816069903
4454.14820606167,19667.731887971106
4454.171369943061,19840.809707724806
4454.194533944917,19897.517103786613
4454.2176980672375,19157.679671333255
4454.240862310024,18257.13904016879
4454.264026673275,17057.56642693456
4454.287191156994,15723.04273828102
4454.31035576118,14458.215345130384
4454.333520485834,13082.71775815022
4454.356685330957,11843.554838367585
4454.379850296548,10984.498970050952
4454.40301538261,10385.273094750204
4454.426180589142,10207.213581809621
4454.449345916145,10578.272390918639
4454.4725113636205,11119.239131102076
4454.495676931568,11982.208144411781
4454.5188426199875,12922.202792949513
4454.542008428882,13877.324346375299
4454.565174358249,14913.071498435613
4454.588340408092,15619.319509867955
4454.611506578411,16378.292920571284
4454.634672869205,17085.376644635573
4454.657839280476,17978.62001691006
4454.681005812225,19008.398016032603
4454.704172464451,20054.114154365656
4454.727339237156,21407.236823196065
4454.750506130341,22556.461166050605
4454.773673144005,23239.988258265792
4454.79684027815,23663.833574888573
4454.820007532776,23677.74854780559
4454.843174907884,23312.274478594805
4454.866342403473,22970.32217082732
4454.889510019546,22542.410162761124
4454.912677756102,22151.96357725791
4454.935845613144,22326.614809437022
4454.959013590669,22728.426848025898
4454.982181688681,23313.660972468355
4455.005349907178,24389.683444606926
4455.028518246162,25585.883301087608
4455.051686705633,26609.33449495333
4455.074855285593,27600.15329605732
4455.098023986041,28349.688939779262
4455.121192806979,29568.49659216744
4455.144361748406,30004.295385377434
4455.167530810323,30787.211466287514
4455.190699992732,30877.40995768595
4455.213869295633,30551.95148972282
4455.237038719026,30408.222682210133
4455.260208262912,29710.669340423858
4455.283377927292,29114.703569277073
4455.306547712166,28338.551617884732
4455.329717617535,26947.658517017095
4455.352887643399,25791.02483705653
4455.37605778976,24177.011904026633
4455.399228056617,22204.803538303742
4455.422398443972,20650.46738422399
4455.445568951825,18734.09587885117
4455.468739580177,17098.120023025258
4455.491910329028,15914.314077634373
4455.515081198378,15231.85323361857
4455.538252188229,15261.805078383772
4455.561423298582,15743.444856001755
4455.584594529436,17143.811998955363
4455.607765880793,18619.155504108934
4455.630937352652,20039.14665197409
4455.654108945016,21693.1956451527
4455.677280657883,23454.46366525429
4455.700452491255,25033.25253961803
4455.723624445134,26072.451062854805
4455.746796519518,27302.66710987454
4455.7699687144095,28320.995962489054
4455.793141029808,29024.640066556236
4455.816313465714,29565.239519365234
4455.83948602213,29553.00697196508
4455.862658699055,29150.094467665374
4455.885831496489,28709.50686573074
4455.909004414434,28278.33776996147
4455.932177452891,27708.75570732939
4455.955350611858,26900.605880726012
4455.978523891339,26262.347489662694
4456.001697291333,26041.559413690375
4456.024870811841,26027.387435044304
4456.048044452862,26197.783697083138
4456.071218214399,26193.249058973466
4456.094392096451,25975.286847015286
4456.117566099019,25933.915900033684
4456.140740222105,25787.677645058837
4456.163914465707,25241.583848333532
4456.187088829828,24615.2979005254
4456.210263314468,23696.37074278537
4456.233437919626,22887.950045461344
4456.256612645306,22355.80173236522
4456.279787491505,22299.957128533777
4456.302962458226,22744.09642819721
4456.326137545469,23369.88001199528
4456.349312753233,24405.52667771528
4456.372488081522,25497.5030573171
4456.395663530333,26716.18689197976
4456.41883909967,27902.45216186616
4456.442014789531,28831.919893603274
4456.465190599917,29433.345020010216
4456.488366530831,29998.37119172073
4456.5115425822705,30420.02176122464
4456.5347187542375,30780.209262538236
4456.557895046733,30795.29235496297
4456.581071459757,30769.663727268882
4456.604247993311,30967.702032912588
4456.627424647395,30840.407716829846
4456.650601422009,30613.61447030399
4456.673778317154,30620.47701550484
4456.696955332832,30707.53699354092
4456.720132469041,30864.493402904096
4456.7433097257845,31030.321841201156
4456.766487103061,31076.39794486066
4456.789664600872,31387.639454739437
4456.8128422192185,31322.865974906592
4456.8360199581,31097.77232951258
4456.859197817518,30965.513276475634
4456.882375797473,30666.94475860685
4456.905553897966,29793.959444685945
4456.928732118997,28784.371601726056
4456.951910460566,27396.250529553326
4456.975088922674,25936.36669597411
4456.998267505323,24631.73180378676
4457.021446208513,23451.529548607752
4457.044625032244,22261.53510306195
4457.067803976516,21269.81835034284
4457.090983041332,20731.35756373896
4457.1141622266905,20617.587901467323
4457.1373415325925,20750.240482322148
4457.160520959039,21353.772521759176
4457.183700506031,22046.130878419943
4457.206880173568,23269.057431205223
4457.230059961651,24605.828145722342
4457.2532398702815,25874.74343547718
4457.27641989946,27277.304817512366
4457.299600049186,28047.632106253233
4457.322780319461,29317.003534062573
4457.345960710286,29939.80120108742
4457.36914122166,30446.704852711275
4457.392321853586,30798.041266980912
4457.415502606062,31098.8739278469
4457.43868347909,31526.188287812147
4457.461864472672,31836.506536490895
4457.485045586805,31675.714554312864
4457.508226821494,31397.548068346172
4457.5314081767365,31426.435818821014
4457.554589652534,30623.038680942536
4457.577771248887,30033.538700612302
4457.600952965797,29156.935907504187
4457.624134803263,28329.26346706568
4457.647316761288,26909.53875984132
4457.67049883987,25709.483305503585
4457.693681039011,24898.817613736523
4457.716863358712,23760.020549576206
4457.7400457989725,23319.6751938231
4457.763228359793,22883.88586908128
4457.7864110411765,22846.491346954786
4457.809593843121,22797.724218178526
4457.832776765628,22529.439152717387
4457.855959808699,22485.249287083494
4457.879142972333,23037.28111639228
4457.902326256532,23348.56852768315
4457.925509661296,24283.24429145906
4457.948693186626,24906.133739227946
4457.971876832522,25754.129680253904
4457.995060598985,26514.242734651158
4458.018244486016,27533.281929353056
4458.041428493615,28004.347715533186
4458.0646126217825,27863.656867986883
4458.08779687052,28077.003614448382
4458.110981239827,28000.723521123033
4458.134165729705,27713.93719867376
4458.157350340155,27431.092843177805
4458.180535071177,27872.46884830658
4458.203719922771,28544.949957911464
4458.226904894938,29216.61838989824
4458.2500899876795,29614.02079773578
4458.273275200995,30340.710900163143
4458.296460534886,31087.124432339468
4458.3196459893525,31131.00210990911
4458.342831564396,31209.017279009015
4458.366017260016,31471.623380539568
4458.389203076214,31495.798383058533
4458.4123890129895,31088.87800956648
4458.435575070344,30869.308277161454
4458.458761248279,30286.513440554234
4458.481947546794,29265.781790477566
4458.505133965889,28089.798645991017
4458.528320505566,26744.246992222146
4458.551507165825,24911.752351151066
4458.574693946666,22797.945941888178
4458.597880848091,21045.14838587468
4458.6210678701,18713.69245265977
4458.644255012693,16658.939962195498
4458.6674422758715,15082.213206091572
4458.690629659636,13748.872835641945
4458.713817163986,12797.50187828122
4458.737004788924,12055.023592957874
4458.76019253445,11981.832170958203
4458.783380400563,12158.011796460123
4458.8065683872655,12885.932297205141
4458.829756494558,14023.94209858868
4458.85294472244,14891.741397144979
4458.876133070914,16101.443861938335
4458.899321539979,17159.18540876017
4458.922510129635,17843.72594430488
4458.945698839884,18725.01059314279
4458.968887670727,19568.818763245345
4458.992076622164,20617.674030666993
4459.015265694195,21736.378098452104
4459.0384548868215,23440.96854456162
4459.061644200044,24710.11771767297
4459.084833633862,26498.499079141173
4459.108023188278,27424.504218981154
4459.131212863292,28409.830944655027
4459.154402658904,29557.49967479524
4459.177592575114,30629.20112930832
4459.200782611925,30943.42478324235
4459.223972769336,31829.531878011156
4459.247163047347,31809.553572841953
4459.27035344596,31828.97600984305
4459.293543965176,31581.363493034718
4459.316734604993,31584.36935156927
4459.339925365414,31188.566485011972
4459.363116246439,30670.158307858437
4459.386307248069,30783.762302329727
4459.409498370304,30902.762800371183
4459.432689613145,30993.97700404217
4459.455880976592,31699.82969094605
4459.479072460647,31465.27281067364
4459.502264065309,31839.039525606062
4459.52545579058,32209.4564192602
4459.5486476364595,32343.29013253882
4459.571839602949,32793.163037428865
4459.595031690048,32430.314854461853
4459.618223897759,32350.00090544572
4459.641416226081,31804.544877298973
4459.664608675014,31691.63819858736
4459.687801244561,30620.968499848575
4459.710993934721,29784.678444466823
4459.734186745496,28578.686343035224
4459.757379676885,27124.656966810835
4459.780572728889,25596.623040325554
4459.803765901509,24556.886573618835
4459.8269591947455,23018.2418463749
4459.850152608599,22359.286650058817
4459.87334614307,22062.87781039562
4459.89653979816,22273.102503317754
4459.91973357387,22614.986305791754
4459.942927470198,23542.255219968873
4459.966121487147,24528.820055475513
4459.989315624717,25543.02167538921
4460.0125098829085,26390.96534972258
4460.035704261722,27356.748318914644
4460.058898761158,28778.524160519333
4460.082093381218,29964.792571901726
4460.105288121902,30521.082427241483
4460.12848298321,31672.322844519953
4460.151677965145,31951.770233146806
4460.1748730677045,32413.835407706803
4460.198068290891,33075.116182322614
4460.221263634704,33141.15213161257
4460.244459099145,33358.85781123635
4460.267654684215,33802.874737877566
4460.290850389914,33731.53030332563
4460.314046216243,33602.1155926006
4460.337242163202,33760.73162362294
4460.360438230791,33539.00350403878
4460.383634419013,33338.56356710105
4460.406830727867,33252.2870514854
4460.430027157354,33527.33480266302
4460.453223707474,33121.03928757842
4460.476420378228,33009.95088595889
4460.499617169617,32371.66114875946
4460.522814081641,32476.654193301365
4460.5460111143,31758.29174214518
4460.569208267598,30941.99047091597
4460.592405541532,30451.676028555466
4460.615602936104,29546.732453145556
4460.638800451314,28211.691687044415
4460.661998087163,26777.19251993322
4460.685195843652,25432.960879658618
4460.708393720782,23817.350182804374
4460.731591718552,22631.366673977616
4460.754789836965,21218.211526556526
4460.777988076019,20209.687389232146
4460.801186435716,19431.477956780298
4460.824384916057,18577.429105536336
4460.847583517042,18394.310749237073
4460.870782238671,18464.67002909141
4460.893981080947,18590.985258426514
4460.917180043868,18583.031620728023
4460.940379127435,18767.056597404397
4460.963578331651,18190.494430189607
4460.986777656513,17909.249254165305
4461.009977102025,17305.427236321455
4461.033176668186,16706.70782222713
4461.056376354995,16332.64793959914
4461.079576162457,16001.370223346188
4461.102776090568,15747.721446407852
4461.125976139332,15596.527499771384
4461.149176308748,15297.112794043693
4461.172376598816,14813.769104182178
4461.195577009538,14110.21063237234
4461.218777540915,13531.29765902557
4461.241978192946,12818.979491921022
4461.265178965633,12391.600509930386
4461.2883798589755,12405.501849596569
4461.311580872974,12554.770123654393
4461.3347820076315,13158.99080776809
4461.357983262946,14426.824988812381
4461.381184638919,15712.047264080213
4461.404386135551,16995.020317450515
4461.4275877528435,18371.400457604857
4461.4507894907965,19289.337004780467
4461.4739913494095,19814.402063024274
4461.497193328685,20108.0777978045
4461.520395428623,20147.68872479021
4461.543597649224,19881.50266850966
4461.566799990488,19346.198650149377
4461.590002452416,18670.34836371459
4461.61320503501,18015.278062193192
4461.636407738269,18002.538530269747
4461.659610562193,18521.160191996063
4461.682813506784,19267.589413261547
4461.706016572044,20240.395830933765
4461.729219757971,21616.244682314293
4461.752423064566,22959.80271809434
4461.775626491831,24201.266199647955
4461.798830039766,25317.91737891896
4461.82203370837,26276.9436229267
4461.845237497647,27028.733950588055
4461.868441407595,27419.675587012982
4461.891645438215,27982.674384944683
4461.914849589509,28138.82869049349
4461.938053861475,27997.05494197311
4461.961258254117,27624.014885967266
4461.984462767433,27047.098413618947
4462.007667401424,26145.691936445004
4462.030872156092,25585.865885398656
4462.0540770314365,25077.377000200406
4462.077282027459,24429.133709945458
4462.100487144158,24306.525882904574
4462.123692381537,25017.853195102296
4462.146897739594,25810.250548503893
4462.170103218332,26612.849322502956
4462.19330881775,27520.037189275714
4462.21651453785,28509.55134130558
4462.239720378631,29305.80373751784
4462.262926340095,29955.991628189364
4462.286132422241,30511.21783761546
4462.309338625071,30932.731587069487
4462.3325449485865,31271.13963196757
4462.355751392785,31221.819832971323
4462.3789579576705,31639.612988163153
4462.402164643242,31663.06409754849
4462.4253714495,31667.472673154763
4462.448578376446,31451.66332332721
4462.471785424079,31056.626255260257
4462.494992592401,30701.360019547992
4462.518199881412,30169.21499097529
4462.541407291114,29090.5051841234
4462.564614821506,28360.886511794164
4462.587822472589,27726.293134966312
4462.611030244365,27180.445924089014
4462.634238136832,26679.991532831515
