wave,flux
5000.025812696027,39781.2981390523
5000.051815424163,38869.44618644211
5000.0778182875265,37923.15554370039
5000.103821286119,37204.266147100694
5000.12982441994,36512.344326877326
5000.155827688991,36121.293590921305
5000.181831093272,36156.88541528468
5000.207834632784,36664.83161700561
5000.2338383075285,37190.420275331126
5000.259842117506,37572.39727388537
5000.285846062716,38396.58065527434
5000.311850143161,39295.0173536906
5000.33785435884,39737.90122436777
5000.363858709754,40455.543299732286
5000.389863195905,40931.27004227636
5000.415867817292,41519.96642336999
5000.441872573917,42165.71968908304
5000.4678774657805,42596.57635785369
5000.493882492882,43089.203957507176
5000.519887655224,43610.22407042515
5000.545892952806,43809.71305073565
5000.571898385629,43875.21808066316
5000.597903953694,43718.1192794077
5000.623909657001,43559.299270980904
5000.649915495552,43458.47453542977
5000.675921469346,43110.02986129033
5000.701927578384,42682.92748939697
5000.727933822669,41924.56876593624
5000.7539402021985,40902.22392880858
5000.779946716975,39564.687271936986
5000.805953366999,37902.98335527133
5000.831960152272,36552.253004036706
5000.857967072792,35079.50341820611
5000.883974128563,34141.96694649993
5000.9099813195835,33653.19950601026
5000.935988645855,33803.59059983051
5000.961996107378,34320.9687300846
5000.988003704153,34853.36587412926
5001.014011436181,35302.58867034222
5001.040019303464,35513.68643843526
5001.066027306,35342.77294696421
5001.092035443791,34794.2772726071
5001.118043716839,33770.16858092047
5001.1440521251425,32339.028156106164
5001.170060668704,30928.244624360443
5001.196069347523,28653.63772191933
5001.222078161601,27045.476460884165
5001.248087110937,25438.861110469818
5001.274096195534,24812.4315528379
5001.300105415392,24675.28243144955
5001.326114770512,25343.001136697763
5001.352124260892,26627.97894972359
5001.3781338865365,28139.952056861388
5001.4041436474445,30129.563339752367
5001.430153543616,32504.898671380135
5001.456163575053,34602.16768040419
5001.482173741756,36474.588820154015
5001.508184043724,38391.55378458985
5001.534194480961,39926.22239861723
5001.560205053464,41221.62679684622
5001.586215761236,42401.60455207597
5001.612226604278,43212.54129251119
5001.638237582589,43983.986592715824
5001.664248696171,44688.39900078025
5001.690259945024,44984.00595897567
5001.716271329149,45466.43600584253
5001.742282848547,45708.72048475073
5001.768294503218,45499.90818001642
5001.794306293164,45668.55096173375
5001.820318218383,45705.25256728779
5001.84633027888,45529.63182145656
5001.872342474651,45509.010268164304
5001.8983548056995,45279.51397741394
5001.924367272026,44891.57587384121
5001.9503798736305,44603.789543945284
5001.976392610514,44380.27588305757
5002.002405482678,43761.666046748986
5002.028418490122,43245.623932944385
5002.054431632847,42064.00890841924
5002.080444910854,41038.32778964409
5002.106458324142,39942.39515657636
5002.1324718727155,38612.38366372357
5002.158485556572,37311.11563438449
5002.184499375713,36331.08958916171
5002.210513330139,35856.760122100735
5002.236527419852,36181.523601001056
5002.262541644852,36847.8034089654
5002.288556005138,37650.06344185587
5002.314570500714,38913.158735749756
5002.340585131577,40211.557766437785
5002.36659989773,41143.11112458916
5002.392614799174,42032.04253491326
5002.418629835909,42946.857307546976
5002.444645007936,43995.12686137677
5002.4706603152545,44300.9386206683
5002.496675757866,44669.1666346732
5002.522691335772,45268.267402410704
5002.548707048972,45476.5164487623
5002.574722897468,45667.58728993366
5002.600738881259,45821.36660093147
5002.626755000347,46098.32394533291
5002.652771254732,46144.26135768553
5002.678787644415,46154.9752505591
5002.704804169397,46305.82515499421
5002.730820829678,46251.1818976781
5002.75683762526,46017.76890865455
5002.782854556142,46038.08112178928
5002.8088716223265,46206.69284876245
5002.834888823812,45986.61225236807
5002.860906160601,45939.9259311322
5002.886923632695,46034.96059178866
5002.912941240092,45866.42372844558
5002.938958982793,46251.27895310728
5002.9649768608015,45703.934183282516
5002.990994874116,45758.92180852461
5003.017013022737,45673.187383277516
5003.043031306666,45505.52493057097
5003.069049725905,45331.80572951874
5003.095068280452,44995.043240122686
5003.121086970309,44563.28993212555
5003.147105795477,44322.91998448227
5003.173124755956,44438.00097440663
5003.199143851748,44479.238808507085
5003.225163082852,44198.89063556407
5003.251182449269,43967.14885485092
5003.277201951001,43667.28663892001
5003.3032215880485,43516.54788820735
5003.32924136041,43312.92440805422
5003.35526126809,42715.570540899986
5003.381281311085,42231.82849916893
5003.407301489398,41315.44000111825
5003.433321803031,40877.31893686325
5003.459342251982,40536.24319640024
5003.4853628362525,40371.61437620331
5003.511383555844,40377.96355793392
5003.537404410757,40434.268642172945
5003.563425400991,40654.02386711205
5003.589446526548,40904.96960931887
5003.615467787429,41204.3762839866
5003.641489183634,41806.513303152125
5003.667510715163,42414.380162498695
5003.693532382018,42805.11400812848
5003.719554184199,43214.28261396428
5003.745576121707,43397.519974232855
5003.771598194542,43779.08478005537
5003.797620402706,44470.98629492963
5003.823642746199,44725.855487786255
5003.849665225021,44969.357954344356
5003.875687839174,45350.928335094744
5003.901710588658,45599.99973004908
5003.927733473473,45683.88799012129
5003.953756493622,45880.492667345046
5003.979779649103,46105.135449616304
5004.005802939919,46081.80212226173
5004.031826366068,45966.732182934145
5004.057849927553,46026.98764527609
5004.083873624375,46267.356444780904
5004.109897456533,46208.235622939734
5004.135921424028,45891.195362154576
5004.161945526862,45933.2656619917
5004.187969765035,45822.24364172669
5004.213994138547,45565.7969570785
5004.240018647399,45518.74982688495
5004.266043291592,45218.68981572509
5004.292068071127,44997.39657849208
5004.318092986004,44437.41692164731
5004.344118036223,44053.49769553543
5004.370143221788,43318.956725502314
5004.396168542696,42387.45267172669
5004.422193998949,41395.56382156797
5004.448219590549,40010.033591924395
5004.474245317495,38358.0253824275
5004.500271179789,36577.223715924905
5004.52629717743,34805.11001222394
5004.5523233104195,33306.752419928926
5004.578349578759,32742.841141985475
5004.604375982449,32954.2262884993
5004.630402521489,33246.35607379674
5004.656429195881,34384.102566676476
5004.682456005625,35888.61186154666
5004.708482950721,37167.14532423752
5004.734510031172,38471.58714421228
5004.760537246977,39509.2628000619
5004.7865645981365,40145.2512065121
5004.812592084652,40783.54185019542
5004.838619706525,41013.112310743854
5004.8646474637535,40985.45755294921
5004.890675356341,40693.951387378234
5004.916703384286,40012.08665800918
5004.942731547591,38815.14278412637
5004.968759846256,37384.85009981115
5004.994788280281,35719.20773903446
5005.020816849668,33388.65826087372
5005.046845554417,30973.723665352798
5005.072874394528,29034.461537316303
5005.098903370003,27419.555347163667
5005.124932480842,26567.118832657703
5005.150961727047,26472.43567465834
5005.176991108617,27028.869944842245
5005.203020625552,27933.144295629707
5005.229050277856,28975.607674403094
5005.255080065526,30022.470226882295
5005.281109988566,30770.722142058723
5005.3071400469735,30883.485948332513
5005.333170240751,30784.757022853533
5005.3592005699,30427.705043964885
5005.38523103442,29436.315067257052
5005.411261634312,27834.65617194597
5005.4372923695755,26136.401433601324
5005.463323240213,24559.63144873218
5005.489354246225,23202.025874040693
5005.515385387611,22346.975816847123
5005.541416664373,22420.875259097847
5005.567448076511,23239.00556893049
5005.593479624025,24609.50524794249
5005.619511306918,26650.77939889896
5005.645543125189,28776.70356286863
5005.671575078838,31196.93818532113
5005.697607167867,33241.98388053461
5005.723639392277,35263.9337167958
5005.749671752068,37469.37906319696
5005.77570424724,39107.68912358409
5005.8017368777955,40545.353842701305
5005.8277696437335,41678.967737408995
5005.853802545055,42946.08626301357
5005.879835581762,43579.714354980664
5005.905868753854,44267.95723602321
5005.931902061331,44762.27295960951
5005.957935504196,44907.21542579357
5005.983969082448,45142.91213100469
5006.010002796088,45298.78540453253
5006.036036645117,45289.31303404832
5006.062070629536,45458.71018591642
5006.088104749344,45522.83157544462
5006.114139004544,45405.5332536376
5006.140173395135,45434.12626191862
5006.166207921118,45208.97516282981
5006.192242582495,45227.463816686795
5006.218277379266,45216.569661034126
5006.244312311431,45122.46728521258
5006.270347378991,44631.48559210287
5006.296382581946,44628.15397266808
5006.322417920299,44286.684047731556
5006.348453394048,43899.632153669256
5006.374489003196,43685.09379610948
5006.400524747743,42975.39387916346
5006.426560627688,41726.66459776092
5006.452596643034,40725.647543293744
5006.47863279378,39283.440134317294
5006.504669079928,37320.32452452514
5006.530705501478,35115.31999468937
5006.556742058431,32579.715779980677
5006.582778750788,30125.06967346431
5006.608815578549,28068.57536263315
5006.634852541715,26568.631654814522
5006.660889640287,25918.863834693602
5006.686926874265,25884.544462861475
5006.71296424365,26579.995338181256
5006.739001748444,28014.079147382592
5006.765039388645,29930.919329407603
5006.791077164256,31865.348812936656
5006.817115075277,34028.92284082942
5006.843153121708,35759.06347630835
5006.869191303552,37677.49218302389
5006.895229620806,39374.718814525586
5006.921268073474,40551.771718668664
5006.947306661555,41560.54511502193
5006.97334538505,42609.079627750456
5006.999384243961,43233.22437685181
5007.025423238286,43677.39722329722
5007.051462368028,44009.46887511339
5007.077501633187,43917.491733538074
5007.103541033764,43750.00752990038
5007.129580569759,43984.81749382223
5007.155620241173,44138.83173624513
5007.181660048007,44089.885475274925
5007.207699990262,44454.03534014804
5007.233740067937,44749.499697976826
5007.259780281035,45037.93234330526
5007.285820629555,45486.83949924924
5007.311861113499,45702.61700928313
5007.337901732866,45731.31123853574
5007.363942487658,46272.4546696419
5007.389983377876,46289.2263123366
5007.41602440352,46578.294497999574
5007.442065564591,46647.71515400556
5007.468106861089,46601.13165625275
5007.494148293015,46464.301262971436
5007.520189860371,46510.189334619885
5007.546231563156,46634.17837621096
5007.572273401372,46731.29349016672
5007.598315375018,46890.74781114162
5007.624357484096,46884.42401383171
5007.650399728607,46892.575146453164
5007.676442108551,47222.45111190294
5007.702484623929,47427.02685308654
5007.728527274741,47333.66726583297
5007.754570060989,47197.366528777035
5007.780612982673,47098.51032811854
5007.806656039793,47256.60609228006
5007.832699232351,47178.53500977063
5007.858742560347,47179.82866069438
5007.884786023782,46707.785565936894
5007.910829622656,46946.83858857455
5007.936873356971,46469.07286876499
5007.962917226726,46349.50882512535
5007.988961231923,46328.603168397174
5008.015005372563,46181.306464689485
5008.041049648646,45987.543281003374
5008.067094060171,45822.562202987116
5008.0931386071425,45761.20608629337
5008.119183289558,45940.25154446558
5008.14522810742,46092.37209767834
5008.171273060728,45995.39726496463
5008.197318149483,46098.11816624406
5008.223363373687,46379.10736172055
5008.249408733339,46406.4216306917
5008.27545422844,46358.75258231724
5008.301499858992,46357.30810972092
5008.327545624995,46433.55831699204
5008.353591526448,46647.12275623693
5008.379637563355,46483.48199842352
5008.405683735714,46334.84869160472
5008.431730043527,46454.924499428285
5008.457776486794,46440.52941999615
5008.483823065515,46475.35337668029
5008.509869779693,46775.49814430868
5008.535916629327,46725.982908093065
5008.561963614418,46952.15782161414
5008.588010734968,47011.42500570378
5008.614057990975,47033.04449654396
5008.640105382442,47097.93347200654
5008.666152909369,46917.853715108926
5008.692200571756,46961.014474969386
5008.718248369605,46967.74268635505
5008.744296302916,47078.36886905492
5008.77034437169,47022.20468012974
5008.796392575927,46823.57285773757
5008.822440915628,46870.50701294147
5008.848489390794,46886.50979404549
5008.874538001426,46744.58088592319
5008.900586747524,46715.457416707846
5008.926635629089,46550.76776493601
5008.952684646122,46236.952884327744
5008.978733798623,46214.932957903366
5009.004783086593,46154.08422938818
5009.030832510033,46212.26453398781
5009.056882068944,46127.97794368575
5009.082931763326,45921.365634421076
5009.108981593179,46015.34378103426
5009.135031558506,46124.00633564034
5009.161081659306,45949.114041341265
5009.187131895579,45833.60810184843
5009.213182267327,45715.27046592317
5009.239232774552,45849.62491639026
5009.265283417251,45422.50382164101
5009.291334195428,45231.030488661956
5009.317385109083,44754.68915497211
5009.343436158216,43883.37163530288
5009.369487342828,42995.98246127327
5009.395538662919,42121.873387627995
5009.421590118491,41094.409593160904
5009.447641709544,39978.81903842055
5009.473693436078,38721.74888394446
5009.499745298095,37294.17012209684
5009.525797295596,35791.691854226825
5009.55184942858,34214.79625511119
5009.577901697049,32829.99486044241
5009.603954101003,31828.70060071026
5009.630006640443,31500.246445175926
5009.65605931537,32126.17703212362
5009.682112125784,32984.26232051803
5009.708165071686,34286.832551307576
5009.7342181530785,36049.831809233976
5009.760271369959,37605.339119087555
5009.78632472233,38946.093160329765
5009.812378210192,40756.05476302558
5009.838431833546,41730.89009053197
5009.864485592391,43190.459888203564
5009.890539486731,43896.66241193646
5009.916593516564,44466.384942212804
5009.942647681891,45277.928273079095
5009.968701982713,45832.72738798554
5009.994756419032,46173.282892823525
5010.020810990847,46516.88049185024
5010.046865698159,46881.0558778151
5010.072920540969,46680.67672951216
5010.098975519279,46463.19816969614
5010.125030633087,46581.27106037749
5010.151085882395,46221.77544932874
5010.177141267204,45893.55762115144
5010.2031967875155,45535.97598300833
5010.229252443328,44514.87155287115
5010.255308234644,43854.631424007755
5010.281364161464,43077.61549944512
5010.307420223788,42414.80010889547
5010.333476421617,41908.7180847276
5010.359532754951,41607.90856759997
5010.3855892237925,41882.32682868664
5010.4116458281405,42043.09098737433
5010.437702567997,42573.697386188855
5010.463759443362,43230.24139920605
5010.489816454236,43828.22301703935
5010.51587360062,44449.82371070243
5010.541930882514,45050.741390002826
5010.56798829992,45332.1785868578
5010.5940458528385,45718.64559654024
5010.62010354127,45944.693714290326
5010.646161365214,46271.937210804
5010.672219324672,46677.94040433513
5010.698277419646,46607.28819575875
5010.724335650135,46751.39630752183
5010.7503940161405,46950.07970354454
5010.7764525176635,46802.88364552779
5010.802511154703,46870.053360108344
5010.828569927262,47010.1512913041
5010.85462883534,47013.00241131971
5010.880687878937,46995.00285482089
5010.906747058056,46886.761137301284
5010.932806372695,46710.50298682624
5010.958865822856,46486.49381735242
5010.98492540854,46577.62785538119
5011.0109851297475,46121.293930922846
5011.0370449864795,45967.75140917565
5011.063104978735,45472.71011694886
5011.089165106517,44966.34597455558
5011.115225369825,44453.098741075344
5011.14128576866,44054.647580885525
5011.167346303022,43299.39608902833
5011.193406972913,42696.74989346629
5011.219467778333,41988.25010639351
5011.2455287192815,40668.937905115796
5011.271589795761,39187.041114465515
5011.297651007772,37751.27058512234
5011.323712355315,35785.88725390462
5011.34977383839,33618.59645681955
5011.375835456999,31317.82350549176
5011.401897211142,28724.413430760582
5011.427959100819,26326.757289726338
5011.454021126031,24545.005669743907
5011.4800832867795,23415.996086590592
5011.506145583065,22933.14520979001
5011.532208014888,23358.45103250356
5011.558270582248,24525.37244234381
5011.584333285148,25932.28840851187
5011.610396123588,27780.08358527567
5011.636459097567,29908.337953517388
5011.662522207088,31697.069659859957
5011.68858545215,33278.53071351765
5011.714648832754,34597.652461907135
5011.740712348902,35646.73901930091
5011.766776000594,36126.8445155718
5011.79283978783,36154.25183274192
5011.818903710611,36181.6008515809
5011.844967768939,36498.38307801275
5011.871031962813,37045.56157339803
5011.897096292234,37491.9087977538
5011.923160757203,38627.9292921909
5011.949225357721,39422.797166907185
5011.975290093788,40029.608983678336
5012.001354965406,40465.8025643246
5012.027419972574,41004.71016188265
5012.053485115294,41140.115798878796
5012.079550393566,41321.722240549265
5012.105615807392,41593.32098419361
5012.13168135677,42001.67878187609
5012.157747041703,42337.53699470973
5012.183812862192,42922.08995888937
5012.209878818236,43674.05970983415
5012.235944909837,44028.42136336496
5012.262011136994,44304.41109548146
5012.28807749971,44720.97132477249
5012.3141439979845,45073.86349154647
5012.340210631818,45338.59393628054
5012.366277401212,45536.25121989132
5012.392344306166,45676.77629446298
5012.418411346682,45631.11589335116
5012.44447852276,45595.271647775735
5012.470545834401,45647.88597464331
5012.496613281605,45362.29997254726
5012.522680864374,45086.87724975926
5012.548748582707,44737.58902734391
5012.574816436606,44208.245358601605
5012.600884426071,42839.16245825909
5012.626952551104,41921.827996611784
5012.653020811705,40446.40644961123
5012.679089207873,39240.065068020216
5012.705157739611,37943.789471924414
5012.73122640692,37136.26928387279
5012.757295209798,36912.3204800882
5012.7833641482475,37130.09567447238
5012.80943322227,37003.02067926261
5012.835502431864,37067.64761210481
5012.861571777033,37262.0508328953
5012.887641257775,36831.73416609247
5012.9137108740915,35875.68532643426
5012.939780625984,34891.942242837904
5012.965850513452,33306.64646087935
5012.991920536498,31308.029323804003
5013.017990695121,29480.786418300715
5013.044060989323,27616.043010450714
5013.070131419104,26300.644853948037
5013.096201984464,25786.963545158673
5013.122272685405,25952.487049456322
5013.148343521927,26891.0933183382
5013.17441449403,28371.695109246713
5013.200485601717,30210.552304693138
5013.226556844987,32151.308066959384
5013.2526282238405,33935.24760521173
5013.278699738279,35705.43369670336
5013.304771388303,37241.22196395042
5013.330843173913,38416.43789058548
5013.35691509511,39666.713238448516
5013.382987151894,40502.697650380505
5013.409059344267,40830.313022684255
5013.435131672228,41154.83003194389
5013.46120413578,41320.966027110924
5013.487276734921,40269.345080381216
5013.513349469653,39198.52029968351
5013.539422339977,37957.58854500012
5013.565495345894,36296.78154238569
5013.5915684874035,34772.40636607456
5013.617641764507,33303.53730541774
5013.643715177206,32304.48671473681
5013.6697887254995,31877.13914184577
5013.695862409389,31879.608252584763
5013.721936228875,32906.564375988106
5013.748010183958,33915.41183778125
5013.77408427464,35505.31578036843
5013.800158500921,37026.63843153552
5013.826232862801,38463.65091258121
5013.852307360281,39700.56309520651
5013.8783819933615,40940.33423168177
5013.904456762045,42043.33248309765
5013.930531666329,42724.250736242444
5013.956606706218,43308.4853824767
5013.982681881709,43701.18573129403
5014.008757192805,43892.2510893476
5014.034832639507,43910.03493926675
5014.060908221814,43776.019160072094
5014.086983939728,43374.4157423589
5014.113059793249,42762.10472764115
5014.139135782378,41766.12487093012
5014.165211907116,40285.33431253835
5014.1912881674625,38863.25515274028
5014.21736456342,37081.29861270708
5014.243441094988,34882.38173141031
5014.269517762167,32825.893549199165
5014.295594564959,30956.462278924988
5014.321671503363,29242.40872184455
5014.347748577381,28232.389073964474
