wave,flux
4450.003811362098,12029.044385912619
4450.026953690486,13242.912417725685
4450.050096139227,14784.501283940237
4450.073238708321,16623.68523935561
4450.096381397769,18501.176447443402
4450.119524207569,20507.66484122328
4450.142667137726,22211.24955825999
4450.165810188237,23675.863423877083
4450.188953359103,24787.641567148825
4450.212096650326,26077.615466409057
4450.2352400619075,27250.09550288656
4450.258383593846,28357.343335897905
4450.281527246142,29583.45239891397
4450.304671018797,30229.3107429765
4450.327814911813,30734.5010282392
4450.350958925188,31416.68600997857
4450.374103058924,32129.767749127142
4450.3972473130225,33220.97659752945
4450.420391687483,34338.02495680107
4450.443536182305,35129.43888555142
4450.466680797492,36101.17733568195
4450.489825533042,37200.93894341869
4450.512970388957,37825.55282043545
4450.536115365237,38278.34096146838
4450.559260461882,38861.089980231816
4450.582405678895,39150.4910149135
4450.605551016274,39530.79813557729
4450.628696474022,39860.14240356699
4450.651842052138,39898.329790287
4450.674987750623,39936.92134871893
4450.698133569476,39793.750900322266
4450.721279508702,39753.23669715542
4450.744425568297,39334.68049269547
4450.767571748264,38734.50015669623
4450.790718048604,38533.49567059051
4450.813864469315,38047.449841805996
4450.837011010401,37454.12464290702
4450.86015767186,36237.643625168064
4450.883304453694,34994.91263841086
4450.906451355903,33462.91807857347
4450.929598378489,31883.745513094174
4450.95274552145,29827.5258602426
4450.975892784789,27575.014183000465
4450.999040168505,25682.242447550474
4451.022187672601,24264.51051968582
4451.045335297074,23674.371419959323
4451.068483041929,23739.121976067778
4451.091630907163,24474.584479512494
4451.114778892777,25591.28908320136
4451.137926998774,27233.204257507405
4451.161075225153,29103.401660322437
4451.184223571914,30798.135911088586
4451.207372039059,32440.549418022827
4451.230520626587,33951.53234168946
4451.253669334501,35162.41896654332
4451.2768181628,36022.07374403507
4451.299967111485,36764.051181639275
4451.323116180556,37201.94617738721
4451.346265370014,37488.50786833314
4451.369414679861,37450.34487652896
4451.392564110095,37423.41135357707
4451.415713660719,37107.83405842537
4451.438863331732,36705.80449318718
4451.462013123136,36609.33342212596
4451.48516303493,35969.9837839068
4451.508313067117,36212.60424045266
4451.531463219695,36483.55491806365
4451.554613492666,36920.727953482135
4451.577763886031,36756.12829680175
4451.60091439979,37425.20467274585
4451.624065033943,38082.350011223
4451.647215788492,38205.07382800225
4451.670366663436,38679.03853140495
4451.693517658777,39132.6951918921
4451.716668774516,39566.842120846406
4451.739820010652,39920.43277783311
4451.762971367186,40022.563437828
4451.78612284412,40095.64085568395
4451.8092744414525,40356.40629749132
4451.832426159187,40189.01152781622
4451.855577997321,40154.8699926287
4451.878729955857,40270.12932115622
4451.901882034796,39928.273575666004
4451.925034234137,39530.78897420889
4451.948186553881,39334.91625027446
4451.97133899403,39014.009134285094
4451.994491554583,38556.13401930051
4452.017644235542,38101.68561986655
4452.040797036907,37512.484281016645
4452.063949958678,36625.171766252635
4452.087103000857,36213.59059447909
4452.1102561634425,35907.38913450395
4452.133409446437,35278.48298474069
4452.156562849841,34991.0048528129
4452.179716373655,34602.53948985318
4452.202870017878,34620.735939801336
4452.226023782513,34875.62908075788
4452.24917766756,35254.4907780405
4452.272331673018,35841.02249125932
4452.29548579889,36103.10564337124
4452.318640045174,36388.94508156443
4452.341794411874,36257.89134811506
4452.364948898987,36248.76060399364
4452.388103506516,36447.04251700793
4452.4112582344615,35967.41154609319
4452.434413082823,35599.18032739853
4452.457568051602,35300.03187990593
4452.480723140799,35522.79548464201
4452.503878350413,35037.046286149896
4452.527033680448,35509.74005512272
4452.550189130902,35564.13895171716
4452.5733447017765,36112.35428835524
4452.596500393071,36240.29200451159
4452.619656204789,35840.86274844158
4452.642812136928,35808.639875188535
4452.66596818949,35002.71367725294
4452.689124362475,34269.844933085136
4452.7122806558855,34071.974854835185
4452.735437069719,33277.53841465464
4452.7585936039795,32310.843985354604
4452.781750258665,31859.972097221907
4452.804907033777,31588.356292644406
4452.828063929317,31940.467407534907
4452.851220945285,32673.25818163125
4452.87437808168,33526.29310632804
4452.897535338506,34540.095841977294
4452.92069271576,35202.293346514845
4452.943850213445,35945.30713350868
4452.967007831562,36841.65216421996
4452.99016557011,37394.94817860269
4453.01332342909,37826.10931692486
4453.036481408502,38150.859112947
4453.059639508349,38027.93278465218
4453.08279772863,37758.8017538977
4453.105956069345,37691.77743792876
4453.129114530496,37525.438932041514
4453.152273112083,37245.19462908099
4453.175431814107,36927.3111374746
4453.198590636567,36923.061093169024
4453.221749579466,37447.51018070787
4453.244908642802,37466.56182715649
4453.268067826579,37405.082585155666
4453.291227130795,37903.70496886444
4453.314386555451,38545.74370711046
4453.337546100549,38795.86420494688
4453.360705766087,39183.52485066812
4453.3838655520685,39531.567771870534
4453.407025458493,39551.57882692235
4453.430185485361,39824.32662754586
4453.453345632673,39681.82795598665
4453.476505900429,39854.02011323459
4453.4996662886315,39962.927975716106
4453.52282679728,39844.93265407169
4453.545987426375,39634.1256869825
4453.569148175917,39477.264330062375
4453.592309045907,38908.797712984175
4453.615470036346,38776.9623743075
4453.638631147233,37968.43804821712
4453.661792378571,37192.84478887453
4453.684953730359,36226.19670620425
4453.708115202598,34594.94294074792
4453.731276795288,32964.60506632552
4453.754438508431,31215.027783095382
4453.777600342027,28925.511774366678
4453.800762296077,26919.081049845987
4453.82392437058,24947.946155847876
4453.847086565538,23466.038863458838
4453.870248880952,22866.50839947277
4453.8934113168225,23018.80432904124
4453.916573873149,23641.94226108029
4453.939736549933,24574.580178536893
4453.962899347174,25176.973943098576
4453.986062264875,25842.39077195629
4454.009225303034,26144.863413813164
4454.032388461654,26020.661953541814
4454.055551740734,25254.628639146005
4454.078715140275,24143.284291575357
4454.101878660277,22811.043162980437
4454.125042300742,21151.22613812545
4454.14820606167,19410.80729466014
4454.171369943061,17587.93786259671
4454.194533944917,15791.989927194558
4454.2176980672375,14362.791168054942
4454.240862310024,13550.06473310209
4454.264026673275,13411.381852034301
4454.287191156994,13688.544011544085
4454.31035576118,14616.02305086902
4454.333520485834,15954.410089929079
4454.356685330957,17235.312384440567
4454.379850296548,18593.333680959437
4454.40301538261,19689.181555481224
4454.426180589142,20463.846444152936
4454.449345916145,21184.4135675357
4454.4725113636205,21969.04864091829
4454.495676931568,22718.51229998598
4454.5188426199875,23922.109666010747
4454.542008428882,25146.94982456433
4454.565174358249,26293.294225075733
4454.588340408092,27648.554150658427
4454.611506578411,28321.62648264687
4454.634672869205,28823.441816893435
4454.657839280476,28788.57972521514
4454.681005812225,28123.98910768063
4454.704172464451,27485.614543791206
4454.727339237156,26892.368942990193
4454.750506130341,26457.226328898978
4454.773673144005,26200.594212535147
4454.79684027815,26748.43782284944
4454.820007532776,27616.649526916968
4454.843174907884,28660.201012751986
4454.866342403473,30030.618837354847
4454.889510019546,31715.32947459909
4454.912677756102,33051.28261700032
4454.935845613144,34193.21077021212
4454.959013590669,35308.03777599239
4454.982181688681,35863.83127393108
4455.005349907178,36180.66960645453
4455.028518246162,36571.80740767201
4455.051686705633,36472.91371719581
4455.074855285593,36212.448041307274
4455.098023986041,35945.272185422546
4455.121192806979,35199.98540129826
4455.144361748406,34488.81863168448
4455.167530810323,33111.868791576155
4455.190699992732,32015.918280480833
4455.213869295633,30017.43697448544
4455.237038719026,28384.91544821803
4455.260208262912,25951.0043772186
4455.283377927292,23772.49444637525
4455.306547712166,21833.989098308768
4455.329717617535,20208.692290497314
4455.352887643399,19388.414534123174
4455.37605778976,19344.301969258962
4455.399228056617,20303.222301052196
4455.422398443972,21672.013521682744
4455.445568951825,23619.292920556705
4455.468739580177,25745.485137426633
4455.491910329028,27598.719527805875
4455.515081198378,29309.087129882235
4455.538252188229,30915.855812276208
4455.561423298582,32341.736641134317
4455.584594529436,33802.29522198669
4455.607765880793,34547.75295920726
4455.630937352652,35186.75241689813
4455.654108945016,35792.91737377506
4455.677280657883,35729.72883284187
4455.700452491255,35407.8134027564
4455.723624445134,35011.39034029953
4455.746796519518,34342.395897804345
4455.7699687144095,33445.61303427539
4455.793141029808,32600.630614718393
4455.816313465714,31914.863443420203
4455.83948602213,31455.705894803563
4455.862658699055,31335.152283868643
4455.885831496489,31463.1564272289
4455.909004414434,31725.871372641148
4455.932177452891,31798.65141416327
4455.955350611858,31608.764713179204
4455.978523891339,31223.140241451907
4456.001697291333,30429.40948875026
4456.024870811841,29725.356385612315
4456.048044452862,28688.788545151026
4456.071218214399,27165.169074246856
4456.094392096451,26491.928997503055
4456.117566099019,26339.699728532418
4456.140740222105,26454.701357802332
4456.163914465707,27222.891110894754
4456.187088829828,28387.13649955815
4456.210263314468,29751.634554083255
4456.233437919626,31233.268373406092
4456.256612645306,32356.69635840734
4456.279787491505,33443.709354709674
4456.302962458226,34405.440640356006
4456.326137545469,35059.5529985677
4456.349312753233,35907.58815630319
4456.372488081522,35970.97880709077
4456.395663530333,36430.45616670141
4456.41883909967,36633.94350708016
4456.442014789531,36217.209734580036
4456.465190599917,36203.77666117745
4456.488366530831,36143.53065540363
4456.5115425822705,36060.89126336195
4456.5347187542375,36251.7547289439
4456.557895046733,36482.65928033526
4456.581071459757,36837.5027434811
4456.604247993311,36871.860782474636
4456.627424647395,37129.53403647792
4456.650601422009,37364.574463310295
4456.673778317154,37421.10140445178
4456.696955332832,36967.41032958152
4456.720132469041,36757.69182781254
4456.7433097257845,35724.341202975935
4456.766487103061,34776.574727619765
4456.789664600872,33358.54567028545
4456.8128422192185,31784.872559072854
4456.8360199581,30155.455925722694
4456.859197817518,28414.82161837891
4456.882375797473,26907.855724836634
4456.905553897966,25809.161035020497
4456.928732118997,24969.93532493374
4456.951910460566,25009.013516446892
4456.975088922674,25269.692753421154
4456.998267505323,25615.002737885367
4457.021446208513,26702.039826723056
4457.044625032244,27638.558707462464
4457.067803976516,28971.028222803634
4457.090983041332,30800.775307191154
4457.1141622266905,32226.95116454812
4457.1373415325925,33513.3129464621
4457.160520959039,34763.039823857056
4457.183700506031,35663.03206978944
4457.206880173568,36661.550193480536
4457.230059961651,37008.057867645046
4457.2532398702815,36998.68612190953
4457.27641989946,37632.763870858245
4457.299600049186,37878.78242720508
4457.322780319461,37591.34878600255
4457.345960710286,37310.08989724024
4457.36914122166,37073.39877643834
4457.392321853586,36684.75185557638
4457.415502606062,36219.84861485418
4457.43868347909,35501.06491083193
4457.461864472672,33918.6671153229
4457.485045586805,32708.193511812693
4457.508226821494,31365.54558606271
4457.5314081767365,30141.156305763776
4457.554589652534,29420.70722936216
4457.577771248887,28679.074130354747
4457.600952965797,28227.74656246611
4457.624134803263,28416.511836321864
4457.647316761288,27875.92331444397
4457.67049883987,27854.631317936546
4457.693681039011,27694.45027132618
4457.716863358712,27797.595172572703
4457.7400457989725,28430.650818288254
4457.763228359793,29265.190707649643
4457.7864110411765,30082.109795763376
4457.809593843121,31191.31800166382
4457.832776765628,32229.249802560633
4457.855959808699,32824.20333944322
4457.879142972333,33537.481217545326
4457.902326256532,33696.85848747986
4457.925509661296,33762.55467986034
4457.948693186626,33399.00698217942
4457.971876832522,33160.51794597687
4457.995060598985,33272.61607478631
4458.018244486016,33412.931596147624
4458.041428493615,34051.01774711574
4458.0646126217825,34180.26344501531
4458.08779687052,35117.339282361696
4458.110981239827,35933.81800402439
4458.134165729705,36222.49986645827
4458.157350340155,36921.81764252814
4458.180535071177,37324.205615598126
4458.203719922771,37730.42920209612
4458.226904894938,37617.24420461915
4458.2500899876795,37868.7083347293
4458.273275200995,37252.75614033629
4458.296460534886,36628.535012397886
4458.3196459893525,36013.955045153
4458.342831564396,34552.7905227258
4458.366017260016,33043.90106893484
4458.389203076214,31277.702665127585
4458.4123890129895,29269.72185854487
4458.435575070344,27023.243887178676
4458.458761248279,24186.696394960396
4458.481947546794,21637.492849114176
4458.505133965889,19455.62601217263
4458.528320505566,17306.803354299584
4458.551507165825,16141.234981176765
4458.574693946666,15140.996703149569
4458.597880848091,14887.501551705795
4458.6210678701,15395.064191016108
4458.644255012693,16434.137597409954
4458.6674422758715,17883.251953616433
4458.690629659636,19182.674100274835
4458.713817163986,20717.91048164066
4458.737004788924,22067.24763137147
4458.76019253445,23217.00222741175
4458.783380400563,23868.626320748128
4458.8065683872655,24652.463376834723
4458.829756494558,25645.446362564177
4458.85294472244,27083.200059523137
4458.876133070914,28428.806886024424
4458.899321539979,30031.11028353759
4458.922510129635,31602.17786154666
4458.945698839884,33103.35337684039
4458.968887670727,34361.53999348626
4458.992076622164,35665.88989101743
4459.015265694195,36423.44589907011
4459.0384548868215,36808.28202008965
4459.061644200044,37297.488574396935
4459.084833633862,37767.33556221491
4459.108023188278,37814.55491068929
4459.131212863292,37538.91472324486
4459.154402658904,37212.71655788607
4459.177592575114,36972.55351592477
4459.200782611925,36751.72241491241
4459.223972769336,36597.77732069751
4459.247163047347,36821.54886887825
4459.27035344596,36953.61152487388
4459.293543965176,37157.989375093
4459.316734604993,37683.00739821458
4459.339925365414,38136.53577761459
4459.363116246439,38225.76287359692
4459.386307248069,38355.017982470454
4459.409498370304,38523.66298646291
4459.432689613145,38397.05724749244
4459.455880976592,38060.70916367881
4459.479072460647,37900.9561430796
4459.502264065309,37241.33700007093
4459.52545579058,36774.50526805235
4459.5486476364595,35680.37706527353
4459.571839602949,34368.8616147031
4459.595031690048,32580.934781747193
4459.618223897759,30914.903970469684
4459.641416226081,29129.379113510407
4459.664608675014,27425.789918293787
4459.687801244561,26490.65412265963
4459.710993934721,25994.227477585835
4459.734186745496,26241.907437040896
4459.757379676885,27185.614192582878
4459.780572728889,28368.50991991016
4459.803765901509,29377.858482664004
4459.8269591947455,30673.456579002966
4459.850152608599,31977.29076518977
4459.87334614307,33368.51562291213
4459.89653979816,34232.6116654634
4459.91973357387,35556.63611502577
4459.942927470198,36559.49231910408
4459.966121487147,37662.02099115657
4459.989315624717,37932.62594090329
4460.0125098829085,38519.65071437385
4460.035704261722,38827.654605095166
4460.058898761158,39318.439850254224
4460.082093381218,39378.983576527484
4460.105288121902,39848.66301843702
4460.12848298321,39535.242343901795
4460.151677965145,39855.00792406123
4460.1748730677045,39408.96047352321
4460.198068290891,39287.47688288151
4460.221263634704,39425.237672208925
4460.244459099145,39179.987446741434
4460.267654684215,38938.7510856716
4460.290850389914,39007.81443792322
4460.314046216243,38968.65840788978
4460.337242163202,38532.7203451927
4460.360438230791,38395.134228694085
4460.383634419013,38050.19311880657
4460.406830727867,37329.72364298224
4460.430027157354,36655.19686512106
4460.453223707474,35085.28783171938
4460.476420378228,33975.16103771944
4460.499617169617,32507.42306795142
4460.522814081641,30725.81266828803
4460.5460111143,28811.008128422276
4460.569208267598,27363.02260145845
4460.592405541532,25562.451807242534
4460.615602936104,24030.716085857865
4460.638800451314,23060.597773874528
4460.661998087163,22184.33769303533
4460.685195843652,21688.54079773201
4460.708393720782,21547.860937083347
4460.731591718552,21435.210609430662
4460.754789836965,22019.854458504673
4460.777988076019,21849.3772009992
4460.801186435716,21665.892822353388
4460.824384916057,21116.554400986824
4460.847583517042,20448.34234612919
4460.870782238671,19817.31530887829
4460.893981080947,19105.222249670733
4460.917180043868,18695.199978419856
4460.940379127435,18525.27075027006
4460.963578331651,18511.124973015245
4460.986777656513,18599.516764222004
4461.009977102025,18274.243207867687
4461.033176668186,17829.791685995227
4461.056376354995,16703.340525630832
4461.079576162457,16000.339306688853
4461.102776090568,15269.609006339255
4461.125976139332,14996.883624141443
4461.149176308748,15426.653159076683
4461.172376598816,16422.12540980157
4461.195577009538,17918.284592657066
4461.218777540915,19654.133373256005
4461.241978192946,21616.69032200186
4461.265178965633,23239.797111143518
4461.2883798589755,24740.96183970473
4461.311580872974,25803.189405224173
4461.3347820076315,26299.998124268375
4461.357983262946,26193.816777343567
4461.381184638919,25569.06179490969
4461.404386135551,24642.191644719922
4461.4275877528435,23637.875033757024
4461.4507894907965,22771.222893653518
4461.4739913494095,22710.102279347815
4461.497193328685,22985.143124054575
4461.520395428623,23795.81161035475
4461.543597649224,25165.922259729057
4461.566799990488,26817.128538590474
4461.590002452416,28326.568328535453
4461.61320503501,29425.524441331363
4461.636407738269,30653.445081136433
4461.659610562193,31919.126957487057
4461.682813506784,33023.53109147863
4461.706016572044,33675.40488410848
4461.729219757971,34049.97678096274
4461.752423064566,34304.434872103455
4461.775626491831,34315.49164460195
4461.798830039766,33907.310036474475
4461.82203370837,33012.84531533446
4461.845237497647,32055.23894432029
4461.868441407595,31008.378786618217
4461.891645438215,30259.08761914726
4461.914849589509,29636.15137871246
4461.938053861475,29647.990156064803
4461.961258254117,30138.167619906137
4461.984462767433,30881.915986879412
4462.007667401424,32009.17320092524
4462.030872156092,33195.149136585576
4462.0540770314365,34172.60055704253
4462.077282027459,35026.94379390071
4462.100487144158,35674.296746313616
4462.123692381537,36373.541719972316
4462.146897739594,36905.364074004545
4462.170103218332,37197.0310691966
4462.19330881775,37291.761368138556
4462.21651453785,37416.190182342965
4462.239720378631,37710.92520392412
4462.262926340095,37560.66928450466
4462.286132422241,37351.21367630918
4462.309338625071,37350.32027904951
4462.3325449485865,36448.391606026846
4462.355751392785,35356.915454324524
4462.3789579576705,34299.188214545575
4462.402164643242,33172.00217777529
4462.4253714495,32505.16402750693
4462.448578376446,31900.286805598113
4462.471785424079,31623.155306135224
4462.494992592401,31933.62400667864
4462.518199881412,32081.35941655238
4462.541407291114,32596.899090666553
4462.564614821506,33482.384038678014
4462.587822472589,34180.636519329615
4462.611030244365,34649.48505042697
4462.634238136832,35190.863151293146
4462.657446149992,35701.6709954152
4462.680654283847,36168.9575826609
4462.703862538396,36238.70824855332
