wave,flux
4450.003811362098,11823.212976794888
4450.026953690486,12715.092471433887
4450.050096139227,13939.279804542943
4450.073238708321,15910.106965183875
4450.096381397769,17891.437860294078
4450.119524207569,20141.336740206385
4450.142667137726,22147.46729310738
4450.165810188237,23963.625668393186
4450.188953359103,25383.79883898475
4450.212096650326,26786.639276139853
4450.2352400619075,28040.120007492264
4450.258383593846,29286.831435321317
4450.281527246142,30431.499121102326
4450.304671018797,31819.655919442797
4450.327814911813,32722.35517387027
4450.350958925188,33431.435820339015
4450.374103058924,34165.98353035351
4450.3972473130225,35026.77443537888
4450.420391687483,36128.9192894319
4450.443536182305,37312.862472523884
4450.466680797492,38722.030635007475
4450.489825533042,40079.47587173892
4450.512970388957,41363.850721613744
4450.536115365237,42146.731861505694
4450.559260461882,42841.67930005093
4450.582405678895,43878.305740916425
4450.605551016274,44158.67452912772
4450.628696474022,44381.85429927852
4450.651842052138,44624.63896967943
4450.674987750623,44389.23866974017
4450.698133569476,44568.10544908052
4450.721279508702,44706.335936265044
4450.744425568297,44432.0207035902
4450.767571748264,44084.96497934165
4450.790718048604,43623.34067729432
4450.813864469315,43150.57124188807
4450.837011010401,42498.661551314726
4450.86015767186,41497.30838624864
4450.883304453694,40286.73606035449
4450.906451355903,38715.34225370717
4450.929598378489,37001.46854784346
4450.95274552145,34661.763103882266
4450.975892784789,32356.809609813736
4450.999040168505,29937.78407459388
4451.022187672601,27505.37224208168
4451.045335297074,26086.126495139593
4451.068483041929,25241.38104387406
4451.091630907163,25205.829451320806
4451.114778892777,26025.961648028024
4451.137926998774,27650.24330381735
4451.161075225153,29414.39363263093
4451.184223571914,31830.28823486333
4451.207372039059,33993.13332180228
4451.230520626587,36004.58016559725
4451.253669334501,37758.83884565638
4451.2768181628,39238.324340485655
4451.299967111485,40154.09927393979
4451.323116180556,41096.11534909891
4451.346265370014,41775.519369439644
4451.369414679861,41549.14439913842
4451.392564110095,41401.14802578502
4451.415713660719,41063.49510609282
4451.438863331732,40549.84193075523
4451.462013123136,40065.85388614969
4451.48516303493,39530.567612576815
4451.508313067117,39164.65205728116
4451.531463219695,39461.58522698787
4451.554613492666,39753.86239708132
4451.577763886031,40037.95111361801
4451.60091439979,40502.812258046215
4451.624065033943,40770.66621692683
4451.647215788492,41693.80485649658
4451.670366663436,42497.66790463242
4451.693517658777,42905.293053476824
4451.716668774516,43642.63229957906
4451.739820010652,44191.90386703594
4451.762971367186,44466.402208480846
4451.78612284412,44468.291994103
4451.8092744414525,44863.73663030277
4451.832426159187,45346.971746502546
4451.855577997321,44995.10800761464
4451.878729955857,45003.06254942629
4451.901882034796,44554.65551598576
4451.925034234137,44377.36204007636
4451.948186553881,44383.06941204518
4451.97133899403,43996.15600232535
4451.994491554583,43345.987433849754
4452.017644235542,42562.54204234964
4452.040797036907,41722.640290017465
4452.063949958678,40993.73741675852
4452.087103000857,40053.36353466577
4452.1102561634425,39421.852300898914
4452.133409446437,39291.610993722774
4452.156562849841,38621.40763064916
4452.179716373655,37729.25869874321
4452.202870017878,37305.885424720094
4452.226023782513,37356.5580461883
4452.24917766756,37659.718415873656
4452.272331673018,38134.24114159676
4452.29548579889,38742.818420134834
4452.318640045174,39224.851019092064
4452.341794411874,39576.39781345039
4452.364948898987,39691.93557916704
4452.388103506516,39762.46796697948
4452.4112582344615,39682.712724908604
4452.434413082823,39449.342478215105
4452.457568051602,38971.63529847662
4452.480723140799,38451.018530581496
4452.503878350413,38301.97610432639
4452.527033680448,38151.96346682923
4452.550189130902,38402.394667399785
4452.5733447017765,38670.35845205697
4452.596500393071,39365.31568644793
4452.619656204789,39369.99340671617
4452.642812136928,39329.60636847131
4452.66596818949,38811.96859079227
4452.689124362475,38482.12083387196
4452.7122806558855,38061.19023557925
4452.735437069719,36986.832376625716
4452.7585936039795,35877.31412496168
4452.781750258665,34880.7570414223
4452.804907033777,34536.97459571054
4452.828063929317,34367.92907956807
4452.851220945285,34694.449050951676
4452.87437808168,35515.69983043461
4452.897535338506,36915.78925650532
4452.92069271576,38140.97940687736
4452.943850213445,39069.06265145703
4452.967007831562,40237.50827373622
4452.99016557011,41036.87217915673
4453.01332342909,41706.09137737673
4453.036481408502,42155.19266195154
4453.059639508349,42433.796491140376
4453.08279772863,42426.400563632444
4453.105956069345,42280.187654939095
4453.129114530496,41758.54966119888
4453.152273112083,41193.7982989899
4453.175431814107,40656.40353876892
4453.198590636567,40405.93894909776
4453.221749579466,40558.294181934674
4453.244908642802,40896.710579055645
4453.268067826579,41219.576011634934
4453.291227130795,41540.65776271575
4453.314386555451,42101.89110001814
4453.337546100549,42619.51508969517
4453.360705766087,43082.65746710598
4453.3838655520685,43540.77479204644
4453.407025458493,43836.94551332801
4453.430185485361,43875.23838104097
4453.453345632673,43910.11936857034
4453.476505900429,44348.29913718853
4453.4996662886315,44476.8854369915
4453.52282679728,44383.96656061297
4453.545987426375,44115.79544029554
4453.569148175917,44011.44515659115
4453.592309045907,43968.03481229725
4453.615470036346,43605.38956273839
4453.638631147233,43169.565113240475
4453.661792378571,42367.514746283756
4453.684953730359,41389.88562304364
4453.708115202598,40003.75130736281
4453.731276795288,38248.325331263906
4453.754438508431,36335.49087711133
4453.777600342027,34158.46140682904
4453.800762296077,31325.694055245538
4453.82392437058,28865.310526058114
4453.847086565538,26700.94327366487
4453.870248880952,24966.64480293008
4453.8934113168225,24121.4178468383
4453.916573873149,24293.495293049273
4453.939736549933,25048.631421420127
4453.962899347174,26202.395851257796
4453.986062264875,27320.47622645235
4454.009225303034,27824.46078844646
4454.032388461654,28503.40235646682
4454.055551740734,28102.48670385491
4454.078715140275,27136.804628308913
4454.101878660277,26149.19295238283
4454.125042300742,24529.514884590833
4454.14820606167,22641.15026681621
4454.171369943061,20649.65550127245
4454.194533944917,18699.85815793033
4454.2176980672375,16753.900032218644
4454.240862310024,15409.046766697295
4454.264026673275,14438.396350151856
4454.287191156994,14147.372398437086
4454.31035576118,14544.484320860944
4454.333520485834,15498.202543875652
4454.356685330957,16874.39515552537
4454.379850296548,18528.996354014103
4454.40301538261,20124.532088900716
4454.426180589142,21214.521726261868
4454.449345916145,22042.481030138017
4454.4725113636205,22722.00524081188
4454.495676931568,23511.199542523816
4454.5188426199875,24543.37967836445
4454.542008428882,25758.108006876835
4454.565174358249,27224.587354286916
4454.588340408092,28879.410941200516
4454.611506578411,30261.1320063354
4454.634672869205,31089.13603267382
4454.657839280476,31737.25416850006
4454.681005812225,31828.532106743023
4454.704172464451,31200.75637820823
4454.727339237156,30160.3762908421
4454.750506130341,29141.35539802086
4454.773673144005,28669.16967742512
4454.79684027815,28653.21418774709
4454.820007532776,28810.951639550403
4454.843174907884,29588.068581726333
4454.866342403473,31294.37909865493
4454.889510019546,33102.12591046326
4454.912677756102,35090.01274478342
4454.935845613144,36896.98007602863
4454.959013590669,38256.94816721009
4454.982181688681,38967.89305735409
4455.005349907178,39984.399641541
4455.028518246162,40524.47517741169
4455.051686705633,40796.6088491518
4455.074855285593,40539.93822266109
4455.098023986041,40311.27837940864
4455.121192806979,39610.666582927624
4455.144361748406,38903.87089743189
4455.167530810323,37667.12744433445
4455.190699992732,36194.84933306558
4455.213869295633,34129.684874958235
4455.237038719026,32611.8536749682
4455.260208262912,30305.88995001035
4455.283377927292,27485.31066809468
4455.306547712166,25037.994375818977
4455.329717617535,22939.429874905316
4455.352887643399,21320.16047560782
4455.37605778976,20468.206699699593
4455.399228056617,20654.980409471507
4455.422398443972,21728.753040360774
4455.445568951825,23212.248311742052
4455.468739580177,25434.87633684425
4455.491910329028,28139.56921573081
4455.515081198378,30299.920892178456
4455.538252188229,32346.54169899754
4455.561423298582,34342.638920306745
4455.584594529436,36176.96108917904
4455.607765880793,37785.01292112221
4455.630937352652,38840.3705670584
4455.654108945016,39602.5848272338
4455.677280657883,39838.790234887965
4455.700452491255,39893.166353940745
4455.723624445134,39487.98831536603
4455.746796519518,38523.32398207843
4455.7699687144095,37462.20940550266
4455.793141029808,35960.41555889467
4455.816313465714,34660.25493498276
4455.83948602213,33826.52914120569
4455.862658699055,33362.75542815464
4455.885831496489,33206.61858181417
4455.909004414434,33465.94312258087
4455.932177452891,33650.88781755719
4455.955350611858,34147.82546728241
4455.978523891339,33982.34973280352
4456.001697291333,33743.04819679894
4456.024870811841,33166.67468042967
4456.048044452862,31955.054644650772
4456.071218214399,30608.97419154273
4456.094392096451,29378.477558320414
4456.117566099019,28615.367940528602
4456.140740222105,28227.554640250673
4456.163914465707,28661.410426733008
4456.187088829828,29867.515602849813
4456.210263314468,31186.572212027153
4456.233437919626,32729.457206918116
4456.256612645306,34418.921690040064
4456.279787491505,35965.09520885675
4456.302962458226,37401.45950448737
4456.326137545469,38547.79550921912
4456.349312753233,39112.54034857203
4456.372488081522,39673.8205188483
4456.395663530333,40234.74443055118
4456.41883909967,40440.741680506726
4456.442014789531,40411.31025154324
4456.465190599917,40148.406066191914
4456.488366530831,39840.47304475051
4456.5115425822705,39585.87556707693
4456.5347187542375,39537.67131660996
4456.557895046733,39528.83372876733
4456.581071459757,40131.750253296435
4456.604247993311,40745.47472107854
4456.627424647395,40730.01449864586
4456.650601422009,41049.608341147745
4456.673778317154,41190.9423522653
4456.696955332832,41157.09736379079
4456.720132469041,40861.55569214953
4456.7433097257845,40378.53371754869
4456.766487103061,39627.73400184592
4456.789664600872,38270.652622604386
4456.8128422192185,36565.70444346102
4456.8360199581,34597.95821559039
4456.859197817518,32370.990711736093
4456.882375797473,30481.783881619678
4456.905553897966,28227.862454954702
4456.928732118997,27029.075990150406
4456.951910460566,26690.93010017221
4456.975088922674,26271.68429564647
4456.998267505323,26225.238138674333
4457.021446208513,27020.989650525673
4457.044625032244,28203.436395248107
4457.067803976516,29804.523683558273
4457.090983041332,31816.678372281258
4457.1141622266905,33890.602292269476
4457.1373415325925,35487.311315013554
4457.160520959039,37181.12472348229
4457.183700506031,38547.05789105138
4457.206880173568,39748.40261214551
4457.230059961651,40218.897589217566
4457.2532398702815,40909.53487133589
4457.27641989946,41541.472023014285
4457.299600049186,41426.1694887247
4457.322780319461,41670.45185528656
4457.345960710286,41838.18170642794
4457.36914122166,41424.29765717169
4457.392321853586,40942.22643725432
4457.415502606062,40453.17833019098
4457.43868347909,39483.11028867088
4457.461864472672,38608.67581846316
4457.485045586805,37078.83255577351
4457.508226821494,35558.15026425664
4457.5314081767365,34041.671854492815
4457.554589652534,32229.36557556758
4457.577771248887,30963.71455230195
4457.600952965797,30515.91893816685
4457.624134803263,30283.80418265747
4457.647316761288,30108.31717522241
4457.67049883987,29705.12889760121
4457.693681039011,29616.048229972697
4457.716863358712,29444.87395215641
4457.7400457989725,29657.74665123384
4457.763228359793,30542.094713242706
4457.7864110411765,31672.24488795943
4457.809593843121,32756.567205711068
4457.832776765628,34375.96456843581
4457.855959808699,35737.31344724562
4457.879142972333,36080.023701665974
4457.902326256532,36944.74810478709
4457.925509661296,37104.7167613118
4457.948693186626,36652.28978916605
4457.971876832522,36628.74996781938
4457.995060598985,36314.54422128202
4458.018244486016,35853.74479651095
4458.041428493615,36241.068800044755
4458.0646126217825,36626.55038352451
4458.08779687052,37607.41145181768
4458.110981239827,38306.3536522448
4458.134165729705,39698.17096182947
4458.157350340155,40274.97300784954
4458.180535071177,40902.03808003867
4458.203719922771,41495.67776095174
4458.226904894938,42064.23862512151
4458.2500899876795,42036.67479241994
4458.273275200995,41592.466238006025
4458.296460534886,41529.3350128226
4458.3196459893525,41001.20821425581
4458.342831564396,39680.70096884949
4458.366017260016,38215.21273026426
4458.389203076214,36460.90192607283
4458.4123890129895,34386.13568870582
4458.435575070344,31812.86542386844
4458.458761248279,29207.443960817807
4458.481947546794,26047.840059862137
4458.505133965889,22997.154060028268
4458.528320505566,20665.61078693996
4458.551507165825,18302.462641763905
4458.574693946666,16846.037268218504
4458.597880848091,15857.206612453936
4458.6210678701,15599.424060160965
4458.644255012693,16129.743550781644
4458.6674422758715,17285.64392785001
4458.690629659636,18749.275839829326
4458.713817163986,20744.81425879881
4458.737004788924,22350.883915915154
4458.76019253445,23582.82186025444
4458.783380400563,25175.289502102627
4458.8065683872655,25701.92819529573
4458.829756494558,26635.45626551683
4458.85294472244,27609.93964799969
4458.876133070914,29408.381207976265
4458.899321539979,30986.158188477664
4458.922510129635,33513.0088665927
4458.945698839884,35200.76312533451
4458.968887670727,36782.02947914252
4458.992076622164,38188.43449418323
4459.015265694195,39808.17254606138
4459.0384548868215,40703.4340607378
4459.061644200044,41709.615972865584
4459.084833633862,41539.732227922235
4459.108023188278,42072.319750903174
4459.131212863292,41845.19999939053
4459.154402658904,42038.2879834578
4459.177592575114,41309.146694701514
4459.200782611925,40689.328534807704
4459.223972769336,40472.21462526211
4459.247163047347,40333.947978345706
4459.27035344596,40073.21327114457
4459.293543965176,40799.69606490051
4459.316734604993,41113.99284768985
4459.339925365414,41641.52511692398
4459.363116246439,41875.94136015775
4459.386307248069,42315.40737561144
4459.409498370304,42347.30959364746
4459.432689613145,42570.1263170949
4459.455880976592,42656.92856381818
4459.479072460647,42291.35335396071
4459.502264065309,42177.125890548356
4459.52545579058,41485.19625540744
4459.5486476364595,40401.80659440189
4459.571839602949,38786.12894391277
4459.595031690048,37604.538942740626
4459.618223897759,35300.8030891021
4459.641416226081,33239.90823424795
4459.664608675014,31179.901697736
4459.687801244561,29185.03976287489
4459.710993934721,27734.878288124495
4459.734186745496,27508.84402625399
4459.757379676885,27458.974181790723
4459.780572728889,28505.252474718764
4459.803765901509,29634.965313419747
4459.8269591947455,30972.293625028655
4459.850152608599,32732.496847507547
4459.87334614307,34644.646921875144
4459.89653979816,36203.617206601135
4459.91973357387,37946.96301832225
4459.942927470198,39138.97873048546
4459.966121487147,40504.22713965224
4459.989315624717,41858.53878660246
4460.0125098829085,42357.44119622316
4460.035704261722,43207.94372455808
4460.058898761158,43676.80642343925
4460.082093381218,43955.318624574254
4460.105288121902,43932.03817734075
4460.12848298321,44533.11468188906
4460.151677965145,44179.15250673812
4460.1748730677045,44463.66508502484
4460.198068290891,44461.2469269301
4460.221263634704,44025.752005050614
4460.244459099145,43758.26751522777
4460.267654684215,43712.03824391362
4460.290850389914,43649.80825665811
4460.314046216243,43145.44327735173
4460.337242163202,43154.50545383632
4460.360438230791,43014.092669506266
4460.383634419013,42740.22917750787
4460.406830727867,42077.16464875724
4460.430027157354,41217.82769275916
4460.453223707474,39991.156800547535
4460.476420378228,38712.11453856861
4460.499617169617,37214.747682895926
4460.522814081641,35116.83820423565
4460.5460111143,32724.784063605293
4460.569208267598,30546.47388026095
4460.592405541532,28603.107679140943
4460.615602936104,26555.502597938328
4460.638800451314,25020.24361003839
4460.661998087163,23820.658598626847
4460.685195843652,22909.10331354857
4460.708393720782,22400.327947303926
4460.731591718552,22340.04235301132
4460.754789836965,22969.51262947635
4460.777988076019,23365.917919894055
4460.801186435716,23412.638347255946
4460.824384916057,23218.032995136775
4460.847583517042,22597.224450623693
4460.870782238671,21973.45286937754
4460.893981080947,21072.214255574607
4460.917180043868,20252.28744316134
4460.940379127435,19986.980083151404
4460.963578331651,20123.995620852875
4460.986777656513,19711.15190207263
4461.009977102025,19655.187603911752
4461.033176668186,19518.691629703066
4461.056376354995,18917.10871449033
4461.079576162457,17883.02118358051
4461.102776090568,16856.43921082813
4461.125976139332,16169.06276307331
4461.149176308748,15802.451572419768
4461.172376598816,16363.699414339673
4461.195577009538,17621.947511938484
4461.218777540915,19193.164636191934
4461.241978192946,21115.28513769106
4461.265178965633,23436.35207005617
4461.2883798589755,25680.90172831916
4461.311580872974,27325.580195825467
4461.3347820076315,28374.52532120801
4461.357983262946,28674.126070793085
4461.381184638919,28616.235610414456
4461.404386135551,27821.319456146863
4461.4275877528435,26569.834680276435
4461.4507894907965,25575.04301258473
4461.4739913494095,24636.69285527373
4461.497193328685,24030.758889505123
4461.520395428623,24563.86528840101
4461.543597649224,25710.738065738853
4461.566799990488,27319.90662233664
4461.590002452416,29124.968820807084
4461.61320503501,31113.457681963642
4461.636407738269,32544.378255075073
4461.659610562193,33773.56355420253
4461.682813506784,35074.51959668588
4461.706016572044,35922.00566522007
4461.729219757971,36875.79534538083
4461.752423064566,37558.59184301852
4461.775626491831,37728.47685117073
4461.798830039766,37434.65122108588
4461.82203370837,36981.10652514802
4461.845237497647,35816.977786453404
4461.868441407595,34605.19013520148
4461.891645438215,33163.26586520948
4461.914849589509,32057.821247105254
4461.938053861475,31388.130819869213
4461.961258254117,31418.564785154093
4461.984462767433,32411.303274960774
4462.007667401424,33511.079076096714
4462.030872156092,34815.08705049524
4462.0540770314365,36052.88454314344
4462.077282027459,37728.81635797372
4462.100487144158,39063.804879549425
4462.123692381537,39958.22501473031
4462.146897739594,40496.52231914076
4462.170103218332,40653.56426161754
4462.19330881775,41309.61142514599
4462.21651453785,41647.61741901283
4462.239720378631,41916.81477722121
4462.262926340095,41511.275709586625
4462.286132422241,41626.18325060534
4462.309338625071,41109.30098710481
4462.3325449485865,40665.088850153064
4462.355751392785,40006.09876227599
4462.3789579576705,39091.6272060059
4462.402164643242,37496.61918047994
4462.4253714495,35759.45526314351
4462.448578376446,35050.08042280369
4462.471785424079,33963.05512928015
4462.494992592401,33705.891894360946
4462.518199881412,33432.81860876468
4462.541407291114,34068.50570514103
4462.564614821506,34837.78091298842
4462.587822472589,35595.53158084121
4462.611030244365,36632.588652578794
4462.634238136832,37811.781069560435
4462.657446149992,38603.072536679116
4462.680654283847,39200.78509016079
4462.703862538396,39627.98859031706
4462.727070913639,40019.736000841185
