wave,flux
4450.003811362098,10892.927583800492
4450.026953690486,9702.948808552717
4450.050096139227,8443.315633631955
4450.073238708321,7663.674354999624
4450.096381397769,7568.600581087318
4450.119524207569,7713.941825488463
4450.142667137726,8573.514018944803
4450.165810188237,9897.45126671903
4450.188953359103,11691.457400553996
4450.212096650326,13664.0371067135
4450.2352400619075,15306.341338659615
4450.258383593846,16712.514279777915
4450.281527246142,17446.276089413343
4450.304671018797,18008.479212969934
4450.327814911813,18356.226859523103
4450.350958925188,18780.941484782288
4450.374103058924,19615.14967572117
4450.3972473130225,20553.117983888318
4450.420391687483,21377.21073365431
4450.443536182305,21852.839044067234
4450.466680797492,22130.534641024493
4450.489825533042,22662.80306195785
4450.512970388957,23552.5578242826
4450.536115365237,24755.654567563608
4450.559260461882,26379.152635100614
4450.582405678895,28230.987015781277
4450.605551016274,29814.452404492466
4450.628696474022,31080.850424650696
4450.651842052138,32210.972496150374
4450.674987750623,33194.22938815402
4450.698133569476,33527.48801312649
4450.721279508702,33578.239988541725
4450.744425568297,34408.94764329494
4450.767571748264,34351.4303393546
4450.790718048604,34435.27245971213
4450.813864469315,34367.12461575582
4450.837011010401,34073.275034044455
4450.86015767186,34067.322214819986
4450.883304453694,33805.90012676033
4450.906451355903,32983.713124910755
4450.929598378489,32745.134380022762
4450.95274552145,32216.72982000889
4450.975892784789,31211.021726181858
4450.999040168505,30478.105025766912
4451.022187672601,29275.532783302016
4451.045335297074,27503.007748830296
4451.068483041929,25308.3724407859
4451.091630907163,23020.0715934297
4451.114778892777,20334.664819304155
4451.137926998774,17735.016469818176
4451.161075225153,15962.982273361898
4451.184223571914,15110.019978216771
4451.207372039059,15357.955721610608
4451.230520626587,16544.085756208027
4451.253669334501,18338.975576205965
4451.2768181628,20730.391156064492
4451.299967111485,23277.847292439674
4451.323116180556,25790.33968599369
4451.346265370014,27861.321177541115
4451.369414679861,29373.655315578802
4451.392564110095,30677.338334660944
4451.415713660719,31438.385715394976
4451.438863331732,31808.237223585274
4451.462013123136,31613.712333942734
4451.48516303493,31079.39662124747
4451.508313067117,30213.224665709284
4451.531463219695,28817.310415908585
4451.554613492666,27493.822238681976
4451.577763886031,26435.7486729609
4451.60091439979,25340.65790412245
4451.624065033943,25274.650410762868
4451.647215788492,25939.73820752297
4451.670366663436,26420.5533113753
4451.693517658777,27314.719490361775
4451.716668774516,28230.95631513212
4451.739820010652,29536.846083419594
4451.762971367186,30699.20172602311
4451.78612284412,31646.88286560796
4451.8092744414525,32911.33233391052
4451.832426159187,33483.47833624057
4451.855577997321,33765.84548211788
4451.878729955857,34167.13816018155
4451.901882034796,34359.30706323402
4451.925034234137,34329.4437647931
4451.948186553881,34581.68670739668
4451.97133899403,34626.75738259082
4451.994491554583,34423.61595801554
4452.017644235542,34019.929926244346
4452.040797036907,33808.66733616985
4452.063949958678,33088.52276925257
4452.087103000857,32294.24351852203
4452.1102561634425,31572.53535293571
4452.133409446437,30829.71268481478
4452.156562849841,29714.744975657617
4452.179716373655,28581.941101158904
4452.202870017878,27509.32675347894
4452.226023782513,26513.703070550484
4452.24917766756,25824.46812674904
4452.272331673018,25127.14282599295
4452.29548579889,24492.114972952506
4452.318640045174,23933.21060322912
4452.341794411874,23828.92956397906
4452.364948898987,24198.315781198336
4452.388103506516,25144.102974600086
4452.4112582344615,26277.10492456878
4452.434413082823,27497.740168557735
4452.457568051602,28576.845927251197
4452.480723140799,29135.992691429856
4452.503878350413,29122.938033128412
4452.527033680448,28825.01357538903
4452.550189130902,27673.56001800698
4452.5733447017765,26490.13693517256
4452.596500393071,25843.317111432916
4452.619656204789,25291.95226045583
4452.642812136928,25747.05581846788
4452.66596818949,26400.434212009462
4452.689124362475,27315.344702760187
4452.7122806558855,27855.55502623586
4452.735437069719,28241.38302794382
4452.7585936039795,28553.443226252395
4452.781750258665,28530.149914406426
4452.804907033777,27945.13086961432
4452.828063929317,27055.119062601178
4452.851220945285,25646.51324439829
4452.87437808168,23990.257805152694
4452.897535338506,22613.75101356946
4452.92069271576,22034.038240513168
4452.943850213445,22114.05892291813
4452.967007831562,22863.753974145788
4452.99016557011,24428.9647558409
4453.01332342909,26415.996866231562
4453.036481408502,28228.62935408913
4453.059639508349,29606.187147160617
4453.08279772863,30685.893409273445
4453.105956069345,31540.718669258997
4453.129114530496,31995.661257551747
4453.152273112083,32086.4522859873
4453.175431814107,32133.013419825416
4453.198590636567,31722.609034500198
4453.221749579466,30842.39977625667
4453.244908642802,30042.29263685925
4453.268067826579,29114.004044643043
4453.291227130795,28222.33122688115
4453.314386555451,27729.66315508889
4453.337546100549,27765.79592291624
4453.360705766087,28385.99145737222
4453.3838655520685,29253.71336495701
4453.407025458493,30162.366227283328
4453.430185485361,30894.66182026424
4453.453345632673,31823.506048195435
4453.476505900429,32577.191026213684
4453.4996662886315,33094.761650602646
4453.52282679728,33405.44713296984
4453.545987426375,33499.01655514807
4453.569148175917,33640.94695467562
4453.592309045907,33734.04282886646
4453.615470036346,33874.29167329764
4453.638631147233,33750.51689193036
4453.661792378571,33575.549117176706
4453.684953730359,33433.06264478678
4453.708115202598,33161.96784517232
4453.731276795288,32897.02052543612
4453.754438508431,32327.376275345807
4453.777600342027,31743.410952788927
4453.800762296077,30826.002072906675
4453.82392437058,29581.247207734254
4453.847086565538,28115.359230823346
4453.870248880952,26035.000819536355
4453.8934113168225,23587.19924197409
4453.916573873149,20963.49724739175
4453.939736549933,18224.28555940135
4453.962899347174,16121.088086464475
4453.986062264875,14426.707534528816
4454.009225303034,13986.359897836654
4454.032388461654,14675.909700623479
4454.055551740734,15892.634085097277
4454.078715140275,17709.749496628836
4454.101878660277,19276.786501228853
4454.125042300742,20779.910169668652
4454.14820606167,21230.551673342627
4454.171369943061,20617.08180066901
4454.194533944917,19709.368360632187
4454.2176980672375,18092.301447176018
4454.240862310024,16391.18317882734
4454.264026673275,14525.432022056953
4454.287191156994,12596.067402162204
4454.31035576118,10929.486115072032
4454.333520485834,9540.983521466906
4454.356685330957,8622.008669997082
4454.379850296548,8156.673531153308
4454.40301538261,8255.870461408827
4454.426180589142,8937.584787243384
4454.449345916145,10144.758918686763
4454.4725113636205,11649.893115517936
4454.495676931568,13282.294406294965
4454.5188426199875,14652.512061652142
4454.542008428882,15325.403847074407
4454.565174358249,15474.291579505754
4454.588340408092,15356.994963101215
4454.611506578411,15505.915670651746
4454.634672869205,16142.166940517754
4454.657839280476,17325.160211653434
4454.681005812225,19207.078475791564
4454.704172464451,21076.499460055213
4454.727339237156,22492.38617848525
4454.750506130341,23709.09490100345
4454.773673144005,24513.613552241914
4454.79684027815,24400.010745889635
4454.820007532776,23354.588828573233
4454.843174907884,21764.886106130998
4454.866342403473,20219.019757506656
4454.889510019546,18988.148572840633
4454.912677756102,18300.437332996087
4454.935845613144,18848.83553546451
4454.959013590669,19981.658341926355
4454.982181688681,21680.180810176586
4455.005349907178,24076.307778910927
4455.028518246162,26061.52898117543
4455.051686705633,27891.885195197632
4455.074855285593,29329.893666634507
4455.098023986041,30489.3075873227
4455.121192806979,30846.737866856347
4455.144361748406,30884.986391473325
4455.167530810323,30679.48719909948
4455.190699992732,30233.225659523934
4455.213869295633,29012.628480240237
4455.237038719026,28599.69669977807
4455.260208262912,27411.987414529685
4455.283377927292,26230.00399190415
4455.306547712166,25316.045543997316
4455.329717617535,23793.3428113444
4455.352887643399,22004.307105558164
4455.37605778976,19862.173061470086
4455.399228056617,17534.081957074137
4455.422398443972,15202.340357238745
4455.445568951825,13354.635952999623
4455.468739580177,12248.977108716103
4455.491910329028,11723.47267383665
4455.515081198378,12183.079897500118
4455.538252188229,13609.239049164484
4455.561423298582,15578.871597236357
4455.584594529436,18014.42114641417
4455.607765880793,20788.831436186585
4455.630937352652,23193.229291174528
4455.654108945016,25269.755983489424
4455.677280657883,27121.321025565543
4455.700452491255,28192.119494950293
4455.723624445134,29243.050842650136
4455.746796519518,30097.2007047151
4455.7699687144095,30358.81688345816
4455.793141029808,30318.39134738453
4455.816313465714,29552.86020406663
4455.83948602213,28476.618465981745
4455.862658699055,27169.47752600002
4455.885831496489,24865.512546222355
4455.909004414434,22734.399611299956
4455.932177452891,21281.594789875657
4455.955350611858,20220.412383950534
4455.978523891339,19639.281643598322
4456.001697291333,19953.983818207987
4456.024870811841,20740.861988236575
4456.048044452862,21851.383820467163
4456.071218214399,23071.678766047233
4456.094392096451,23752.633632147023
4456.117566099019,24126.14673595112
4456.140740222105,23725.379755772992
4456.163914465707,22251.488557701847
4456.187088829828,20704.890335881923
4456.210263314468,19320.073175662335
4456.233437919626,18263.859120424877
4456.256612645306,18189.73573150529
4456.279787491505,19169.29871831729
4456.302962458226,20808.010417645182
4456.326137545469,22799.820364158346
4456.349312753233,24918.23437478412
4456.372488081522,26895.69540169069
4456.395663530333,28533.312473325244
4456.41883909967,29545.166353526758
4456.442014789531,30344.91741914653
4456.465190599917,30942.834505659495
4456.488366530831,30908.13664476896
4456.5115425822705,30645.539815987064
4456.5347187542375,30226.41059953485
4456.557895046733,29611.59307011612
4456.581071459757,28864.54163789204
4456.604247993311,28194.39331518289
4456.627424647395,27611.646446324357
4456.650601422009,27294.55705941732
4456.673778317154,27171.853676016013
4456.696955332832,27946.394412278783
4456.720132469041,28818.845443834864
4456.7433097257845,29794.547973379264
4456.766487103061,30573.263116932227
4456.789664600872,30882.097973620534
4456.8128422192185,30876.81109044775
4456.8360199581,30704.397581017423
4456.859197817518,30298.648728818513
4456.882375797473,29482.926008396294
4456.905553897966,28308.482836540035
4456.928732118997,26366.61929718224
4456.951910460566,24082.178782440817
4456.975088922674,21511.185957199417
4456.998267505323,19136.28831602433
4457.021446208513,17325.99204175818
4457.044625032244,15822.308849306379
4457.067803976516,15042.222473143798
4457.090983041332,15077.123863710165
4457.1141622266905,15474.312569467542
4457.1373415325925,16460.82637217563
4457.160520959039,18228.763773940736
4457.183700506031,20316.56163469189
4457.206880173568,22724.838350307225
4457.230059961651,24888.15346855604
4457.2532398702815,27036.422366311275
4457.27641989946,28615.67291790656
4457.299600049186,29973.82437259446
4457.322780319461,30574.732753512264
4457.345960710286,30707.77741414467
4457.36914122166,30803.551280784097
4457.392321853586,30746.43518711562
4457.415502606062,30835.80683979802
4457.43868347909,30946.382693485313
4457.461864472672,31019.72541966187
4457.485045586805,30797.15977212672
4457.508226821494,30261.60274934304
4457.5314081767365,29675.756980523656
4457.554589652534,28492.89694631231
4457.577771248887,27230.697319836723
4457.600952965797,25638.30766809031
4457.624134803263,23944.3647703424
4457.647316761288,21713.434077292073
4457.67049883987,20181.17152502145
4457.693681039011,19300.03270342739
4457.716863358712,18901.355762227508
4457.7400457989725,18993.5316491214
4457.763228359793,19300.764892063497
4457.7864110411765,19440.75681070493
4457.809593843121,19380.651229578118
4457.832776765628,18794.116334405997
4457.855959808699,19032.9575774771
4457.879142972333,20092.13148574079
4457.902326256532,21417.8153978575
4457.925509661296,22957.607785605982
4457.948693186626,24683.019731203916
4457.971876832522,26280.623450708317
4457.995060598985,26875.023097915302
4458.018244486016,27336.860410276906
4458.041428493615,26952.018872725734
4458.0646126217825,25696.250390151115
4458.08779687052,24596.36703646823
4458.110981239827,23695.61945654614
4458.134165729705,23392.346001125756
4458.157350340155,23235.57292659501
4458.180535071177,24314.373520246976
4458.203719922771,25848.81326314476
4458.226904894938,27182.089664241605
4458.2500899876795,28801.089770116057
4458.273275200995,30181.398478417268
4458.296460534886,30988.59092222052
4458.3196459893525,31443.533242044206
4458.342831564396,31998.806987967284
4458.366017260016,32000.334760506903
4458.389203076214,31635.49275119349
4458.4123890129895,31570.310570922025
4458.435575070344,30258.50088122688
4458.458761248279,29227.571423625355
4458.481947546794,28224.51022156656
4458.505133965889,26524.3192066589
4458.528320505566,24575.696527537115
4458.551507165825,22267.833933256235
4458.574693946666,19738.18424360341
4458.597880848091,16578.5626240519
4458.6210678701,14286.258293410689
4458.644255012693,11980.72903492056
4458.6674422758715,9944.000231805534
4458.690629659636,9016.157157669712
4458.713817163986,8348.408369527644
4458.737004788924,8546.738143036802
4458.76019253445,9602.878310399288
4458.783380400563,10826.72708687644
4458.8065683872655,12658.647589361508
4458.829756494558,14342.679300755692
4458.85294472244,15816.387293934986
4458.876133070914,17080.685231890588
4458.899321539979,17738.089001765726
4458.922510129635,17643.202446187082
4458.945698839884,18165.377627504942
4458.968887670727,18662.75935571938
4458.992076622164,20208.057825351887
4459.015265694195,22187.453436546824
4459.0384548868215,24120.744633524853
4459.061644200044,26440.29421771419
4459.084833633862,28370.98490634806
4459.108023188278,29635.427205657856
4459.131212863292,30900.650916395825
4459.154402658904,31828.812351246557
4459.177592575114,32458.196355187818
4459.200782611925,31978.656928165983
4459.223972769336,32168.925582336105
4459.247163047347,31248.205958793736
4459.27035344596,30248.3343982067
4459.293543965176,29739.232066087992
4459.316734604993,28099.65726273141
4459.339925365414,27450.66802824966
4459.363116246439,27014.013335885622
4459.386307248069,27056.922070615292
4459.409498370304,27761.31302575927
4459.432689613145,28784.11197706606
4459.455880976592,29868.197834801875
4459.479072460647,30779.707724508808
4459.502264065309,31811.00710327677
4459.52545579058,31897.12364221051
4459.5486476364595,32340.81668639496
4459.571839602949,32370.211565364396
4459.595031690048,32238.1492808666
4459.618223897759,31612.3454262942
4459.641416226081,31068.566043423423
4459.664608675014,29837.173890748436
4459.687801244561,28590.972998476565
4459.710993934721,26704.11131881351
4459.734186745496,23764.607584333233
4459.757379676885,21378.552482711886
4459.780572728889,18944.764400325632
4459.803765901509,17099.8980123993
4459.8269591947455,15543.798524848551
4459.850152608599,15155.527854792252
4459.87334614307,15484.665230022181
4459.89653979816,16463.984895527003
4459.91973357387,18089.89241100273
4459.942927470198,19823.50339948782
4459.966121487147,21837.381214378736
4459.989315624717,24152.138790119763
4460.0125098829085,26108.842444583825
4460.035704261722,28084.805573877806
4460.058898761158,29565.306291844092
4460.082093381218,30964.548727670626
4460.105288121902,32097.350002943153
4460.12848298321,32681.408643255454
4460.151677965145,33157.30452983682
4460.1748730677045,33708.50080021927
4460.198068290891,33670.423085633076
4460.221263634704,33945.08748222886
4460.244459099145,33843.829500581305
4460.267654684215,34016.69350010799
4460.290850389914,33943.993914321174
4460.314046216243,33331.1312630152
4460.337242163202,32504.293792878976
4460.360438230791,32505.52272355805
4460.383634419013,32246.261694491364
4460.406830727867,31915.62066087077
4460.430027157354,31627.629340905165
4460.453223707474,31900.459693133125
4460.476420378228,32160.379612771
4460.499617169617,31930.839331433453
4460.522814081641,31455.226469185534
4460.5460111143,30669.507393108735
4460.569208267598,29616.253463505524
4460.592405541532,28211.418375834644
4460.615602936104,26061.034580243806
4460.638800451314,23731.936518189545
4460.661998087163,21106.24804735002
4460.685195843652,18648.259915989485
4460.708393720782,16806.82558497088
4460.731591718552,15099.087801692205
4460.754789836965,13779.164204739202
4460.777988076019,13017.13855863414
4460.801186435716,12836.979714173336
4460.824384916057,13273.175300928602
4460.847583517042,14020.595806259666
4460.870782238671,15133.752394223302
4460.893981080947,16004.826373787582
4460.917180043868,16440.769626880534
4460.940379127435,16470.447592686167
4460.963578331651,15767.246508810404
4460.986777656513,14873.410643478548
4461.009977102025,13970.370529766054
4461.033176668186,13274.112217343662
4461.056376354995,13178.661227759467
4461.079576162457,13430.133148517125
4461.102776090568,13819.311127015924
4461.125976139332,13857.374580999394
4461.149176308748,13461.100393515499
4461.172376598816,12829.665149018916
4461.195577009538,11701.155672150866
4461.218777540915,10586.513041551794
4461.241978192946,9758.977324801344
4461.265178965633,9615.830615584597
4461.2883798589755,9979.751494989401
4461.311580872974,10837.880586607933
4461.3347820076315,12610.9249978534
4461.357983262946,14866.110395788804
4461.381184638919,17064.853789323228
4461.404386135551,19177.770113266062
4461.4275877528435,20910.49858567506
4461.4507894907965,21814.29866087069
4461.4739913494095,21848.584693744157
4461.497193328685,21248.866802288496
4461.520395428623,19867.626079530444
4461.543597649224,17971.082161683742
4461.566799990488,16189.879837106246
4461.590002452416,14980.556039967414
4461.61320503501,14499.043282198638
4461.636407738269,14970.889971942339
4461.659610562193,16301.898765970423
4461.682813506784,18337.268794657768
4461.706016572044,20337.130604807324
4461.729219757971,22008.16519560667
4461.752423064566,23377.37466423903
4461.775626491831,24770.494128645638
4461.798830039766,25767.98194677838
4461.82203370837,26277.803405711304
4461.845237497647,26872.811500894502
4461.868441407595,27270.437830801577
4461.891645438215,27352.105356964446
4461.914849589509,26804.78256526518
4461.938053861475,25747.82776524258
4461.961258254117,24167.72426639222
4461.984462767433,22455.922755714608
4462.007667401424,20686.3698817091
4462.030872156092,19347.58678427356
4462.0540770314365,18859.603263674406
4462.077282027459,19283.019114079954
4462.100487144158,20650.93881738122
4462.123692381537,22852.041433049657
4462.146897739594,24791.4382521086
4462.170103218332,26808.901409727052
4462.19330881775,28758.50294291227
4462.21651453785,29776.38344734016
4462.239720378631,30649.798428829854
4462.262926340095,30773.611363801774
4462.286132422241,30768.814825438196
4462.309338625071,30575.69313675848
4462.3325449485865,30497.247790745245
4462.355751392785,30566.305929705668
4462.3789579576705,30366.5207360603
4462.402164643242,30185.03356347801
4462.4253714495,30159.710322358038
4462.448578376446,29642.763186225886
4462.471785424079,28749.38423505855
4462.494992592401,27116.96860007634
4462.518199881412,25604.186342002384
4462.541407291114,23290.967261367598
4462.564614821506,21325.969245061515
4462.587822472589,19834.851024751268
4462.611030244365,19847.644697853975
4462.634238136832,20399.4125204258
4462.657446149992,21361.546364498812
