wave,flux
4450.003811362098,10323.337308981016
4450.026953690486,9179.844745416121
4450.050096139227,8164.696785192323
4450.073238708321,7160.683221101771
4450.096381397769,6459.266211136504
4450.119524207569,6064.60355645346
4450.142667137726,6076.7820295862275
4450.165810188237,6768.375130781821
4450.188953359103,7819.736926178003
4450.212096650326,9545.797396854274
4450.2352400619075,10996.143562465382
4450.258383593846,12492.227150425566
4450.281527246142,13903.015745580185
4450.304671018797,14920.546796858474
4450.327814911813,14993.665866643658
4450.350958925188,15198.481351481318
4450.374103058924,15325.216986940326
4450.3972473130225,15869.432428389671
4450.420391687483,16786.91051236774
4450.443536182305,17397.232709215874
4450.466680797492,18010.941431108153
4450.489825533042,18462.017904667435
4450.512970388957,18561.26093810895
4450.536115365237,19130.298690946198
4450.559260461882,19998.373043405907
4450.582405678895,21310.148228373855
4450.605551016274,23056.574940216597
4450.628696474022,24646.61150664512
4450.651842052138,26171.026613999875
4450.674987750623,27186.91265668705
4450.698133569476,27766.909093454426
4450.721279508702,28572.780831703163
4450.744425568297,29046.11807362919
4450.767571748264,29211.536837798085
4450.790718048604,29332.316282563883
4450.813864469315,29098.379346837803
4450.837011010401,28775.742272752435
4450.86015767186,29051.709013705335
4450.883304453694,28942.585042359096
4450.906451355903,28521.194666962063
4450.929598378489,28143.534922219813
4450.95274552145,27899.424476231223
4450.975892784789,27565.495871690495
4450.999040168505,27071.103979549567
4451.022187672601,26210.584367222014
4451.045335297074,25058.98137611679
4451.068483041929,23648.253036291073
4451.091630907163,22143.304877993407
4451.114778892777,19953.248237481297
4451.137926998774,17587.41717742807
4451.161075225153,15034.478141471149
4451.184223571914,13118.805065343653
4451.207372039059,12247.41609616952
4451.230520626587,12081.105417720415
4451.253669334501,12776.728659778602
4451.2768181628,14466.449295267601
4451.299967111485,16637.09678077943
4451.323116180556,18959.201956135097
4451.346265370014,21132.971432927192
4451.369414679861,23089.575494194814
4451.392564110095,24685.983289343327
4451.415713660719,25988.97038107225
4451.438863331732,26819.63409854574
4451.462013123136,27133.674415349033
4451.48516303493,27108.195819886518
4451.508313067117,26676.641077961893
4451.531463219695,25734.513148810187
4451.554613492666,24325.230183785417
4451.577763886031,22996.695324212684
4451.60091439979,21870.788871907826
4451.624065033943,20788.55133976827
4451.647215788492,20371.68048846568
4451.670366663436,20879.955269724378
4451.693517658777,21382.588433134737
4451.716668774516,22246.108528557586
4451.739820010652,23523.95656659567
4451.762971367186,24589.928290349046
4451.78612284412,25692.152131625255
4451.8092744414525,26697.82237784846
4451.832426159187,27616.663234293443
4451.855577997321,28543.07500473962
4451.878729955857,29043.863954594854
4451.901882034796,29032.26914275894
4451.925034234137,29509.326482944925
4451.948186553881,29209.019583802725
4451.97133899403,29268.355125121056
4451.994491554583,29256.07956619692
4452.017644235542,29195.24841136877
4452.040797036907,29031.430349398677
4452.063949958678,28847.14273256961
4452.087103000857,28064.381720738296
4452.1102561634425,27752.700973575105
4452.133409446437,26982.720978466423
4452.156562849841,26242.35412098618
4452.179716373655,25262.03930739617
4452.202870017878,24146.953332934896
4452.226023782513,23045.5770144984
4452.24917766756,22397.292587518295
4452.272331673018,21585.604102828034
4452.29548579889,20741.914709721415
4452.318640045174,19970.41521327758
4452.341794411874,19472.618425562836
4452.364948898987,19278.412183270124
4452.388103506516,19617.801965958457
4452.4112582344615,20516.66442768553
4452.434413082823,21590.31550060902
4452.457568051602,23059.266202591276
4452.480723140799,24057.699506667923
4452.503878350413,24572.61687280888
4452.527033680448,24952.933328129104
4452.550189130902,24458.936462723537
4452.5733447017765,23697.02700887554
4452.596500393071,22636.163249291538
4452.619656204789,21423.775265725213
4452.642812136928,20729.735525495907
4452.66596818949,20811.908111593464
4452.689124362475,21578.2965387393
4452.7122806558855,22582.71380203736
4452.735437069719,23447.629213588927
4452.7585936039795,23757.80428114884
4452.781750258665,24269.145762678985
4452.804907033777,24334.615623650465
4452.828063929317,23728.700677107976
4452.851220945285,23135.37972157113
4452.87437808168,21936.83937910251
4452.897535338506,20332.425610562474
4452.92069271576,18814.001530370773
4452.943850213445,17740.468723877046
4452.967007831562,17422.581273591117
4452.99016557011,18049.43452402756
4453.01332342909,19562.73087075667
4453.036481408502,21421.950953584663
4453.059639508349,23474.571964554114
4453.08279772863,24763.638258468425
4453.105956069345,25807.116003531428
4453.129114530496,26806.44731708694
4453.152273112083,27181.186050973698
4453.175431814107,27231.254295394603
4453.198590636567,27386.43128499944
4453.221749579466,27177.427556246213
4453.244908642802,26483.28979155872
4453.268067826579,25563.84650835021
4453.291227130795,24421.426442726854
4453.314386555451,23413.38634012522
4453.337546100549,22739.985353267948
4453.360705766087,22773.75069272219
4453.3838655520685,23363.88250067571
4453.407025458493,24101.497881519324
4453.430185485361,25193.944854751237
4453.453345632673,26229.602632128586
4453.476505900429,26812.224900216635
4453.4996662886315,27329.208306482557
4453.52282679728,27758.70708612209
4453.545987426375,28016.216039036746
4453.569148175917,28323.579979416925
4453.592309045907,28578.216772328327
4453.615470036346,28657.57202134141
4453.638631147233,28675.084760806494
4453.661792378571,28840.10821847723
4453.684953730359,28902.417822948595
4453.708115202598,28493.254111496448
4453.731276795288,28116.879783861616
4453.754438508431,27959.94534810688
4453.777600342027,27686.068601141385
4453.800762296077,27161.817859750056
4453.82392437058,26572.447770676998
4453.847086565538,25565.32255221281
4453.870248880952,24538.77359539659
4453.8934113168225,22603.619628370132
4453.916573873149,20445.6839513512
4453.939736549933,18140.40086439911
4453.962899347174,15643.402976378544
4453.986062264875,13454.075539989857
4454.009225303034,11739.993552147382
4454.032388461654,11252.176565502137
4454.055551740734,11221.140615915778
4454.078715140275,12475.002146416069
4454.101878660277,14070.165314896634
4454.125042300742,15888.331763343627
4454.14820606167,17208.44936431506
4454.171369943061,18078.35525144867
4454.194533944917,17984.398022504076
4454.2176980672375,17167.79646733377
4454.240862310024,15716.285275365528
4454.264026673275,14160.85370440571
4454.287191156994,12312.088626626706
4454.31035576118,10692.206099448347
4454.333520485834,9276.4790691846
4454.356685330957,7856.061680552796
4454.379850296548,6995.171809563717
4454.40301538261,6483.529354768124
4454.426180589142,6428.594302214594
4454.449345916145,6953.5689176228
4454.4725113636205,7907.289227688728
4454.495676931568,9174.355780436366
4454.5188426199875,10766.661074076354
4454.542008428882,12113.72068973972
4454.565174358249,13005.270175974294
4454.588340408092,13190.484201938805
4454.611506578411,12998.025473286787
4454.634672869205,12873.250443293564
4454.657839280476,13035.065040989013
4454.681005812225,13726.383759483806
4454.704172464451,15115.52827551837
4454.727339237156,16945.355074469924
4454.750506130341,18621.075268422446
4454.773673144005,19960.465547195912
4454.79684027815,20825.9651930354
4454.820007532776,20999.934476440507
4454.843174907884,20271.112754992588
4454.866342403473,18886.67147448771
4454.889510019546,17367.81918948738
4454.912677756102,15939.375748299257
4454.935845613144,15061.896794592214
4454.959013590669,14869.4502326189
4454.982181688681,15672.478237677582
4455.005349907178,17464.455637638246
4455.028518246162,19527.670072443692
4455.051686705633,21490.00844517501
4455.074855285593,23096.35796246629
4455.098023986041,24399.041611945646
4455.121192806979,25551.526847601282
4455.144361748406,26255.43394131934
4455.167530810323,26494.725704820907
4455.190699992732,26296.143294180376
4455.213869295633,25887.286124206003
4455.237038719026,25044.793189179352
4455.260208262912,24157.878907465216
4455.283377927292,23048.11976952997
4455.306547712166,22197.272653407264
4455.329717617535,21311.16639251381
4455.352887643399,20239.60639717781
4455.37605778976,18572.438666622504
4455.399228056617,16969.642471284496
4455.422398443972,15176.269704045983
4455.445568951825,12909.902259797027
4455.468739580177,11187.80701082593
4455.491910329028,9943.882427206729
4455.515081198378,9245.442585878942
4455.538252188229,9449.541517320275
4455.561423298582,10473.64768774874
4455.584594529436,12062.548889187981
4455.607765880793,14368.868178813826
4455.630937352652,16962.661188229962
4455.654108945016,19111.454772656547
4455.677280657883,20944.610464840935
4455.700452491255,22743.22498656484
4455.723624445134,23858.97799819986
4455.746796519518,25127.88309914342
4455.7699687144095,25441.567677694402
4455.793141029808,25463.234698200264
4455.816313465714,25787.23903547348
4455.83948602213,25397.795658003837
4455.862658699055,24602.086200084206
4455.885831496489,23447.032850797375
4455.909004414434,21536.98661661105
4455.932177452891,19606.2618906135
4455.955350611858,17608.746622436156
4455.978523891339,16254.432801993637
4456.001697291333,15698.812003699803
4456.024870811841,15706.855403355363
4456.048044452862,16295.793917925921
4456.071218214399,17581.546613902843
4456.094392096451,18866.75493737816
4456.117566099019,19961.099266691457
4456.140740222105,20536.754034453155
4456.163914465707,20319.439189274173
4456.187088829828,19055.178206094384
4456.210263314468,17605.3464261698
4456.233437919626,16110.200836810487
4456.256612645306,14903.30348135513
4456.279787491505,14588.597780798747
4456.302962458226,15155.322022523194
4456.326137545469,16651.21859988555
4456.349312753233,18582.31751083961
4456.372488081522,20686.697314878427
4456.395663530333,22576.483236552394
4456.41883909967,24073.85792719492
4456.442014789531,25555.467777411875
4456.465190599917,26226.956409931467
4456.488366530831,26272.680425365623
4456.5115425822705,26373.228190999966
4456.5347187542375,26239.57740655322
4456.557895046733,26008.313593789175
4456.581071459757,25489.443173522024
4456.604247993311,24622.694397038955
4456.627424647395,23769.349321990103
4456.650601422009,23012.76380445621
4456.673778317154,22356.624295203685
4456.696955332832,22236.10497538073
4456.720132469041,23093.557062860924
4456.7433097257845,24039.37619659036
4456.766487103061,24824.579358726223
4456.789664600872,25561.78325333053
4456.8128422192185,26081.26415908231
4456.8360199581,26368.65990700129
4456.859197817518,26328.93261615031
4456.882375797473,26078.267058388607
4456.905553897966,25420.253056209967
4456.928732118997,24352.93124101842
4456.951910460566,22901.35531387907
4456.975088922674,20913.553666023792
4456.998267505323,18622.787378854613
4457.021446208513,16441.60937373295
4457.044625032244,14318.705001829618
4457.067803976516,12816.86118954035
4457.090983041332,12063.655560720039
4457.1141622266905,11904.599601142225
4457.1373415325925,12190.787420465744
4457.160520959039,12960.222501951706
4457.183700506031,14323.217025513748
4457.206880173568,16113.947292590545
4457.230059961651,18325.68136566953
4457.2532398702815,20622.327535132907
4457.27641989946,22702.268240872163
4457.299600049186,24274.782039007907
4457.322780319461,25243.96093624829
4457.345960710286,25886.655613569048
4457.36914122166,25943.971253021686
4457.392321853586,25982.75500487677
4457.415502606062,25942.226151489554
4457.43868347909,25921.564663008427
4457.461864472672,26113.533354160056
4457.485045586805,26143.72384676234
4457.508226821494,26250.650803753324
4457.5314081767365,25919.507464294406
4457.554589652534,25389.99015126093
4457.577771248887,24466.53696687925
4457.600952965797,23348.94817105567
4457.624134803263,22037.230924158695
4457.647316761288,20357.93725432577
4457.67049883987,18587.297406928777
4457.693681039011,16809.824223056505
4457.716863358712,15527.545742429193
4457.7400457989725,15317.96452794678
4457.763228359793,15568.181583836897
4457.7864110411765,16019.119778076996
4457.809593843121,16235.0568919538
4457.832776765628,16063.954933814977
4457.855959808699,15683.628757669452
4457.879142972333,15442.616545326935
4457.902326256532,15932.24637811307
4457.925509661296,17059.791999304776
4457.948693186626,18552.000666344517
4457.971876832522,20379.75748587528
4457.995060598985,21969.18192218532
4458.018244486016,22957.425319458398
4458.041428493615,23222.391932716444
4458.0646126217825,23137.368294601285
4458.08779687052,22256.869356437248
4458.110981239827,20763.128397870958
4458.134165729705,19513.41122716938
4458.157350340155,18650.2750840828
4458.180535071177,18836.924270180312
4458.203719922771,19338.57888701194
4458.226904894938,20961.321870447926
4458.2500899876795,22599.097664439887
4458.273275200995,24143.826352364184
4458.296460534886,25321.962030193983
4458.3196459893525,26274.510914018334
4458.342831564396,27005.050611438495
4458.366017260016,27233.749303528526
4458.389203076214,27189.93871775454
4458.4123890129895,27038.864444245166
4458.435575070344,26678.17452644082
4458.458761248279,26092.04745684856
4458.481947546794,25254.69962229595
4458.505133965889,24388.43805635214
4458.528320505566,23055.498193760366
4458.551507165825,21481.60476956947
4458.574693946666,19389.5066535278
4458.597880848091,17047.3144439559
4458.6210678701,14450.043567480396
4458.644255012693,12016.876883037103
4458.6674422758715,9858.85898249965
4458.690629659636,8264.712181683288
4458.713817163986,7146.212730265223
4458.737004788924,6644.722280006694
4458.76019253445,6718.17818313492
4458.783380400563,7315.112507569766
4458.8065683872655,8321.13356846915
4458.829756494558,9674.95331493412
4458.85294472244,11496.3062727937
4458.876133070914,13228.943434060806
4458.899321539979,14114.955779263955
4458.922510129635,14623.598092565113
4458.945698839884,14766.635265776293
4458.968887670727,14979.156358952472
4458.992076622164,15020.812710649381
4459.015265694195,16083.477808662054
4459.0384548868215,17750.25594973952
4459.061644200044,19686.683763521043
4459.084833633862,21771.54870604263
4459.108023188278,23905.035955292155
4459.131212863292,25109.86717907576
4459.154402658904,26396.973661690234
4459.177592575114,27068.780534418936
4459.200782611925,27456.04102773732
4459.223972769336,27692.61505360862
4459.247163047347,27550.554966354255
4459.27035344596,26847.912879647138
4459.293543965176,26072.03237367345
4459.316734604993,25063.99593662139
4459.339925365414,23752.556285714247
4459.363116246439,22574.391093802653
4459.386307248069,21861.19216899713
4459.409498370304,21852.676501928603
4459.432689613145,22322.624645105574
4459.455880976592,23330.757029651337
4459.479072460647,24844.35156340705
4459.502264065309,25976.394568716958
4459.52545579058,26354.31871530627
4459.5486476364595,26879.271741461318
4459.571839602949,27120.80387632325
4459.595031690048,27715.66724304478
4459.618223897759,27687.8477550521
4459.641416226081,27042.186104058608
4459.664608675014,26543.420323796283
4459.687801244561,25751.39492906763
4459.710993934721,24477.19306352685
4459.734186745496,22880.276127132904
4459.757379676885,21019.10239326688
4459.780572728889,18685.42493357948
4459.803765901509,16140.225137362148
4459.8269591947455,13918.276953321414
4459.850152608599,12358.185693508753
4459.87334614307,11950.598833197859
4459.89653979816,11987.174040107011
4459.91973357387,12708.785174914465
4459.942927470198,14074.557447527915
4459.966121487147,15556.341685719713
4459.989315624717,17497.673595764947
4460.0125098829085,19460.75152665737
4460.035704261722,21256.31791578299
4460.058898761158,22962.284537204723
4460.082093381218,24820.011355928855
4460.105288121902,26198.51169859171
4460.12848298321,27238.190366684845
4460.151677965145,27841.41759295954
4460.1748730677045,27994.069562119737
4460.198068290891,28215.25419950081
4460.221263634704,28513.13425780956
4460.244459099145,28880.25924509515
4460.267654684215,28674.095332644923
4460.290850389914,28664.098231554395
4460.314046216243,28561.464611727526
4460.337242163202,28305.705013174338
4460.360438230791,27917.97638308563
4460.383634419013,27276.701732499252
4460.406830727867,26998.712380465622
4460.430027157354,26697.21291518199
4460.453223707474,26899.971390976836
4460.476420378228,27202.77451760509
4460.499617169617,27054.717004502567
4460.522814081641,26925.979386480984
4460.5460111143,26942.61407223334
4460.569208267598,26562.00085765719
4460.592405541532,25533.973436257318
4460.615602936104,24127.152312378155
4460.638800451314,22559.987253403317
4460.661998087163,20292.83884166128
4460.685195843652,17907.48905062834
4460.708393720782,15699.14417551506
4460.731591718552,13895.5755065311
4460.754789836965,12200.67523794223
4460.777988076019,11377.618251752841
4460.801186435716,10709.88453860557
4460.824384916057,10283.686774862374
4460.847583517042,10422.832582668956
4460.870782238671,11124.105432142864
4460.893981080947,12141.122906486442
4460.917180043868,13127.918229425293
4460.940379127435,13889.63385392575
4460.963578331651,14020.75204573957
4460.986777656513,13476.664125438712
4461.009977102025,12707.138790478128
4461.033176668186,11687.34316413493
4461.056376354995,10973.226775532654
4461.079576162457,10769.567842379021
4461.102776090568,10967.68017325769
4461.125976139332,11243.017382357639
4461.149176308748,11498.836596587187
4461.172376598816,11647.362468936222
4461.195577009538,11172.30271603384
4461.218777540915,10199.377726087176
4461.241978192946,9028.310253617736
4461.265178965633,8132.413304117915
4461.2883798589755,7554.078624141077
4461.311580872974,7504.035977019021
4461.3347820076315,8283.42422987387
4461.357983262946,9781.156293343784
4461.381184638919,11676.627862883468
4461.404386135551,13712.056885554202
4461.4275877528435,15829.271037968374
4461.4507894907965,17400.34643793282
4461.4739913494095,18714.724065417446
4461.497193328685,19211.906801976056
4461.520395428623,18547.928588307957
4461.543597649224,17248.945974924936
4461.566799990488,15687.292561798256
4461.590002452416,13668.548221747367
4461.61320503501,12241.628768518354
4461.636407738269,11568.268981018009
4461.659610562193,11696.728824555703
4461.682813506784,12627.641409810734
4461.706016572044,14378.330766263756
4461.729219757971,16314.400486579736
4461.752423064566,18048.168993802603
4461.775626491831,19487.336493857154
4461.798830039766,20603.844340378633
4461.82203370837,21147.784435113448
4461.845237497647,21867.618140241062
4461.868441407595,22411.305585961152
4461.891645438215,22580.649411872422
4461.914849589509,22972.976826119677
4461.938053861475,22576.12055982452
4461.961258254117,21808.449790393886
4461.984462767433,20712.303148640945
4462.007667401424,18943.806156109556
4462.030872156092,17293.065405744746
4462.0540770314365,15849.857612429261
4462.077282027459,15063.410720140919
4462.100487144158,15062.83797726294
4462.123692381537,16286.060387816415
4462.146897739594,17987.47829721117
4462.170103218332,20275.614426088126
4462.19330881775,22529.81152694051
4462.21651453785,24062.76280440309
4462.239720378631,25257.8048211332
4462.262926340095,26026.504068933187
4462.286132422241,26241.317600266066
4462.309338625071,26104.953856763925
4462.3325449485865,25689.619981588618
4462.355751392785,25567.814948414893
4462.3789579576705,25665.3955279161
4462.402164643242,25775.876634967888
4462.4253714495,25752.385055240335
4462.448578376446,25380.560096486115
4462.471785424079,25183.439951561093
4462.494992592401,24442.924414936046
4462.518199881412,23317.631396958743
4462.541407291114,21552.619648044652
4462.564614821506,19684.71905963712
4462.587822472589,17645.944808681394
4462.611030244365,16147.037627851969
4462.634238136832,15543.155656088104
