wave,flux
5000.025812696027,19560.17166365289
5000.051815424163,21263.704647579718
5000.0778182875265,22774.05570894687
5000.103821286119,24231.35294677395
5000.12982441994,25350.175620025602
5000.155827688991,26106.867160674265
5000.181831093272,26253.512477397013
5000.207834632784,25868.710489593715
5000.2338383075285,24868.25095460119
5000.259842117506,23544.96624249262
5000.285846062716,22006.770184286936
5000.311850143161,20716.523734124134
5000.33785435884,20047.498686786497
5000.363858709754,20047.906849225055
5000.389863195905,20483.31929103136
5000.415867817292,21226.12593173619
5000.441872573917,22152.093365102293
5000.4678774657805,22782.697671957212
5000.493882492882,23304.692825955743
5000.519887655224,23445.376225633558
5000.545892952806,23564.444359095512
5000.571898385629,23670.333180871105
5000.597903953694,24039.155978304356
5000.623909657001,24790.93396583478
5000.649915495552,25584.837518828885
5000.675921469346,26487.655272476022
5000.701927578384,27113.679537539778
5000.727933822669,27589.1996075965
5000.7539402021985,27863.869503456288
5000.779946716975,27770.241662757842
5000.805953366999,27626.805480761454
5000.831960152272,27649.865511243635
5000.857967072792,27670.736589489632
5000.883974128563,27390.80540133719
5000.9099813195835,27150.851206600433
5000.935988645855,26889.747849927524
5000.961996107378,26241.096416235443
5000.988003704153,25171.58788901226
5001.014011436181,23780.39865259686
5001.040019303464,22376.024060537606
5001.066027306,21398.727018404956
5001.092035443791,20989.996218082226
5001.118043716839,21269.46343128324
5001.1440521251425,22046.98647139455
5001.170060668704,23043.56414751828
5001.196069347523,23837.542104886907
5001.222078161601,24175.755521082658
5001.248087110937,24314.96452256143
5001.274096195534,24015.24970602893
5001.300105415392,22874.67074909285
5001.326114770512,21420.476773986284
5001.352124260892,19427.019487340876
5001.3781338865365,16992.147354076555
5001.4041436474445,14883.343489452434
5001.430153543616,13136.625777837431
5001.456163575053,12005.704476636523
5001.482173741756,11737.548391557873
5001.508184043724,12616.296519344622
5001.534194480961,14087.54125841094
5001.560205053464,16129.68815019717
5001.586215761236,18547.649483684687
5001.612226604278,20768.52688438146
5001.638237582589,22790.525774261358
5001.664248696171,24612.975370316228
5001.690259945024,25970.69769248676
5001.716271329149,26757.38245492168
5001.742282848547,27752.88394854002
5001.768294503218,28290.158646034466
5001.794306293164,28540.228721841013
5001.820318218383,29024.458600473976
5001.84633027888,29078.30647588365
5001.872342474651,29026.911605806275
5001.8983548056995,28985.75953012458
5001.924367272026,28989.409260669712
5001.9503798736305,28879.203554018484
5001.976392610514,28751.264341495353
5002.002405482678,28646.125518954002
5002.028418490122,28343.992802439032
5002.054431632847,27896.741027052125
5002.080444910854,27581.712002591918
5002.106458324142,27468.642345875796
5002.1324718727155,27345.827269865855
5002.158485556572,26858.34178533676
5002.184499375713,26369.194777912344
5002.210513330139,26096.746303416043
5002.236527419852,25377.84605217766
5002.262541644852,24418.096547368452
5002.288556005138,23026.948070951737
5002.314570500714,21473.209152449093
5002.340585131577,19645.036248314755
5002.36659989773,18119.241362478297
5002.392614799174,17363.54927454111
5002.418629835909,17614.566564459157
5002.444645007936,18847.196714334725
5002.4706603152545,20551.01986683872
5002.496675757866,22380.706869183352
5002.522691335772,24276.6959907493
5002.548707048972,25880.001373158477
5002.574722897468,26950.327220882635
5002.600738881259,27862.481529843237
5002.626755000347,28539.53013234404
5002.652771254732,28692.48879417636
5002.678787644415,28989.73702100681
5002.704804169397,29191.823136445204
5002.730820829678,29153.032059937053
5002.75683762526,29078.976816165217
5002.782854556142,29089.32512321575
5002.8088716223265,29056.629739673088
5002.834888823812,29012.555489302882
5002.860906160601,29117.1157062676
5002.886923632695,29126.446200349397
5002.912941240092,29026.754172323956
5002.938958982793,29056.57939998308
5002.9649768608015,28999.96325755446
5002.990994874116,28940.47927550753
5003.017013022737,28789.089294360234
5003.043031306666,28498.11166768875
5003.069049725905,28621.904519905504
5003.095068280452,28640.143867492083
5003.121086970309,28719.88822549887
5003.147105795477,28672.996027290952
5003.173124755956,28646.190427746456
5003.199143851748,28399.09187475771
5003.225163082852,28191.7058586685
5003.251182449269,27547.14838744643
5003.277201951001,26529.020963788502
5003.3032215880485,25625.599531429987
5003.32924136041,25084.05675309646
5003.35526126809,24801.481237374024
5003.381281311085,24875.00198043552
5003.407301489398,25497.482799699403
5003.433321803031,25997.44234420636
5003.459342251982,26416.093383294872
5003.4853628362525,26519.621539435997
5003.511383555844,26621.63291734994
5003.537404410757,25962.222893391936
5003.563425400991,25083.013732542568
5003.589446526548,24037.99758207082
5003.615467787429,22986.905741167113
5003.641489183634,22173.992046399053
5003.667510715163,22080.771699971156
5003.693532382018,22690.95895643912
5003.719554184199,23546.283544259582
5003.745576121707,24343.44553717241
5003.771598194542,25016.19038968442
5003.797620402706,25651.402191220026
5003.823642746199,26284.67224422093
5003.849665225021,26750.746883384825
5003.875687839174,26965.256776320723
5003.901710588658,26946.426496372107
5003.927733473473,26774.0586864045
5003.953756493622,26862.21268133527
5003.979779649103,27164.365611125508
5004.005802939919,27248.077533182422
5004.031826366068,27776.396537880057
5004.057849927553,28071.26971487646
5004.083873624375,28471.98075212427
5004.109897456533,28936.490594736963
5004.135921424028,29112.388685638503
5004.161945526862,29187.650590833702
5004.187969765035,29177.522254251944
5004.213994138547,29136.505020849014
5004.240018647399,29142.586633469495
5004.266043291592,29209.52856382404
5004.292068071127,29341.518683070135
5004.318092986004,29251.103059951543
5004.344118036223,29010.859687920736
5004.370143221788,28964.143083460902
5004.396168542696,28519.591146023206
5004.422193998949,28233.360003732723
5004.448219590549,27844.358892971006
5004.474245317495,27647.1891769306
5004.500271179789,27209.50974205119
5004.52629717743,26964.50490669808
5004.5523233104195,26936.880755215385
5004.578349578759,26503.960570044914
5004.604375982449,25781.70717146489
5004.630402521489,24907.504910446565
5004.656429195881,23571.056898455816
5004.682456005625,21700.258376506903
5004.708482950721,19573.82855099857
5004.734510031172,17821.46288331472
5004.760537246977,16796.343307610485
5004.7865645981365,16604.036427313087
5004.812592084652,17493.7745735998
5004.838619706525,18989.960779529458
5004.8646474637535,20820.05597015568
5004.890675356341,22673.543092331194
5004.916703384286,24426.016485491637
5004.942731547591,25672.357850365348
5004.968759846256,26362.60586093772
5004.994788280281,26910.918254296306
5005.020816849668,26731.114444753315
5005.046845554417,26579.265623520005
5005.072874394528,26361.910887972608
5005.098903370003,25696.697416602867
5005.124932480842,24680.879365335535
5005.150961727047,23282.68287720717
5005.176991108617,21593.94008263513
5005.203020625552,19589.665859503326
5005.229050277856,17424.121295162884
5005.255080065526,15311.39608928188
5005.281109988566,13440.751667590324
5005.3071400469735,12454.005226142719
5005.333170240751,12370.569505295753
5005.3592005699,13097.74994630793
5005.38523103442,14192.164653451804
5005.411261634312,16055.451485960597
5005.4372923695755,17819.892441435113
5005.463323240213,19135.30412446587
5005.489354246225,20024.17829035594
5005.515385387611,20253.034625526918
5005.541416664373,19808.350869219557
5005.567448076511,18741.37174883697
5005.593479624025,17216.880014257356
5005.619511306918,15286.344400586328
5005.645543125189,13264.43743754956
5005.671575078838,11586.421692356591
5005.697607167867,10489.4850084305
5005.723639392277,10176.605054944672
5005.749671752068,10575.063780997862
5005.77570424724,11683.11154311934
5005.8017368777955,13541.082374152538
5005.8277696437335,15708.759892222144
5005.853802545055,18315.481334511947
5005.879835581762,20626.98045108878
5005.905868753854,22810.75062844783
5005.931902061331,24496.278243605946
5005.957935504196,25624.14231111183
5005.983969082448,26959.717461721266
5006.010002796088,27647.676777836692
5006.036036645117,28160.489084322217
5006.062070629536,28352.865701145118
5006.088104749344,28502.338903015665
5006.114139004544,28607.536076881323
5006.140173395135,28684.540790678955
5006.166207921118,28635.854681266806
5006.192242582495,28605.799002282267
5006.218277379266,28477.8672869262
5006.244312311431,28273.31352438946
5006.270347378991,28278.100465621425
5006.296382581946,28246.389691444067
5006.322417920299,28126.849014399577
5006.348453394048,28140.203835581393
5006.374489003196,28117.233145847975
5006.400524747743,27964.698369061534
5006.426560627688,28100.178327124042
5006.452596643034,28023.4632353622
5006.47863279378,27993.023159076285
5006.504669079928,27521.261234531416
5006.530705501478,27245.141675505114
5006.556742058431,27011.36433491856
5006.582778750788,26685.43240065134
5006.608815578549,25925.332902567443
5006.634852541715,24938.397330083582
5006.660889640287,23607.180888590963
5006.686926874265,21958.695909001664
5006.71296424365,19852.855556077153
5006.739001748444,17484.265497120174
5006.765039388645,15108.589361923203
5006.791077164256,12988.347942225178
5006.817115075277,11509.775137953895
5006.843153121708,10824.245023511376
5006.869191303552,11110.53003040026
5006.895229620806,12077.158065219706
5006.921268073474,13946.83134807968
5006.947306661555,16150.459859515919
5006.97334538505,18451.587832149522
5006.999384243961,20764.647289226374
5007.025423238286,22978.288645713794
5007.051462368028,24683.4285985772
5007.077501633187,25951.774970026592
5007.103541033764,27061.116305145395
5007.129580569759,27819.848569783895
5007.155620241173,28314.542336655737
5007.181660048007,28429.44670470154
5007.207699990262,28390.525431601283
5007.233740067937,27948.895960218644
5007.259780281035,27221.46836089173
5007.285820629555,26534.287947741726
5007.311861113499,26140.887464636715
5007.337901732866,25962.743866355282
5007.363942487658,26074.97533440351
5007.389983377876,26783.654420899693
5007.41602440352,27515.363637135106
5007.442065564591,28188.662416903764
5007.468106861089,28686.463088556233
5007.494148293015,29178.51269115793
5007.520189860371,29512.95643359034
5007.546231563156,29847.014878719947
5007.572273401372,29946.234959835827
5007.598315375018,29703.469448203432
5007.624357484096,29833.877913728575
5007.650399728607,29954.37311627345
5007.676442108551,29848.049042895054
5007.702484623929,29748.939755671425
5007.728527274741,29738.033366569227
5007.754570060989,29739.195541437515
5007.780612982673,29941.49736261938
5007.806656039793,30173.74245774682
5007.832699232351,30128.22844623615
5007.858742560347,30083.672685804773
5007.884786023782,30051.68620391074
5007.910829622656,30147.131130779588
5007.936873356971,30294.977404566034
5007.962917226726,30082.98155239413
5007.988961231923,30165.983410520086
5008.015005372563,30170.726346586765
5008.041049648646,29962.97245178761
5008.067094060171,30088.461361559097
5008.0931386071425,29977.7119138349
5008.119183289558,29622.2965892073
5008.14522810742,29349.6017639956
5008.171273060728,28909.092821620194
5008.197318149483,28503.659077497905
5008.223363373687,28292.837586036607
5008.249408733339,28150.149047199946
5008.27545422844,28223.863088628066
5008.301499858992,28369.530527926432
5008.327545624995,28891.095617184346
5008.353591526448,29097.988210187174
5008.379637563355,29528.340394498915
5008.405683735714,29941.57772875294
5008.431730043527,29943.416397178673
5008.457776486794,29867.1525107946
5008.483823065515,29833.743316925673
5008.509869779693,30054.02953672657
5008.535916629327,30078.51374618831
5008.561963614418,29633.755373346645
5008.588010734968,29667.600063475373
5008.614057990975,29870.854058258694
5008.640105382442,29782.713415730454
5008.666152909369,29814.692113913712
5008.692200571756,29848.906674532504
5008.718248369605,30092.01587800987
5008.744296302916,30207.90544358118
5008.77034437169,30044.911361748316
5008.796392575927,29988.084168715122
5008.822440915628,30185.099093508205
5008.848489390794,30208.589014206904
5008.874538001426,29975.155123390003
5008.900586747524,30047.08256382287
5008.926635629089,30018.44992963997
5008.952684646122,29904.069589987055
5008.978733798623,30010.08626750752
5009.004783086593,30030.6819357441
5009.030832510033,29610.488429254703
5009.056882068944,29487.814238264134
5009.082931763326,29645.999744371686
5009.108981593179,29303.411902476266
5009.135031558506,28923.310320674085
5009.161081659306,28635.976972084896
5009.187131895579,28178.674261821547
5009.213182267327,27943.711922326245
5009.239232774552,27466.574555300154
5009.265283417251,27344.10305636805
5009.291334195428,27609.139802376812
5009.317385109083,27871.162948487374
5009.343436158216,28366.945325879835
5009.369487342828,28396.9942484961
5009.395538662919,28659.591780192754
5009.421590118491,28932.271134307055
5009.447641709544,28512.019990661094
5009.473693436078,28269.482402050464
5009.499745298095,27891.264723602977
5009.525797295596,27355.10759792621
5009.55184942858,26182.343953483894
5009.577901697049,24898.847267591587
5009.603954101003,23882.13914461832
5009.630006640443,22975.295600736594
5009.65605931537,22360.73750534217
5009.682112125784,21751.271699058027
5009.708165071686,20967.164510530187
5009.7342181530785,19946.60860283478
5009.760271369959,18614.502283113314
5009.78632472233,17571.1467075994
5009.812378210192,17153.34211037146
5009.838431833546,17477.77254084812
5009.864485592391,18579.688945808593
5009.890539486731,20229.84763285453
5009.916593516564,22179.6182789536
5009.942647681891,23930.952133332208
5009.968701982713,25399.475334872
5009.994756419032,26807.399899216543
5010.020810990847,28129.67904349559
5010.046865698159,28700.428070989223
5010.072920540969,29222.712081106587
5010.098975519279,29481.4358143261
5010.125030633087,29633.866838306487
5010.151085882395,30125.000395191044
5010.177141267204,29925.67186043349
5010.2031967875155,29963.240242822794
5010.229252443328,30009.194185060438
5010.255308234644,29903.050495631036
5010.281364161464,29989.142188596128
5010.307420223788,29751.1235259922
5010.333476421617,29443.37100803008
5010.359532754951,29016.470642794942
5010.3855892237925,28287.29525961646
5010.4116458281405,27558.503279765697
5010.437702567997,26533.34088097345
5010.463759443362,25159.886829574818
5010.489816454236,23701.791228301205
5010.51587360062,22541.265224875264
5010.541930882514,22050.409589744955
5010.56798829992,22315.341891918477
5010.5940458528385,23328.580706520403
5010.62010354127,24735.242076082453
5010.646161365214,26020.073104941675
5010.672219324672,27366.293547912053
5010.698277419646,28186.29809999151
5010.724335650135,28864.787233137737
5010.7503940161405,29312.575459385374
5010.7764525176635,29601.83570011341
5010.802511154703,29646.337094224622
5010.828569927262,29840.911593335684
5010.85462883534,29814.41723337806
5010.880687878937,29835.237631479013
5010.906747058056,29968.85215641144
5010.932806372695,30092.890843656467
5010.958865822856,30012.251371948933
5010.98492540854,30112.08588828177
5011.0109851297475,30216.40033107573
5011.0370449864795,30071.222825837813
5011.063104978735,30112.53391319072
5011.089165106517,30194.024472677094
5011.115225369825,29952.831837567977
5011.14128576866,29686.186838902806
5011.167346303022,29353.300906696506
5011.193406972913,28888.08586182988
5011.219467778333,28460.109763436863
5011.2455287192815,27672.765768137906
5011.271589795761,26839.027775219976
5011.297651007772,25947.083446614964
5011.323712355315,25184.86464602421
5011.34977383839,24828.969298659376
5011.375835456999,24420.765809746394
5011.401897211142,24184.389100880824
5011.427959100819,24192.280564912882
5011.454021126031,23378.468137099513
5011.4800832867795,22645.760896771655
5011.506145583065,21156.070371878952
5011.532208014888,19292.01952843686
5011.558270582248,17218.39223073319
5011.584333285148,15008.567269123343
5011.610396123588,12750.309684728309
5011.636459097567,10965.295485241073
5011.662522207088,9805.870029681162
5011.68858545215,9411.162459938641
5011.714648832754,9718.280258081344
5011.740712348902,10749.747347255156
5011.766776000594,12328.11990572746
5011.79283978783,14487.286017976085
5011.818903710611,16893.980133324105
5011.844967768939,19034.272472429915
5011.871031962813,20949.243333692866
5011.897096292234,22238.782153928638
5011.923160757203,22730.059506159552
5011.949225357721,22626.42179690428
5011.975290093788,21697.170172801725
5012.001354965406,20642.078918853935
5012.027419972574,19875.53540806021
5012.053485115294,19620.151992461382
5012.079550393566,20230.168884398605
5012.105615807392,21351.936995166932
5012.13168135677,22558.255064596546
5012.157747041703,23766.33648811116
5012.183812862192,24564.290142627364
5012.209878818236,24898.926512463044
5012.235944909837,24700.196339788694
5012.262011136994,24357.28477439369
5012.28807749971,23977.42519377835
5012.3141439979845,24113.03493313223
5012.340210631818,24600.478447572805
5012.366277401212,25427.29098521079
5012.392344306166,26391.96126296206
5012.418411346682,27213.44885734139
5012.44447852276,28197.56056224378
5012.470545834401,28623.306336234516
5012.496613281605,28839.222584946117
5012.522680864374,29119.668725591135
5012.548748582707,29171.473288881458
5012.574816436606,29337.73673642586
5012.600884426071,29289.552724785506
5012.626952551104,29240.653722516032
5012.653020811705,29252.222527546684
5012.679089207873,28986.87178852848
5012.705157739611,28763.237768241124
5012.73122640692,28317.13707425444
5012.757295209798,27653.69372456115
5012.7833641482475,26524.595446964773
5012.80943322227,24978.00697634384
5012.835502431864,23251.809239787843
5012.861571777033,21429.715930497005
5012.887641257775,20035.269890624375
5012.9137108740915,19036.05863202106
5012.939780625984,19074.146282918835
5012.965850513452,20067.003344041685
5012.991920536498,21166.515821038764
5013.017990695121,22276.490397592795
5013.044060989323,23184.91477978951
5013.070131419104,23749.428148896186
5013.096201984464,23656.203175672414
5013.122272685405,23008.391405426642
5013.148343521927,21881.029521916204
5013.17441449403,20149.9122007602
5013.200485601717,17923.553657624074
5013.226556844987,15905.67685624196
5013.2526282238405,14138.196868733232
5013.278699738279,13051.95409291807
5013.304771388303,12906.68951127853
5013.330843173913,13856.328894084481
5013.35691509511,15320.792305254392
5013.382987151894,17123.3003949219
5013.409059344267,19165.008934675177
5013.435131672228,21022.98703338751
5013.46120413578,22492.265795207066
5013.487276734921,23525.05661047078
5013.513349469653,24360.46406310393
5013.539422339977,24988.145163931287
5013.565495345894,25395.363293820927
5013.5915684874035,25768.25126555353
5013.617641764507,25654.495032082767
5013.643715177206,25115.078493867786
5013.6697887254995,24254.65465654689
5013.695862409389,22591.094259113346
5013.721936228875,20548.440702147902
5013.748010183958,18194.700259920435
5013.77408427464,15862.819068138373
5013.800158500921,14000.905583820517
5013.826232862801,12739.512848193337
5013.852307360281,12252.620667349733
5013.8783819933615,12726.630307461042
5013.904456762045,14106.718876199793
5013.930531666329,16197.83222019105
5013.956606706218,18371.9103031555
5013.982681881709,20805.82411045897
5014.008757192805,22825.740899355584
5014.034832639507,24528.93842829099
5014.060908221814,25750.308802141724
5014.086983939728,26609.035946878448
5014.113059793249,27177.574656805125
5014.139135782378,27371.44474073722
5014.165211907116,27343.458649206463
5014.1912881674625,27555.546958905157
