wave,flux
4450.003811362098,26792.633514951667
4450.026953690486,23066.842073464362
4450.050096139227,19633.503664325643
4450.073238708321,17447.67966613324
4450.096381397769,15904.5418460233
4450.119524207569,14562.190586435798
4450.142667137726,12959.073744419657
4450.165810188237,11346.23025360066
4450.188953359103,10064.599223393518
4450.212096650326,9268.60158340825
4450.2352400619075,9554.611235634013
4450.258383593846,10574.876654991005
4450.281527246142,12626.332756122958
4450.304671018797,15647.210849210762
4450.327814911813,19387.374425287224
4450.350958925188,22667.31881021922
4450.374103058924,25271.01006985522
4450.3972473130225,26227.877188111845
4450.420391687483,26303.440312930423
4450.443536182305,25424.255320199656
4450.466680797492,24978.30639944864
4450.489825533042,25499.5709292312
4450.512970388957,26984.784063958763
4450.536115365237,28479.6672388652
4450.559260461882,29618.21150997275
4450.582405678895,29694.24930936623
4450.605551016274,29542.87110707009
4450.628696474022,30319.58211517232
4450.651842052138,32210.58426315807
4450.674987750623,35675.93944467276
4450.698133569476,39830.47549161484
4450.721279508702,43505.99619085879
4450.744425568297,46625.50119716981
4450.767571748264,48700.261851260366
4450.790718048604,50012.9693655589
4450.813864469315,50973.778308745656
4450.837011010401,51219.5538671729
4450.86015767186,51418.32564457821
4450.883304453694,51467.57895615374
4450.906451355903,51534.42823069496
4450.929598378489,50893.56301467935
4450.95274552145,50640.00804341307
4450.975892784789,50290.584283272874
4450.999040168505,49648.37718766204
4451.022187672601,49227.99315082226
4451.045335297074,48216.58049683696
4451.068483041929,47399.66922588404
4451.091630907163,46389.94763664792
4451.114778892777,45304.71173877553
4451.137926998774,42973.622502824335
4451.161075225153,40403.23432277948
4451.184223571914,37207.53223181639
4451.207372039059,32654.3436543978
4451.230520626587,27809.981808428358
4451.253669334501,23191.64592298758
4451.2768181628,19430.931373632488
4451.299967111485,17410.93888455972
4451.323116180556,17446.97988074233
4451.346265370014,19486.828722323542
4451.369414679861,23254.103503739734
4451.392564110095,28089.826423033584
4451.415713660719,32975.47595231275
4451.438863331732,37545.617478110566
4451.462013123136,41684.50311979214
4451.48516303493,44888.57308963428
4451.508313067117,46853.00567853747
4451.531463219695,47598.689827598544
4451.554613492666,47486.64392730032
4451.577763886031,47062.13195291208
4451.60091439979,46086.52891473238
4451.624065033943,43833.09921214935
4451.647215788492,40656.26935604321
4451.670366663436,37101.83915261784
4451.693517658777,33707.436181142446
4451.716668774516,31449.36578660706
4451.739820010652,31210.90281846974
4451.762971367186,32469.91765711674
4451.78612284412,34829.4134687809
4451.8092744414525,37514.55193789499
4451.832426159187,39775.771830336605
4451.855577997321,42911.193919622485
4451.878729955857,45175.716179598545
4451.901882034796,47227.377593295925
4451.925034234137,48799.380976428714
4451.948186553881,50037.59402293476
4451.97133899403,50758.065668842224
4451.994491554583,51371.513759450645
4452.017644235542,51574.18350039609
4452.040797036907,51604.283960378016
4452.063949958678,51532.40050414908
4452.087103000857,51363.66685888116
4452.1102561634425,51081.90344808402
4452.133409446437,50640.75560081077
4452.156562849841,50157.94332153639
4452.179716373655,49213.77207947943
4452.202870017878,47815.42369487287
4452.226023782513,46122.95147339187
4452.24917766756,43929.466923073785
4452.272331673018,41895.91756283542
4452.29548579889,39765.211904349926
4452.318640045174,37526.223381037074
4452.341794411874,35681.3343768394
4452.364948898987,34298.26036449799
4452.388103506516,33032.97616149585
4452.4112582344615,31694.488469125936
4452.434413082823,30439.906470763388
4452.457568051602,29849.243005915687
4452.480723140799,30814.264711313237
4452.503878350413,33020.10049253124
4452.527033680448,36180.534104770835
4452.550189130902,39387.29527214115
4452.5733447017765,41705.27493034002
4452.596500393071,43251.276173321414
4452.619656204789,43551.22065727084
4452.642812136928,42111.33967818286
4452.66596818949,39692.3475073514
4452.689124362475,36148.9598585053
4452.7122806558855,33622.57664769975
4452.735437069719,32233.832939348347
4452.7585936039795,32977.535773690106
4452.781750258665,35409.12771167171
4452.804907033777,38122.29834711173
4452.828063929317,40549.170718145375
4452.851220945285,41506.84223358992
4452.87437808168,42002.59356820955
4452.897535338506,41735.054704495546
4452.92069271576,40423.28853870809
4452.943850213445,38539.99250230903
4452.967007831562,35957.140568142866
4452.99016557011,32177.848200096192
4453.01332342909,28726.286306845097
4453.036481408502,26214.193879656832
4453.059639508349,26322.23194099586
4453.08279772863,28758.691973680958
4453.105956069345,32702.433298086322
4453.129114530496,37416.708954643516
4453.152273112083,41637.81752147148
4453.175431814107,44631.87281019494
4453.198590636567,46808.357277547155
4453.221749579466,47669.57992449903
4453.244908642802,47930.05150854611
4453.268067826579,48014.515266161
4453.291227130795,47565.44963962187
4453.314386555451,47136.52230408291
4453.337546100549,45658.73731393176
4453.360705766087,43026.259659943826
4453.3838655520685,40079.122520590354
4453.407025458493,37423.656199282865
4453.430185485361,35633.8939032573
4453.453345632673,35695.67082330873
4453.476505900429,37956.37719328479
4453.4996662886315,40684.414228465954
4453.52282679728,43132.14711456038
4453.545987426375,45217.87948212496
4453.569148175917,46915.681518323
4453.592309045907,47922.93266520975
4453.615470036346,48807.091311728436
4453.638631147233,49306.563989168855
4453.661792378571,49393.62208238723
4453.684953730359,50082.30720857268
4453.708115202598,50028.2554157265
4453.731276795288,50215.94996304771
4453.754438508431,50533.395521887636
4453.777600342027,50010.22852048432
4453.800762296077,49731.365343957266
4453.82392437058,49139.59049580551
4453.847086565538,48761.64080029877
4453.870248880952,47367.170687271704
4453.8934113168225,46662.16794764706
4453.916573873149,45644.08183088752
4453.939736549933,43526.682832131046
4453.962899347174,41250.33740818963
4453.986062264875,37501.80657193716
4454.009225303034,33297.36832122115
4454.032388461654,28511.861307767962
4454.055551740734,23257.113257926663
4454.078715140275,19029.89244933016
4454.101878660277,16182.20953745024
4454.125042300742,15304.788704295328
4454.14820606167,16491.251302593977
4454.171369943061,19902.825107058074
4454.194533944917,23765.40525488228
4454.2176980672375,27664.645325235186
4454.240862310024,30709.115591066027
4454.264026673275,31715.22614350322
4454.287191156994,31118.274011661626
4454.31035576118,28995.070111728473
4454.333520485834,25842.034322324886
4454.356685330957,22232.420116441972
4454.379850296548,18741.257929017273
4454.40301538261,15948.049233173
4454.426180589142,13458.015420326448
4454.449345916145,11557.573822777125
4454.4725113636205,10090.913743059937
4454.495676931568,9215.109076339786
4454.5188426199875,9222.184142103015
4454.542008428882,10320.686180870782
4454.565174358249,12439.385278182126
4454.588340408092,15385.561493841538
4454.611506578411,18490.520875939754
4454.634672869205,21130.582700798535
4454.657839280476,22507.900206823295
4454.681005812225,22472.344494898705
4454.704172464451,21674.20566944146
4454.727339237156,20524.96702321955
4454.750506130341,20232.30759887211
4454.773673144005,21656.689013989224
4454.79684027815,24660.65918401104
4454.820007532776,28753.55039454055
4454.843174907884,32831.063432387324
4454.866342403473,35825.65644934307
4454.889510019546,37269.47627406731
4454.912677756102,36900.9220157461
4454.935845613144,35045.89471536442
4454.959013590669,31802.512329160734
4454.982181688681,28071.288389079447
4455.005349907178,24735.56976529889
4455.028518246162,22417.440795369366
4455.051686705633,22429.870914414914
4455.074855285593,24870.10124778326
4455.098023986041,28727.082160834954
4455.121192806979,33234.02048791041
4455.144361748406,37733.40990269354
4455.167530810323,41243.59788447544
4455.190699992732,43921.33879938182
4455.213869295633,45653.969012517504
4455.237038719026,47013.174838983265
4455.260208262912,46601.18210213578
4455.283377927292,45842.25853789972
4455.306547712166,44358.62608067027
4455.329717617535,42413.310568305045
4455.352887643399,39669.5286355273
4455.37605778976,37603.43856473889
4455.399228056617,36063.314937545394
4455.422398443972,34747.69015937777
4455.445568951825,33601.46202363527
4455.468739580177,30979.96427038198
4455.491910329028,27507.4138752908
4455.515081198378,23070.131443003596
4455.538252188229,19361.019870422333
4455.561423298582,15984.789426107665
4455.584594529436,13703.900626437411
4455.607765880793,12944.35837713836
4455.630937352652,13436.191354325749
4455.654108945016,15879.86367621878
4455.677280657883,19843.89409710994
4455.700452491255,24475.463493898893
4455.723624445134,29711.21231808893
4455.746796519518,34290.703227107406
4455.7699687144095,37978.201187265026
4455.793141029808,40776.60074954493
4455.816313465714,42620.710761515336
4455.83948602213,43751.6952921682
4455.862658699055,44496.20617301346
4455.885831496489,44848.202442279435
4455.909004414434,44604.34178011792
4455.932177452891,43787.222246377765
4455.955350611858,42024.11676487759
4455.978523891339,38980.087662512866
4456.001697291333,34651.09123652854
4456.024870811841,30059.13687647438
4456.048044452862,26009.018906865884
4456.071218214399,23408.386737309647
4456.094392096451,22514.156206716714
4456.117566099019,23460.445912504783
4456.140740222105,25837.550741712766
4456.163914465707,29062.935614642924
4456.187088829828,32225.074602014876
4456.210263314468,34511.23907911695
4456.233437919626,35685.94387075739
4456.256612645306,34938.778351116154
4456.279787491505,32148.157417524857
4456.302962458226,28561.006388349404
4456.326137545469,24875.620727770056
4456.349312753233,22522.327707725326
4456.372488081522,22316.8335139207
4456.395663530333,24256.54197521384
4456.41883909967,28084.12101490957
4456.442014789531,32739.98145238351
4456.465190599917,37438.635141713814
4456.488366530831,41503.66005701379
4456.5115425822705,44287.498449186176
4456.5347187542375,45976.79637002169
4456.557895046733,46644.38006615325
4456.581071459757,46402.985182316144
4456.604247993311,45697.762169865
4456.627424647395,44916.30473375207
4456.650601422009,44334.13997639221
4456.673778317154,43283.53576597055
4456.696955332832,41560.84350526649
4456.720132469041,39295.15900557506
4456.7433097257845,36987.30287965149
4456.766487103061,35529.19407116914
4456.789664600872,35875.981318093654
4456.8128422192185,37862.119615598014
4456.8360199581,40616.252573473204
4456.859197817518,42746.25004717593
4456.882375797473,44098.16814255334
4456.905553897966,45150.99043811049
4456.928732118997,45554.301055434014
4456.951910460566,45485.71821350503
4456.975088922674,44957.83307346846
4456.998267505323,43810.76794736253
4457.021446208513,41819.37774035504
4457.044625032244,38824.80022428743
4457.067803976516,34776.44081128933
4457.090983041332,29969.954300227477
4457.1141622266905,25358.868694297387
4457.1373415325925,21350.247874421504
4457.160520959039,18782.499647409335
4457.183700506031,17768.930821870534
4457.206880173568,17928.032268730578
4457.230059961651,18751.50277147973
4457.2532398702815,20166.202173767724
4457.27641989946,22530.829390139806
4457.299600049186,26412.63335930303
4457.322780319461,31163.670170890862
4457.345960710286,35995.96390826363
4457.36914122166,40160.44013868916
4457.392321853586,43598.35896327461
4457.415502606062,45276.47886831382
4457.43868347909,45649.96776582977
4457.461864472672,44818.18835948434
4457.485045586805,44254.04754813532
4457.508226821494,43894.85115878747
4457.5314081767365,43897.24451683558
4457.554589652534,44535.91007493647
4457.577771248887,44960.27810068471
4457.600952965797,45107.98761692665
4457.624134803263,44426.47515084329
4457.647316761288,42929.959196311785
4457.67049883987,41321.72148494191
4457.693681039011,38942.777330101766
4457.716863358712,36299.96644536932
4457.7400457989725,32963.05542238485
4457.763228359793,29035.893168195576
4457.7864110411765,25626.977923546943
4457.809593843121,23518.557026993705
4457.832776765628,23209.27514951541
4457.855959808699,24453.125756007306
4457.879142972333,26186.27795854938
4457.902326256532,26891.93841765942
4457.925509661296,26281.079462814305
4457.948693186626,24893.452161746183
4457.971876832522,24152.678545021965
4457.995060598985,24783.318675001683
4458.018244486016,27522.968618414146
4458.041428493615,31226.174085232855
4458.0646126217825,35331.71886625321
4458.08779687052,38926.99523763433
4458.110981239827,40990.1182244661
4458.134165729705,41247.4883765034
4458.157350340155,39991.0279204083
4458.180535071177,36932.753633332046
4458.203719922771,33446.42991031835
4458.226904894938,30294.613122723018
4458.2500899876795,28319.76958507195
4458.273275200995,28817.45321596817
4458.296460534886,31408.789430616587
4458.3196459893525,35093.73958844364
4458.342831564396,39110.622522363505
4458.366017260016,42557.80945261192
4458.389203076214,45199.50399995433
4458.4123890129895,46895.922673949506
4458.435575070344,47329.75876688769
4458.458761248279,48110.95310857438
4458.481947546794,47617.70383979659
4458.505133965889,47371.65757568462
4458.528320505566,45862.56116587971
4458.551507165825,44511.35704453106
4458.574693946666,42660.081679070005
4458.597880848091,41158.463273922236
4458.6210678701,38587.335773693325
4458.644255012693,35272.890458980815
4458.6674422758715,31478.707702091902
4458.690629659636,27087.25966877069
4458.713817163986,22450.646271768455
4458.737004788924,17702.388872273066
4458.76019253445,14046.306559358472
4458.783380400563,11585.876574260681
4458.8065683872655,9894.749102541793
4458.829756494558,9086.520475768946
4458.85294472244,9409.90513090819
4458.876133070914,10359.93020872966
4458.899321539979,12587.553384490615
4458.922510129635,15585.42312811703
4458.945698839884,19159.33943435117
4458.968887670727,22259.51099846667
4458.992076622164,24479.194165122033
4459.015265694195,25187.331545951834
4459.0384548868215,24705.77579956108
4459.061644200044,23871.54800667825
4459.084833633862,23785.215177476184
4459.108023188278,25393.732386449086
4459.131212863292,29367.71466111932
4459.154402658904,34245.89082869834
4459.177592575114,39143.90973654246
4459.200782611925,42354.43352574289
4459.223972769336,45408.97640940719
4459.247163047347,46908.61898989818
4459.27035344596,47963.20232231878
4459.293543965176,48269.32768061396
4459.316734604993,48072.29616818069
4459.339925365414,47467.83428285886
4459.363116246439,46244.83015229672
4459.386307248069,43762.98380918323
4459.409498370304,41086.83533333166
4459.432689613145,37616.8937673844
4459.455880976592,34810.17871852832
4459.479072460647,33662.49882087886
4459.502264065309,33912.87209684194
4459.52545579058,35932.54728181996
4459.5486476364595,38965.67869214442
4459.571839602949,42032.34536869955
4459.595031690048,44340.14544304594
4459.618223897759,46208.49899017945
4459.641416226081,47114.78568078597
4459.664608675014,47651.76283061765
4459.687801244561,47825.838973825616
4459.710993934721,47193.46138232259
4459.734186745496,46481.28195938927
4459.757379676885,45701.06212063942
4459.780572728889,43929.68469373644
4459.803765901509,41461.57230495616
4459.8269591947455,38139.41583544185
4459.850152608599,34378.57287422394
4459.87334614307,29239.81051325255
4459.89653979816,24418.846033359758
4459.91973357387,20419.46003061682
4459.942927470198,17810.73496033462
4459.966121487147,16908.11588206445
4459.989315624717,17316.69729600059
4460.0125098829085,19154.033770335245
4460.035704261722,21613.666686178258
4460.058898761158,24602.07157844524
4460.082093381218,28041.347522322427
4460.105288121902,31849.276199090444
4460.12848298321,36448.278381918535
4460.151677965145,40010.23716855413
4460.1748730677045,43404.887975298276
4460.198068290891,45991.85191390457
4460.221263634704,47480.39520620998
4460.244459099145,48497.58754406116
4460.267654684215,48779.90860943973
4460.290850389914,49126.17456238906
4460.314046216243,49817.17797875472
4460.337242163202,50285.66828029218
4460.360438230791,50416.83200000532
4460.383634419013,50351.556458300016
4460.406830727867,50166.69529113439
4460.430027157354,49379.88828672309
4460.453223707474,47854.59891513696
4460.476420378228,46602.565990505616
4460.499617169617,45738.269332611184
4460.522814081641,45347.98460471757
4460.5460111143,45696.049736584275
4460.569208267598,46482.56545070051
4460.592405541532,47131.11809604696
4460.615602936104,47347.000649850685
4460.638800451314,46780.19915170317
4460.661998087163,45588.318080838966
4460.685195843652,43760.16727299163
4460.708393720782,40943.84098032884
4460.731591718552,37287.75831780603
4460.754789836965,32891.82320040033
4460.777988076019,28117.272378272108
4460.801186435716,23760.491516270533
4460.824384916057,20264.283655150757
4460.847583517042,17870.023044748636
4460.870782238671,16403.561011963575
4460.893981080947,15782.159070844957
4460.917180043868,15558.81878282593
4460.940379127435,16176.110256229009
4460.963578331651,17637.197895778987
4460.986777656513,19877.1536026584
4461.009977102025,22278.90162178665
4461.033176668186,24092.548853011103
4461.056376354995,24264.825487031485
4461.079576162457,22917.17509336946
4461.102776090568,20833.555198857546
4461.125976139332,18840.83479178466
4461.149176308748,17405.25718601527
4461.172376598816,17016.480402244695
4461.195577009538,17781.690672841272
4461.218777540915,19049.7694664761
4461.241978192946,19896.381816461304
4461.265178965633,19886.122707548486
4461.2883798589755,18595.5915986476
4461.311580872974,16241.619198812903
4461.3347820076315,13766.586384662442
4461.357983262946,11712.261538458952
4461.381184638919,10472.96137448826
4461.404386135551,10548.924043136089
4461.4275877528435,11956.80689820179
4461.4507894907965,14564.368227406916
4461.4739913494095,18300.384701368184
4461.497193328685,22817.277323464066
4461.520395428623,27153.237885553976
4461.543597649224,30621.73910596238
4461.566799990488,33005.25683494891
4461.590002452416,33460.09382770984
4461.61320503501,31750.16637264082
4461.636407738269,28663.729572161028
4461.659610562193,24603.566232062884
4461.682813506784,20385.37127133312
4461.706016572044,17407.719461630775
4461.729219757971,16385.474451617625
4461.752423064566,17096.415599793163
4461.775626491831,19569.649426749744
4461.798830039766,23420.971789156894
4461.82203370837,27612.70856287607
4461.845237497647,31438.68961954482
4461.868441407595,34081.12031810008
4461.891645438215,34959.04507011962
4461.914849589509,35513.673538247516
4461.938053861475,36115.43949290436
4461.961258254117,37205.33277122166
4461.984462767433,38468.984542535356
4462.007667401424,38951.419669427625
4462.030872156092,38454.9234582191
4462.0540770314365,36532.94416872577
4462.077282027459,33611.00554888164
4462.100487144158,29706.967112707534
4462.123692381537,25916.091610375875
4462.146897739594,22981.46639271037
4462.170103218332,21487.668107128913
4462.19330881775,22644.099784387014
4462.21651453785,25860.044749483222
4462.239720378631,30207.740246908455
4462.262926340095,35050.23074839039
4462.286132422241,39700.005606298604
4462.309338625071,42896.14897090463
4462.3325449485865,45031.83397091063
4462.355751392785,45892.416721529306
4462.3789579576705,45772.65950545543
4462.402164643242,44579.42747304548
4462.4253714495,43687.1090286526
4462.448578376446,42870.77743283243
4462.471785424079,43090.81448227712
4462.494992592401,43619.97642620709
4462.518199881412,43362.53185917479
4462.541407291114,43762.259136252986
4462.564614821506,43144.146873508114
4462.587822472589,41362.75402388484
4462.611030244365,38817.61799955526
4462.634238136832,35196.65866409635
4462.657446149992,30339.19869021363
4462.680654283847,26202.614197329636
4462.703862538396,23269.12296061625
4462.727070913639,22821.32969846991
