wave,flux
5000.025812696027,27875.85606181045
5000.051815424163,26914.06244873996
5000.0778182875265,27834.164418931923
5000.103821286119,30316.735599559765
5000.12982441994,33924.11529760682
5000.155827688991,37898.73482342752
5000.181831093272,41948.24612711829
5000.207834632784,45100.98124274638
5000.2338383075285,47021.68876484874
5000.259842117506,48400.26456042904
5000.285846062716,48331.437409409154
5000.311850143161,47272.388643764396
5000.33785435884,45070.43896575514
5000.363858709754,41919.40087399939
5000.389863195905,38217.1481917922
5000.415867817292,35536.88353412589
5000.441872573917,34277.050786876294
5000.4678774657805,34692.163992790105
5000.493882492882,36765.96892863757
5000.519887655224,39051.39319606436
5000.545892952806,40585.627232983534
5000.571898385629,41630.77833481876
5000.597903953694,42243.67502528937
5000.623909657001,41930.3816590257
5000.649915495552,41132.518195772456
5000.675921469346,40592.69655197725
5000.701927578384,41348.939504388436
5000.727933822669,43146.98472445419
5000.7539402021985,45498.64678429208
5000.779946716975,47847.52871425248
5000.805953366999,49522.16016849189
5000.831960152272,50526.39164506644
5000.857967072792,50787.32327084509
5000.883974128563,50349.34075484261
5000.9099813195835,49981.10051691231
5000.935988645855,49944.38083213102
5000.961996107378,49852.15910761989
5000.988003704153,49862.557310623655
5001.014011436181,49603.44742940457
5001.040019303464,49031.10925647023
5001.066027306,47950.91864656949
5001.092035443791,45846.80404944182
5001.118043716839,43319.32714625465
5001.1440521251425,40460.267694421535
5001.170060668704,38540.0764043504
5001.196069347523,38225.70223405918
5001.222078161601,39288.90246997412
5001.248087110937,41537.65295549646
5001.274096195534,43903.98588310589
5001.300105415392,45284.00668770035
5001.326114770512,45643.17355906946
5001.352124260892,45038.81345716653
5001.3781338865365,43494.57763431591
5001.4041436474445,41052.03737420879
5001.430153543616,37443.07002427989
5001.456163575053,32855.68579288288
5001.482173741756,28438.350830263225
5001.508184043724,23651.486733701055
5001.534194480961,20101.27260128625
5001.560205053464,18118.828898448508
5001.586215761236,18260.108300815147
5001.612226604278,20528.832525885555
5001.638237582589,24383.17411606217
5001.664248696171,29272.53711563404
5001.690259945024,34574.56547957959
5001.716271329149,39704.42464456343
5001.742282848547,43984.80248884242
5001.768294503218,46922.60425677899
5001.794306293164,48851.52630929527
5001.820318218383,50037.75344861679
5001.84633027888,50910.81371920159
5001.872342474651,51792.12271891042
5001.8983548056995,52526.05851765231
5001.924367272026,52850.96508087421
5001.9503798736305,52886.4777498824
5001.976392610514,52601.681085892924
5002.002405482678,52610.45652449516
5002.028418490122,52571.372025519915
5002.054431632847,52111.659883865956
5002.080444910854,51819.31285754799
5002.106458324142,51627.635301156624
5002.1324718727155,51011.681391116545
5002.158485556572,50226.5029761572
5002.184499375713,49576.24973201412
5002.210513330139,48839.08570678305
5002.236527419852,47940.919723977204
5002.262541644852,47500.510586865086
5002.288556005138,46888.62581787763
5002.314570500714,45812.8036247736
5002.340585131577,44994.97524429104
5002.36659989773,43167.113736255495
5002.392614799174,40184.1563659075
5002.418629835909,35888.445727674785
5002.444645007936,31711.397992703634
5002.4706603152545,28482.415854719104
5002.496675757866,27212.79209528024
5002.522691335772,28389.230078355697
5002.548707048972,31787.395229674163
5002.574722897468,36466.82944322188
5002.600738881259,41149.76387791017
5002.626755000347,45191.036385840096
5002.652771254732,48072.79664594072
5002.678787644415,50304.37820254895
5002.704804169397,51674.15201340618
5002.730820829678,52487.03839210888
5002.75683762526,52792.380468018986
5002.782854556142,52765.9357691311
5002.8088716223265,53058.89124595133
5002.834888823812,53089.64645202684
5002.860906160601,53044.73064058415
5002.886923632695,53121.08954607332
5002.912941240092,52983.62950672412
5002.938958982793,52886.91470927126
5002.9649768608015,52813.9574404476
5002.990994874116,52790.00032323483
5003.017013022737,52730.16103303
5003.043031306666,52336.25593581051
5003.069049725905,52343.30932279153
5003.095068280452,52602.72984322898
5003.121086970309,52165.18654948534
5003.147105795477,51781.8680563516
5003.173124755956,51042.214209886726
5003.199143851748,51319.93134668464
5003.225163082852,51932.48008424613
5003.251182449269,51775.64831353289
5003.277201951001,51800.79005253251
5003.3032215880485,51569.38207346956
5003.32924136041,50704.544204061145
5003.35526126809,48431.607927566336
5003.381281311085,45770.75231265356
5003.407301489398,43355.99000042933
5003.433321803031,41361.97137542029
5003.459342251982,40921.43723095151
5003.4853628362525,42131.70774973864
5003.511383555844,44200.89376001018
5003.537404410757,46476.3448867861
5003.563425400991,47764.23249373896
5003.589446526548,48406.65880953024
5003.615467787429,47974.06350115991
5003.641489183634,46819.407032819945
5003.667510715163,44298.10205095871
5003.693532382018,41099.68420006819
5003.719554184199,38571.778046416184
5003.745576121707,37194.90813009689
5003.771598194542,37524.872732536125
5003.797620402706,39594.86778095759
5003.823642746199,42512.48854337826
5003.849665225021,44743.16765232164
5003.875687839174,46128.755676604
5003.901710588658,47358.04646802411
5003.927733473473,48204.624750154144
5003.953756493622,48525.99366439173
5003.979779649103,48360.738282579565
5004.005802939919,47550.58107731096
5004.031826366068,47333.342839163546
5004.057849927553,47550.89180031354
5004.083873624375,47640.93619106123
5004.109897456533,48655.302409062875
5004.135921424028,49746.66288562537
5004.161945526862,51041.616185056766
5004.187969765035,52093.56220855042
5004.213994138547,52683.12890815882
5004.240018647399,53106.07110327187
5004.266043291592,53217.873776293105
5004.292068071127,53014.93724554173
5004.318092986004,52939.63350154833
5004.344118036223,53132.096804004555
5004.370143221788,53298.90607852085
5004.396168542696,53329.1197621433
5004.422193998949,53229.91202260008
5004.448219590549,52861.69864949376
5004.474245317495,52409.794039868655
5004.500271179789,51909.87000305829
5004.52629717743,50950.671399856
5004.5523233104195,49961.700620667936
5004.578349578759,48700.840758052276
5004.604375982449,48573.630221083724
5004.630402521489,48432.83599669803
5004.656429195881,48259.66432450813
5004.682456005625,47949.53918107298
5004.708482950721,47137.44569047348
5004.734510031172,45098.57266566281
5004.760537246977,42047.46760464144
5004.7865645981365,37954.28021279715
5004.812592084652,33235.61741763839
5004.838619706525,29361.566824579397
5004.8646474637535,27326.530469677466
5004.890675356341,27491.47221861278
5004.916703384286,30099.412900935007
5004.942731547591,34568.2286386149
5004.968759846256,39149.16895870584
5004.994788280281,43041.621878659804
5005.020816849668,46086.11800241746
5005.046845554417,48245.68896659989
5005.072874394528,49306.11699101625
5005.098903370003,49183.24119275565
5005.124932480842,48803.450054347835
5005.150961727047,47919.45018993241
5005.176991108617,46487.30142304634
5005.203020625552,45224.76652185384
5005.229050277856,43570.73112379317
5005.255080065526,40928.45528281784
5005.281109988566,37708.16623866135
5005.3071400469735,33570.05050344673
5005.333170240751,28671.035422942372
5005.3592005699,24194.021271686335
5005.38523103442,20611.14195112687
5005.411261634312,18790.910831677753
5005.4372923695755,19244.415846089996
5005.463323240213,21347.014974422123
5005.489354246225,25093.32365783752
5005.515385387611,28982.544910879064
5005.541416664373,32870.13525755615
5005.567448076511,36069.63521031164
5005.593479624025,37538.59001592931
5005.619511306918,37348.96138703026
5005.645543125189,35829.551534983744
5005.671575078838,32996.78418299303
5005.697607167867,29294.160657176446
5005.723639392277,25078.286453511573
5005.749671752068,20933.18046561449
5005.77570424724,17649.84389154533
5005.8017368777955,15620.524940025689
5005.8277696437335,15168.42125089274
5005.853802545055,16421.076091408482
5005.879835581762,19226.224026729855
5005.905868753854,23461.848879929446
5005.931902061331,28536.954250144696
5005.957935504196,33978.9466691448
5005.983969082448,38711.28889883114
5006.010002796088,42955.314156294735
5006.036036645117,46459.438895584186
5006.062070629536,48416.23650387599
5006.088104749344,50109.973721730705
5006.114139004544,51320.46771314795
5006.140173395135,51706.9987552078
5006.166207921118,51860.05462585938
5006.192242582495,51901.83578779314
5006.218277379266,51945.53155869942
5006.244312311431,51702.67711703543
5006.270347378991,51484.2133812884
5006.296382581946,51291.94528151648
5006.322417920299,51258.62864555079
5006.348453394048,51211.059922629276
5006.374489003196,50946.08644015153
5006.400524747743,50987.055026760274
5006.426560627688,50971.90141145954
5006.452596643034,51152.409655628144
5006.47863279378,51173.52339731118
5006.504669079928,50820.98009204538
5006.530705501478,50986.639776012795
5006.556742058431,50252.479184755415
5006.582778750788,50046.23038738908
5006.608815578549,49685.18619259487
5006.634852541715,49399.77415523036
5006.660889640287,48463.71774991018
5006.686926874265,47355.67927534536
5006.71296424365,45899.423045259304
5006.739001748444,43842.56888400116
5006.765039388645,41141.17367312057
5006.791077164256,37719.145795764955
5006.817115075277,33080.42551572234
5006.843153121708,27932.44840956307
5006.869191303552,23215.619983671208
5006.895229620806,19243.329267122324
5006.921268073474,16795.82338325265
5006.947306661555,16054.453565772874
5006.97334538505,17028.388267638304
5006.999384243961,19916.213122081426
5007.025423238286,24060.663018936495
5007.051462368028,29162.645245328164
5007.077501633187,34417.339467358615
5007.103541033764,39214.887571465224
5007.129580569759,43163.21856359781
5007.155620241173,46524.175612696126
5007.181660048007,49164.52226206369
5007.207699990262,50715.25682033783
5007.233740067937,51715.226597260844
5007.259780281035,52368.73844891556
5007.285820629555,52081.06894318041
5007.311861113499,51266.2401319918
5007.337901732866,49962.95603060727
5007.363942487658,48295.091546827236
5007.389983377876,46705.10044615626
5007.41602440352,45447.81942289112
5007.442065564591,45133.368903056704
5007.468106861089,46127.48105933756
5007.494148293015,48062.46629779994
5007.520189860371,50312.33256040301
5007.546231563156,52050.35801767278
5007.572273401372,53086.71291910764
5007.598315375018,53863.803238937304
5007.624357484096,54150.13830370829
5007.650399728607,54398.93820300556
5007.676442108551,54090.92660235425
5007.702484623929,54262.66126423986
5007.728527274741,54031.35251934085
5007.754570060989,53953.17301465097
5007.780612982673,54401.891100030756
5007.806656039793,54711.64397923796
5007.832699232351,54638.3091994528
5007.858742560347,54435.23833445873
5007.884786023782,54784.39623066142
5007.910829622656,55018.10421224489
5007.936873356971,54919.38299745029
5007.962917226726,55103.16207603789
5007.988961231923,55067.91724340152
5008.015005372563,55036.49998781419
5008.041049648646,55400.320277861014
5008.067094060171,55226.808570094676
5008.0931386071425,55184.29793744795
5008.119183289558,55270.42546794058
5008.14522810742,54986.3016751222
5008.171273060728,54839.55570162748
5008.197318149483,54725.83818152482
5008.223363373687,54349.16523481998
5008.249408733339,53687.80333001039
5008.27545422844,52152.75514142153
5008.301499858992,50976.25148985973
5008.327545624995,50026.89452869916
5008.353591526448,49587.91051370357
5008.379637563355,50293.31082452961
5008.405683735714,51403.03599016065
5008.431730043527,52715.605797479315
5008.457776486794,53647.22566740877
5008.483823065515,54009.03930558413
5008.509869779693,54479.95165745809
5008.535916629327,54965.74844870127
5008.561963614418,54929.25153403395
5008.588010734968,54640.74569881612
5008.614057990975,54436.184980423044
5008.640105382442,54334.11091649734
5008.666152909369,54282.686988517424
5008.692200571756,54168.53526142005
5008.718248369605,54580.85311978363
5008.744296302916,54570.97939116357
5008.77034437169,54644.266546930834
5008.796392575927,54765.5018164021
5008.822440915628,55033.25640668745
5008.848489390794,55026.9159844173
5008.874538001426,54612.69630206129
5008.900586747524,54765.82159075139
5008.926635629089,54869.752979872464
5008.952684646122,55014.47981466682
5008.978733798623,55009.13220059236
5009.004783086593,55217.79156937638
5009.030832510033,54975.4300336878
5009.056882068944,54589.67240172041
5009.082931763326,54171.33075274288
5009.108981593179,53614.14760405062
5009.135031558506,53285.91302637965
5009.161081659306,53157.97992226107
5009.187131895579,52783.35010057772
5009.213182267327,52540.3384368539
5009.239232774552,52235.585524785274
5009.265283417251,50891.57257857108
5009.291334195428,49395.82329058085
5009.317385109083,47767.62740846796
5009.343436158216,46965.021261566246
5009.369487342828,46952.82300235221
5009.395538662919,47791.05853680687
5009.421590118491,49435.768394373416
5009.447641709544,50606.00031613705
5009.473693436078,51331.470646626345
5009.499745298095,51781.720188613515
5009.525797295596,51924.38326929415
5009.55184942858,51836.924989386265
5009.577901697049,51637.09350354366
5009.603954101003,50738.80448578276
5009.630006640443,48760.1810979402
5009.65605931537,46234.24451691482
5009.682112125784,43132.168590399466
5009.708165071686,40280.16349859674
5009.7342181530785,38855.767110270695
5009.760271369959,38431.25031602623
5009.78632472233,38121.23112042117
5009.812378210192,37364.18299792832
5009.838431833546,35494.29792776526
5009.864485592391,32700.340735107802
5009.890539486731,30283.67515727844
5009.916593516564,29364.576464245503
5009.942647681891,30382.07632164272
5009.968701982713,33341.54398366329
5009.994756419032,37357.490198380314
5010.020810990847,41508.98932462949
5010.046865698159,45017.759229344476
5010.072920540969,48177.96695156396
5010.098975519279,50737.44330187379
5010.125030633087,52611.87380711765
5010.151085882395,53430.3114968723
5010.177141267204,54048.83411719288
5010.2031967875155,54475.12157652555
5010.229252443328,54723.42181574617
5010.255308234644,54861.3991783427
5010.281364161464,54929.06897267057
5010.307420223788,54938.390712628214
5010.333476421617,54688.656931460275
5010.359532754951,54683.1742923846
5010.3855892237925,54503.57590014874
5010.4116458281405,54071.670714959764
5010.437702567997,53617.130102138246
5010.463759443362,52617.07058892589
5010.489816454236,51130.99046774851
5010.51587360062,49178.038830582256
5010.541930882514,46353.374855309754
5010.56798829992,42969.95108609996
5010.5940458528385,39547.03016126838
5010.62010354127,37104.425300765055
5010.646161365214,36499.16212627106
5010.672219324672,37782.05147601161
5010.698277419646,41181.38789378423
5010.724335650135,45235.73541142147
5010.7503940161405,48679.36516409752
5010.7764525176635,51123.33725173801
5010.802511154703,52728.71216285601
5010.828569927262,53676.46666188251
5010.85462883534,53813.23402361569
5010.880687878937,54122.59675402525
5010.906747058056,54305.54534902207
5010.932806372695,54244.96193121851
5010.958865822856,54267.01671719833
5010.98492540854,54411.6476135908
5011.0109851297475,54882.771217869806
5011.0370449864795,55146.348054354705
5011.063104978735,55139.395505337205
5011.089165106517,55011.85436121652
5011.115225369825,54932.21561821481
5011.14128576866,55049.37550288201
5011.167346303022,55107.412449783274
5011.193406972913,54667.985933033175
5011.219467778333,54147.59830329538
5011.2455287192815,53943.6875186558
5011.271589795761,53054.568617021025
5011.297651007772,51797.15876588055
5011.323712355315,50767.61247197547
5011.34977383839,48963.891079677414
5011.375835456999,47198.270881255274
5011.401897211142,45224.7723008944
5011.427959100819,43914.59473896928
5011.454021126031,42848.84641951795
5011.4800832867795,42514.367298264966
5011.506145583065,42468.06163701577
5011.532208014888,42417.12311301478
5011.558270582248,41749.563011628925
5011.584333285148,39578.97597910502
5011.610396123588,36588.830175764044
5011.636459097567,32754.756791844677
5011.662522207088,28257.99334057014
5011.68858545215,23578.470170078173
5011.714648832754,19296.97541453807
5011.740712348902,16105.686103508951
5011.766776000594,14357.012154127537
5011.79283978783,14080.040548938941
5011.818903710611,15065.659266583254
5011.844967768939,17252.085689534026
5011.871031962813,20827.612746065945
5011.897096292234,25691.146723501548
5011.923160757203,31005.97498699141
5011.949225357721,35845.97207506185
5011.975290093788,39549.17328190085
5012.001354965406,41694.463534157614
5012.027419972574,42328.03869689018
5012.053485115294,41114.74510928255
5012.079550393566,38121.57490876155
5012.105615807392,34675.76408421528
5012.13168135677,32434.20049449394
5012.157747041703,32076.882345059184
5012.183812862192,34046.00610904319
5012.209878818236,37252.21364161097
5012.235944909837,40949.71973074073
5012.262011136994,44020.60169709595
5012.28807749971,45184.83952162772
5012.3141439979845,45262.31840930883
5012.340210631818,43936.0743688832
5012.366277401212,42114.763118959345
5012.392344306166,40999.34105854908
5012.418411346682,41504.61395608918
5012.44447852276,43377.49732370535
5012.470545834401,45971.997298259404
5012.496613281605,48381.56040248678
5012.522680864374,50496.71565471724
5012.548748582707,51894.8828687723
5012.574816436606,52887.45163445207
5012.600884426071,53188.95455252246
5012.626952551104,53129.856912678246
5012.653020811705,53144.45563731066
5012.679089207873,53302.594556665186
5012.705157739611,53350.51120417857
5012.73122640692,53191.35869965026
5012.757295209798,53130.65764071384
5012.7833641482475,52757.12145230525
5012.80943322227,52077.48310710734
5012.835502431864,51080.2482661107
5012.861571777033,49555.91370914105
5012.887641257775,47088.42457280263
5012.9137108740915,43384.79875714293
5012.939780625984,39232.1326247551
5012.965850513452,35203.544682682616
5012.991920536498,32218.514244864327
5013.017990695121,31288.02074828873
5013.044060989323,32274.812807537633
5013.070131419104,35034.25169797179
5013.096201984464,38306.23554634369
5013.122272685405,41381.140787940705
5013.148343521927,43526.873630416056
5013.17441449403,44001.88200322168
5013.200485601717,43916.35440852591
5013.226556844987,42307.731256655316
5013.2526282238405,39405.92822232515
5013.278699738279,35358.24228307447
5013.304771388303,30973.625393433045
5013.330843173913,26433.077307230655
5013.35691509511,22860.851715585814
5013.382987151894,20996.233835593335
5013.409059344267,21070.73653713386
5013.435131672228,23369.76340080676
5013.46120413578,27212.07917529051
5013.487276734921,31678.974955803948
5013.513349469653,36077.7062931036
5013.539422339977,39660.046956631624
5013.565495345894,41966.12533522209
5013.5915684874035,43117.490618629505
5013.617641764507,43938.97195921021
5013.643715177206,45006.14597996872
5013.6697887254995,45919.85138927948
5013.695862409389,46405.73217053548
5013.721936228875,46250.08390028448
5013.748010183958,44913.8380441452
5013.77408427464,42536.235559525325
5013.800158500921,38503.74541101581
5013.826232862801,33166.24068023081
5013.852307360281,28017.999862969707
5013.8783819933615,23359.346158972694
5013.904456762045,19988.457179597648
5013.930531666329,17941.926255781524
5013.956606706218,17754.712987807845
5013.982681881709,19291.70795453649
5014.008757192805,22605.85922294165
5014.034832639507,27382.4758335652
5014.060908221814,33016.67770518223
5014.086983939728,38003.91359809268
5014.113059793249,42784.26027938654
5014.139135782378,45920.265617021665
5014.165211907116,48321.23262898346
5014.1912881674625,49473.82101425422
5014.21736456342,49426.48606026684
5014.243441094988,49231.23105642079
5014.269517762167,49230.95858876369
5014.295594564959,49175.509501797314
5014.321671503363,49131.79984023288
5014.347748577381,48566.630848686225
