wave,flux
5000.025812696027,38270.6937137504
5000.051815424163,37478.47639397832
5000.0778182875265,36314.68851676736
5000.103821286119,35061.29053548822
5000.12982441994,33702.310779139385
5000.155827688991,32310.94238887291
5000.181831093272,30820.08233041613
5000.207834632784,29143.45967985829
5000.2338383075285,27523.51948594731
5000.259842117506,26189.267701244695
5000.285846062716,24747.98664772838
5000.311850143161,23913.560642021937
5000.33785435884,23166.40295001314
5000.363858709754,23084.833913840193
5000.389863195905,23135.86246926145
5000.415867817292,23419.32043228756
5000.441872573917,24345.84323778356
5000.4678774657805,25729.0988730305
5000.493882492882,27234.47092226757
5000.519887655224,28759.994550166008
5000.545892952806,30107.532965988856
5000.571898385629,30942.218241617633
5000.597903953694,31412.72637487869
5000.623909657001,31619.22543962621
5000.649915495552,31588.783879319508
5000.675921469346,31033.226733956864
5000.701927578384,30234.31247957034
5000.727933822669,29576.546183587852
5000.7539402021985,28952.163698645167
5000.779946716975,28275.582680803207
5000.805953366999,28182.08722793024
5000.831960152272,28388.62893859924
5000.857967072792,28712.240579770107
5000.883974128563,29246.132310051154
5000.9099813195835,29836.22927473205
5000.935988645855,30422.474033402937
5000.961996107378,30896.34251167879
5000.988003704153,31455.08632980793
5001.014011436181,31900.650486451585
5001.040019303464,32281.543643518413
5001.066027306,33044.647198634826
5001.092035443791,33847.4576603303
5001.118043716839,34609.00880884965
5001.1440521251425,35377.01313923555
5001.170060668704,36196.08772399282
5001.196069347523,36510.075618360985
5001.222078161601,36623.57714247548
5001.248087110937,36661.158133882556
5001.274096195534,36322.63441943104
5001.300105415392,35851.564538837425
5001.326114770512,35532.50671279372
5001.352124260892,35214.171147285175
5001.3781338865365,34863.849087898285
5001.4041436474445,34475.57128458605
5001.430153543616,33977.261061994985
5001.456163575053,33275.27828645062
5001.482173741756,32631.556382015762
5001.508184043724,31669.086472276093
5001.534194480961,31009.983249392822
5001.560205053464,30306.9142618382
5001.586215761236,29714.972330605608
5001.612226604278,29218.594247416804
5001.638237582589,28682.878212498385
5001.664248696171,27610.108973426155
5001.690259945024,26373.503499347058
5001.716271329149,25157.812953455894
5001.742282848547,23479.149419849247
5001.768294503218,21887.07360118229
5001.794306293164,20522.872316105844
5001.820318218383,18982.165928959676
5001.84633027888,17879.73677868498
5001.872342474651,17228.818583131488
5001.8983548056995,17347.555939434624
5001.924367272026,17695.07667471752
5001.9503798736305,19099.033800493
5001.976392610514,21050.80471352585
5002.002405482678,23708.06182419257
5002.028418490122,26306.953756086143
5002.054431632847,29049.559284948326
5002.080444910854,31879.313207477615
5002.106458324142,33958.44535285587
5002.1324718727155,35581.69507521279
5002.158485556572,36973.02149837094
5002.184499375713,37647.499122164234
5002.210513330139,38319.09890254924
5002.236527419852,38959.94996198007
5002.262541644852,38983.28092732437
5002.288556005138,39031.434358661056
5002.314570500714,38953.36661147816
5002.340585131577,38665.412484000146
5002.36659989773,38491.95057936926
5002.392614799174,37928.74150342019
5002.418629835909,37578.66981865663
5002.444645007936,36981.2937955645
5002.4706603152545,36268.01397216015
5002.496675757866,35488.41936798438
5002.522691335772,34511.67167266314
5002.548707048972,33464.420457582
5002.574722897468,32537.365630416643
5002.600738881259,31430.586902379615
5002.626755000347,29972.195112673246
5002.652771254732,28905.61021100957
5002.678787644415,27582.780521699926
5002.704804169397,26655.76278480802
5002.730820829678,25601.9715560939
5002.75683762526,24686.73311833831
5002.782854556142,24176.30672546721
5002.8088716223265,23903.230785504642
5002.834888823812,23946.40243932133
5002.860906160601,24721.64928585331
5002.886923632695,25962.771827699344
5002.912941240092,27913.69112226607
5002.938958982793,30374.29158213505
5002.9649768608015,32688.872341105824
5002.990994874116,34731.68028972077
5003.017013022737,36408.44858189215
5003.043031306666,37551.41544064891
5003.069049725905,38522.25043545544
5003.095068280452,39404.163021050204
5003.121086970309,39667.581375828435
5003.147105795477,39669.9297917404
5003.173124755956,39774.59934214891
5003.199143851748,39939.67894969321
5003.225163082852,39998.51729578999
5003.251182449269,39996.56058456546
5003.277201951001,39675.251163235385
5003.3032215880485,39683.768899915674
5003.32924136041,39639.556903782555
5003.35526126809,39354.482190782815
5003.381281311085,39126.89931862833
5003.407301489398,39114.96141234241
5003.433321803031,38934.71559653184
5003.459342251982,38484.17420612
5003.4853628362525,38056.41861271795
5003.511383555844,37547.550104552334
5003.537404410757,37169.06599037965
5003.563425400991,36678.32531667751
5003.589446526548,36098.75461149262
5003.615467787429,35879.37181328935
5003.641489183634,35106.74552203309
5003.667510715163,33934.45776213932
5003.693532382018,33165.583505842515
5003.719554184199,32443.785307527847
5003.745576121707,31808.63638562985
5003.771598194542,30978.82456667564
5003.797620402706,30705.961884588953
5003.823642746199,30630.86077454325
5003.849665225021,30822.953252847474
5003.875687839174,31217.981795036107
5003.901710588658,31390.472265423447
5003.927733473473,31617.764929202178
5003.953756493622,31619.151311455073
5003.979779649103,31317.029962834153
5004.005802939919,31032.46821670413
5004.031826366068,30560.12248291721
5004.057849927553,29897.089000463016
5004.083873624375,30161.02925318259
5004.109897456533,30147.80155713884
5004.135921424028,30657.75771945031
5004.161945526862,31322.865344521953
5004.187969765035,32389.432377018016
5004.213994138547,33243.31956807198
5004.240018647399,34213.94027953128
5004.266043291592,34767.46771616831
5004.292068071127,35306.23477556311
5004.318092986004,35910.52774163129
5004.344118036223,36115.93901904993
5004.370143221788,36261.787865231
5004.396168542696,36440.66579408321
5004.422193998949,36618.0924736318
5004.448219590549,37113.776558874546
5004.474245317495,37717.83556337406
5004.500271179789,38354.075584283644
5004.52629717743,38712.53884657602
5004.5523233104195,39419.32456412432
5004.578349578759,39496.88393584542
5004.604375982449,39618.901876442455
5004.630402521489,39753.05357719264
5004.656429195881,39851.956397213966
5004.682456005625,39460.57531460095
5004.708482950721,39308.58137195178
5004.734510031172,39101.23756876787
5004.760537246977,38797.04682347909
5004.7865645981365,38401.016733352764
5004.812592084652,37826.2015003164
5004.838619706525,37171.358569489494
5004.8646474637535,36471.92441823996
5004.890675356341,35654.02974993114
5004.916703384286,34572.32449263224
5004.942731547591,33631.93608140805
5004.968759846256,32558.474996272187
5004.994788280281,31583.318397173352
5005.020816849668,30639.625773418455
5005.046845554417,29484.5397572217
5005.072874394528,28687.10919317929
5005.098903370003,27581.19056928364
5005.124932480842,26520.61202610407
5005.150961727047,25822.99184463941
5005.176991108617,25299.224346729738
5005.203020625552,24859.066881874747
5005.229050277856,25166.187452615704
5005.255080065526,26117.48224560121
5005.281109988566,27396.69840333574
5005.3071400469735,28984.844372698084
5005.333170240751,30502.313183631297
5005.3592005699,31560.823996780444
5005.38523103442,32281.724940773947
5005.411261634312,32655.942905141565
5005.4372923695755,32149.964845544288
5005.463323240213,31351.06924507366
5005.489354246225,30391.41006273294
5005.515385387611,28767.92700042133
5005.541416664373,27344.97195357739
5005.567448076511,25676.759401263007
5005.593479624025,23916.32453115233
5005.619511306918,22265.69462208959
5005.645543125189,20625.979658947454
5005.671575078838,19059.343083912336
5005.697607167867,17812.422437304154
5005.723639392277,16901.847264758893
5005.749671752068,16336.405528548787
5005.77570424724,16235.842890605387
5005.8017368777955,16678.378618707986
5005.8277696437335,17501.222707579338
5005.853802545055,18371.79046354113
5005.879835581762,19269.992385438367
5005.905868753854,19982.548794233153
5005.931902061331,20010.67199792541
5005.957935504196,19982.50999602791
5005.983969082448,19163.16212186597
5006.010002796088,18160.495295643545
5006.036036645117,17259.52532892368
5006.062070629536,16031.01787032115
5006.088104749344,15025.73340183714
5006.114139004544,14423.020427419819
5006.140173395135,14161.46927536687
5006.166207921118,14653.916378068261
5006.192242582495,15729.040064644963
5006.218277379266,17545.500458466173
5006.244312311431,20070.668768058324
5006.270347378991,22815.921119709816
5006.296382581946,25645.420858136462
5006.322417920299,28494.2129751545
5006.348453394048,31232.97522686935
5006.374489003196,33362.890490225815
5006.400524747743,34782.55474538524
5006.426560627688,36398.35075550452
5006.452596643034,37465.39142687496
5006.47863279378,37931.757454276405
5006.504669079928,38197.50895127635
5006.530705501478,38403.82659530899
5006.556742058431,38460.0744445765
5006.582778750788,38529.8749090713
5006.608815578549,38537.652340922374
5006.634852541715,38450.54303407692
5006.660889640287,38490.26083384408
5006.686926874265,38428.203312547215
5006.71296424365,38298.95822674458
5006.739001748444,38055.81388107944
5006.765039388645,37926.92202338002
5006.791077164256,37670.83065535104
5006.817115075277,37436.87080093782
5006.843153121708,37217.336064803945
5006.869191303552,36650.44500182906
5006.895229620806,35778.39884292519
5006.921268073474,34789.71895347356
5006.947306661555,33738.976650421
5006.97334538505,32283.484008668755
5006.999384243961,30939.209730869512
5007.025423238286,29252.290506006757
5007.051462368028,27343.430140473854
5007.077501633187,25486.226158536647
5007.103541033764,23612.023515172554
5007.129580569759,21662.300034669406
5007.155620241173,19831.719478505667
5007.181660048007,18408.369339225064
5007.207699990262,16836.589088663277
5007.233740067937,15766.964127526457
5007.259780281035,15363.91115199351
5007.285820629555,15785.32809237678
5007.311861113499,16743.451539759255
5007.337901732866,18488.59984110767
5007.363942487658,20832.190835145426
5007.389983377876,23131.769405057246
5007.41602440352,25832.99912578248
5007.442065564591,28782.36174699822
5007.468106861089,31118.14511758884
5007.494148293015,33118.75190809981
5007.520189860371,34671.06165138129
5007.546231563156,35710.555890423275
5007.572273401372,36226.39997135688
5007.598315375018,36500.66475881851
5007.624357484096,36762.055925197325
5007.650399728607,36759.00544329842
5007.676442108551,36440.37445954451
5007.702484623929,35828.597199611744
5007.728527274741,36133.642443272634
5007.754570060989,35977.5969354884
5007.780612982673,36248.29687566641
5007.806656039793,36542.971566067026
5007.832699232351,37047.248910267605
5007.858742560347,38023.48069391749
5007.884786023782,38692.151968183425
5007.910829622656,39398.98807708856
5007.936873356971,40145.35461679175
5007.962917226726,40491.90174431715
5007.988961231923,40914.806175613754
5008.015005372563,41142.37321703531
5008.041049648646,40990.223620223354
5008.067094060171,41158.61903147141
5008.0931386071425,41140.02288715366
5008.119183289558,41019.110758266535
5008.14522810742,41428.97348599848
5008.171273060728,41442.481083339
5008.197318149483,41624.43257607833
5008.223363373687,41860.603038315516
5008.249408733339,41529.88636583773
5008.27545422844,41398.07782188574
5008.301499858992,41948.687745673815
5008.327545624995,41642.08283033926
5008.353591526448,41627.603217265954
5008.379637563355,41611.038988473614
5008.405683735714,41289.09395845058
5008.431730043527,40982.45793011711
5008.457776486794,40757.517756018395
5008.483823065515,40527.38617632946
5008.509869779693,40306.230077670036
5008.535916629327,40063.76629111252
5008.561963614418,39826.592880957694
5008.588010734968,39567.79707781219
5008.614057990975,39271.61651670666
5008.640105382442,39155.61526324303
5008.666152909369,39102.37616241042
5008.692200571756,38967.01217144019
5008.718248369605,39056.04091436622
5008.744296302916,39432.65123411404
5008.77034437169,39972.96856255257
5008.796392575927,40131.401968492966
5008.822440915628,40907.99961376923
5008.848489390794,40987.263152670464
5008.874538001426,41378.49050434967
5008.900586747524,41531.781214709416
5008.926635629089,41411.767054025935
5008.952684646122,41499.28552128738
5008.978733798623,41468.23103693661
5009.004783086593,41312.28442498715
5009.030832510033,41349.12845281331
5009.056882068944,41406.88206254345
5009.082931763326,41417.994179892914
5009.108981593179,41459.54195538186
5009.135031558506,41508.41778449905
5009.161081659306,41574.636494345796
5009.187131895579,41563.886073261194
5009.213182267327,41288.50924868772
5009.239232774552,41094.937685093544
5009.265283417251,41232.34051360687
5009.291334195428,40956.627750570566
5009.317385109083,40647.93551178456
5009.343436158216,40742.0755263458
5009.369487342828,40403.52892632449
5009.395538662919,39998.95756806081
5009.421590118491,39685.40588526568
5009.447641709544,38975.16855400205
5009.473693436078,38333.244088468964
5009.499745298095,37807.476267387225
5009.525797295596,37804.180875303005
5009.55184942858,37058.91130304025
5009.577901697049,36531.99501668488
5009.603954101003,36237.505822233405
5009.630006640443,36136.18617696167
5009.65605931537,35558.9563150301
5009.682112125784,35350.0180282039
5009.708165071686,35353.99055192917
5009.7342181530785,35302.26941496215
5009.760271369959,35574.44299964488
5009.78632472233,36048.82441798102
5009.812378210192,36230.0077656612
5009.838431833546,36130.14385627256
5009.864485592391,35995.095310702425
5009.890539486731,35452.511206558636
5009.916593516564,34663.41480544716
5009.942647681891,33506.00383696229
5009.968701982713,32293.500812697202
5009.994756419032,31024.338266480605
5010.020810990847,29841.330923527086
5010.046865698159,28523.727278681887
5010.072920540969,27350.55057930194
5010.098975519279,26628.69620583067
5010.125030633087,26078.42225698298
5010.151085882395,25860.741715688175
5010.177141267204,26090.743652169425
5010.2031967875155,26061.008484511505
5010.229252443328,26161.918524538734
5010.255308234644,26696.55674763997
5010.281364161464,27795.359282952617
5010.307420223788,28876.444998975596
5010.333476421617,30422.469368080187
5010.359532754951,32538.55307257169
5010.3855892237925,34521.341836895925
5010.4116458281405,36021.862522146694
5010.437702567997,37502.19230089977
5010.463759443362,38788.167003819144
5010.489816454236,39654.451599827
5010.51587360062,40513.18981230082
5010.541930882514,40861.163162685516
5010.56798829992,40736.62733317728
5010.5940458528385,40657.53836314801
5010.62010354127,40451.39635767282
5010.646161365214,40182.66566395029
5010.672219324672,39648.785913103835
5010.698277419646,38976.36991796268
5010.724335650135,38178.10528971348
5010.7503940161405,37206.80561696093
5010.7764525176635,36463.892677180724
5010.802511154703,35324.846454525206
5010.828569927262,34301.631307215124
5010.85462883534,33225.650595477986
5010.880687878937,32391.263501902456
5010.906747058056,31796.943471133338
5010.932806372695,31127.66219832174
5010.958865822856,30638.67998613459
5010.98492540854,31050.062202158628
5011.0109851297475,31577.70492994072
5011.0370449864795,32511.90717553517
5011.063104978735,34024.5795929333
5011.089165106517,35747.40912572012
5011.115225369825,37296.23433393716
5011.14128576866,38506.05902486243
5011.167346303022,39536.72098880605
5011.193406972913,40136.13574218908
5011.219467778333,40422.5371633012
5011.2455287192815,40798.618134754746
5011.271589795761,41059.80313705665
5011.297651007772,41361.39502088936
5011.323712355315,41497.36576097504
5011.34977383839,41340.48890811661
5011.375835456999,41217.38427582573
5011.401897211142,41142.19382611015
5011.427959100819,41437.0621691573
5011.454021126031,40797.72537745968
5011.4800832867795,40492.47762476559
5011.506145583065,40139.52883426089
5011.532208014888,39631.90961160525
5011.558270582248,38944.40721452326
5011.584333285148,38345.98709652781
5011.610396123588,37520.48370775429
5011.636459097567,36601.480515218245
5011.662522207088,35812.24186409233
5011.68858545215,34841.66071438988
5011.714648832754,33690.01199494229
5011.740712348902,32316.525659504165
5011.766776000594,30931.053331621664
5011.79283978783,29515.52289514512
5011.818903710611,28031.133186970368
5011.844967768939,26533.437504055823
5011.871031962813,25097.89402200624
5011.897096292234,23441.227755775075
5011.923160757203,21739.15926638363
5011.949225357721,20197.185805579564
5011.975290093788,18341.432693424376
5012.001354965406,16526.678246835814
5012.027419972574,14964.042266663664
5012.053485115294,13611.995658373564
5012.079550393566,12619.858773260183
5012.105615807392,12314.63262267988
5012.13168135677,12596.90551129009
5012.157747041703,13588.780903557588
5012.183812862192,14821.459140340467
5012.209878818236,16583.60211471766
5012.235944909837,18607.590030424646
5012.262011136994,20638.08215967553
5012.28807749971,22605.045845856806
5012.3141439979845,24263.13811520893
5012.340210631818,25353.270077565136
5012.366277401212,26092.385042725757
5012.392344306166,26529.45084520776
5012.418411346682,26341.835037705787
5012.44447852276,26048.649105207198
5012.470545834401,25945.080275288787
5012.496613281605,25999.18696839953
5012.522680864374,26219.512047296274
5012.548748582707,27021.62924972472
5012.574816436606,28238.571352623156
5012.600884426071,29385.82983924957
5012.626952551104,30506.145805250257
5012.653020811705,31420.14348604555
5012.679089207873,32087.52352374853
5012.705157739611,32564.633642145498
5012.73122640692,32976.04172193681
5012.757295209798,33548.854380159086
5012.7833641482475,34198.4525657097
5012.80943322227,35196.27682190784
5012.835502431864,36252.14916606486
5012.861571777033,37218.1345373221
5012.887641257775,38183.25671395308
5012.9137108740915,38767.285321627336
5012.939780625984,39229.11175665714
5012.965850513452,39516.17476608516
5012.991920536498,39226.00539467323
5013.017990695121,38659.16533042858
5013.044060989323,38021.895457513165
5013.070131419104,37511.34295620256
5013.096201984464,36667.887216801704
5013.122272685405,35773.979389828186
5013.148343521927,34531.591777390946
5013.17441449403,33124.48191214662
5013.200485601717,31962.950186976122
5013.226556844987,30712.69234651119
5013.2526282238405,29461.86723170049
5013.278699738279,28318.565229520977
5013.304771388303,27129.045963717268
5013.330843173913,26175.141925009877
5013.35691509511,25608.845020241966
5013.382987151894,25444.38158376811
5013.409059344267,25570.752996699644
5013.435131672228,25877.4802293527
5013.46120413578,26273.54227098819
5013.487276734921,26462.44931475863
5013.513349469653,26250.290970531798
5013.539422339977,25708.071461912514
5013.565495345894,24801.6521719529
5013.5915684874035,23608.74545508125
5013.617641764507,22382.881986265445
5013.643715177206,21237.04414565482
5013.6697887254995,20251.040594361224
5013.695862409389,19541.3255694758
5013.721936228875,19340.136419014605
5013.748010183958,19612.060301375157
5013.77408427464,20472.934380941882
5013.800158500921,21900.495409955038
5013.826232862801,23659.096573651106
5013.852307360281,25607.56544595422
5013.8783819933615,27360.36362129872
5013.904456762045,28610.53743824139
5013.930531666329,29503.3656942904
5013.956606706218,29620.84749721288
5013.982681881709,29304.126407881893
5014.008757192805,28615.347881975766
5014.034832639507,27663.593275198073
5014.060908221814,26461.11928795606
5014.086983939728,25241.038186850892
5014.113059793249,23619.779849400253
5014.139135782378,21994.75733106428
5014.165211907116,20351.163392317718
5014.1912881674625,18611.229171986804
5014.21736456342,17365.983370641054
5014.243441094988,16422.388396126225
5014.269517762167,16155.87260435597
5014.295594564959,16652.42976128078
