wave,flux
4450.003811362098,30739.33603038515
4450.026953690486,31183.52179612234
4450.050096139227,30993.962203504863
4450.073238708321,30626.174835158246
4450.096381397769,30258.330050340424
4450.119524207569,29350.842509491624
4450.142667137726,28204.321331525683
4450.165810188237,26953.828036650713
4450.188953359103,25418.768618977087
4450.212096650326,23376.88214610279
4450.2352400619075,21513.17759289225
4450.258383593846,19710.8642399363
4450.281527246142,17954.028439526017
4450.304671018797,16061.91636632098
4450.327814911813,14065.250455648204
4450.350958925188,12097.219261207785
4450.374103058924,10774.37089870795
4450.3972473130225,9513.252161279632
4450.420391687483,8673.819100302251
4450.443536182305,8097.866108664046
4450.466680797492,7895.025688354467
4450.489825533042,7825.704450142082
4450.512970388957,8010.586372489942
4450.536115365237,8394.217263285584
4450.559260461882,9134.554084888514
4450.582405678895,10306.31767503455
4450.605551016274,11505.570482854113
4450.628696474022,12861.132885658379
4450.651842052138,14305.970444850747
4450.674987750623,15662.457212682051
4450.698133569476,16645.919670947627
4450.721279508702,17187.73714684343
4450.744425568297,17806.24686743061
4450.767571748264,18222.983126646945
4450.790718048604,18381.752743915687
4450.813864469315,18695.937108348928
4450.837011010401,19452.830729449957
4450.86015767186,20382.41589363434
4450.883304453694,21531.36359505541
4450.906451355903,22836.476809564443
4450.929598378489,24143.26312632322
4450.95274552145,25404.604406989034
4450.975892784789,26906.338389491244
4450.999040168505,28750.503237232955
4451.022187672601,30773.61458649872
4451.045335297074,32647.029939236916
4451.068483041929,34276.7961048555
4451.091630907163,35407.92883944706
4451.114778892777,35873.92497100937
4451.137926998774,36789.734174102705
4451.161075225153,37008.74245387505
4451.184223571914,36883.58053056653
4451.207372039059,36593.935918775365
4451.230520626587,35986.697041760715
4451.253669334501,35727.464510586746
4451.2768181628,34902.31120567948
4451.299967111485,33734.29987049054
4451.323116180556,32521.94129012285
4451.346265370014,31208.293452162015
4451.369414679861,29661.410967663847
4451.392564110095,28095.567527917072
4451.415713660719,26383.317344896288
4451.438863331732,24592.36214439104
4451.462013123136,22782.77597411901
4451.48516303493,21065.729856152237
4451.508313067117,19551.47173653659
4451.531463219695,17985.48510127718
4451.554613492666,16745.371299224294
4451.577763886031,15936.940564113778
4451.60091439979,15594.735193927574
4451.624065033943,16047.11561415154
4451.647215788492,17050.373692355424
4451.670366663436,18733.0930818857
4451.693517658777,20735.766623594696
4451.716668774516,23084.812494406044
4451.739820010652,25520.893390824593
4451.762971367186,27025.41609675523
4451.78612284412,28619.12276784507
4451.8092744414525,29527.63286025055
4451.832426159187,29930.107076454016
4451.855577997321,29853.977595702283
4451.878729955857,29175.017637970526
4451.901882034796,28695.897444061844
4451.925034234137,27685.663011960074
4451.948186553881,26852.799894847132
4451.97133899403,25799.875517118482
4451.994491554583,25331.091127779484
4452.017644235542,24757.400412392883
4452.040797036907,24810.924543648824
4452.063949958678,25233.947991183642
4452.087103000857,26574.59050532051
4452.1102561634425,28070.601762056805
4452.133409446437,29633.347976644774
4452.156562849841,31415.3108339686
4452.179716373655,32778.73005868794
4452.202870017878,34095.116299610236
4452.226023782513,35169.289380534334
4452.24917766756,35969.71260347012
4452.272331673018,36429.539016489434
4452.29548579889,36610.310869300265
4452.318640045174,36635.17496037223
4452.341794411874,36431.82969818249
4452.364948898987,36078.07376414655
4452.388103506516,35505.274138507404
4452.4112582344615,34885.607011626664
4452.434413082823,34344.63880519991
4452.457568051602,33356.124334128974
4452.480723140799,32171.768313735658
4452.503878350413,31195.649595479226
4452.527033680448,29982.496549535874
4452.550189130902,28833.57655887493
4452.5733447017765,27494.90758744369
4452.596500393071,26079.029087018273
4452.619656204789,25099.223417486075
4452.642812136928,24474.181778542417
4452.66596818949,23514.057888000425
4452.689124362475,22816.524253369265
4452.7122806558855,22338.60096030611
4452.735437069719,22333.035024251516
4452.7585936039795,22597.385972898956
4452.781750258665,22811.356766479137
4452.804907033777,23400.290338165083
4452.828063929317,23926.64295491937
4452.851220945285,24818.97527557894
4452.87437808168,25448.68762540126
4452.897535338506,25982.62461048675
4452.92069271576,26129.738749434528
4452.943850213445,25987.636220221095
4452.967007831562,25671.900550942122
4452.99016557011,25081.892911947485
4453.01332342909,24454.740167158943
4453.036481408502,24113.70106225045
4453.059639508349,23786.377276848954
4453.08279772863,23930.905356823478
4453.105956069345,23932.921655569768
4453.129114530496,24389.057867717132
4453.152273112083,24921.46805971684
4453.175431814107,24935.431970200796
4453.198590636567,24480.4018266026
4453.221749579466,24023.29955268399
4453.244908642802,23320.828210221203
4453.268067826579,22604.830683200653
4453.291227130795,22180.65734066479
4453.314386555451,21932.526238141127
4453.337546100549,21745.68651793039
4453.360705766087,21957.65565599258
4453.3838655520685,22643.022371945754
4453.407025458493,24067.93808962048
4453.430185485361,26009.020606407175
4453.453345632673,27802.675291617878
4453.476505900429,29273.424242567686
4453.4996662886315,30349.557491314004
4453.52282679728,31112.48019121176
4453.545987426375,31195.330333819893
4453.569148175917,31063.975525250426
4453.592309045907,30808.167522642118
4453.615470036346,30122.060416410724
4453.638631147233,29367.12697393143
4453.661792378571,28868.48355035878
4453.684953730359,28198.64657130427
4453.708115202598,28017.14581230378
4453.731276795288,27960.69186608484
4453.754438508431,27845.50709019645
4453.777600342027,28293.311749407592
4453.800762296077,29273.419650453354
4453.82392437058,30744.094779313084
4453.847086565538,32154.346254721073
4453.870248880952,33303.646803682
4453.8934113168225,34057.40299806843
4453.916573873149,34813.7312968206
4453.939736549933,35533.68735228301
4453.962899347174,35576.11807259304
4453.986062264875,35975.17738930928
4454.009225303034,35901.81775215948
4454.032388461654,35479.42158442776
4454.055551740734,34952.9427103362
4454.078715140275,34236.50378229717
4454.101878660277,33423.46969554054
4454.125042300742,31975.861447883108
4454.14820606167,30878.1417934983
4454.171369943061,29308.85570648407
4454.194533944917,27729.631507829723
4454.2176980672375,25910.52950759529
4454.240862310024,23984.555317566406
4454.264026673275,22111.744735008848
4454.287191156994,20355.86420063628
4454.31035576118,18508.89720028885
4454.333520485834,16602.734544028008
4454.356685330957,15166.733630948025
4454.379850296548,13940.171611021497
4454.40301538261,12993.712273261706
4454.426180589142,12558.225465378051
4454.449345916145,12490.728044276286
4454.4725113636205,12901.323768883876
4454.495676931568,13658.967554462699
4454.5188426199875,14517.765725641748
4454.542008428882,15087.805826574811
4454.565174358249,15289.413776665615
4454.588340408092,15313.668281526314
4454.611506578411,14752.101075398734
4454.634672869205,13740.777504451866
4454.657839280476,12523.8327112496
4454.681005812225,11206.391625738552
4454.704172464451,9900.476182519307
4454.727339237156,8731.24365710444
4454.750506130341,8083.454545943589
4454.773673144005,7747.5067642506765
4454.79684027815,7575.030908006888
4454.820007532776,7793.143368517935
4454.843174907884,8303.759975145249
4454.866342403473,8954.927094340675
4454.889510019546,9983.335268133465
4454.912677756102,10950.230631919709
4454.935845613144,12029.234489469338
4454.959013590669,13125.58043651961
4454.982181688681,14118.229077269178
4455.005349907178,14592.717919404766
4455.028518246162,15246.21741748774
4455.051686705633,15748.700638568645
4455.074855285593,16142.051075306335
4455.098023986041,17003.35423878841
4455.121192806979,17760.758507850114
4455.144361748406,18683.294535811972
4455.167530810323,19456.474347140185
4455.190699992732,19992.957932752135
4455.213869295633,20456.382277904388
4455.237038719026,20491.994453943455
4455.260208262912,19830.924927871
4455.283377927292,19470.14986827078
4455.306547712166,19245.437402272797
4455.329717617535,19034.40355807306
4455.352887643399,19292.583554563458
4455.37605778976,20319.029261328076
4455.399228056617,21699.614921778393
4455.422398443972,23316.676251551984
4455.445568951825,25181.34053784867
4455.468739580177,27237.227631942234
4455.491910329028,28414.536927007848
4455.515081198378,29269.409591845488
4455.538252188229,29558.031755032498
4455.561423298582,29553.18667134862
4455.584594529436,28662.939179057008
4455.607765880793,27770.63624297557
4455.630937352652,26405.260096321428
4455.654108945016,24842.670646695675
4455.677280657883,23036.527702871605
4455.700452491255,21549.309695324486
4455.723624445134,19853.039738095234
4455.746796519518,18216.67037455761
4455.7699687144095,16847.24380717619
4455.793141029808,15383.242809793803
4455.816313465714,14173.143829268996
4455.83948602213,13093.002035546753
4455.862658699055,12372.935957595859
4455.885831496489,11940.941907317378
4455.909004414434,12124.147354980178
4455.932177452891,12859.884218901789
4455.955350611858,14323.262795612218
4455.978523891339,16154.8383147546
4456.001697291333,18133.17000662665
4456.024870811841,20629.056501059822
4456.048044452862,22934.729313635395
4456.071218214399,24831.301632800336
4456.094392096451,26367.243601438393
4456.117566099019,27338.10358755606
4456.140740222105,27788.75588303632
4456.163914465707,27660.378518821643
4456.187088829828,27142.371246471786
4456.210263314468,26558.145953150888
4456.233437919626,25550.531293343265
4456.256612645306,24099.461580239924
4456.279787491505,22883.55941910124
4456.302962458226,21565.44789399269
4456.326137545469,20214.94723411379
4456.349312753233,19071.704667873364
4456.372488081522,17886.08620226558
4456.395663530333,17160.8592019216
4456.41883909967,17124.66808703213
4456.442014789531,17273.521939399674
4456.465190599917,17766.068578166145
4456.488366530831,18586.38044522872
4456.5115425822705,19125.244260154836
4456.5347187542375,19458.510284962766
4456.557895046733,19816.76199899682
4456.581071459757,19914.018227507968
4456.604247993311,19622.51888295641
4456.627424647395,19530.302237146854
4456.650601422009,19775.548791425805
4456.673778317154,19984.042624500664
4456.696955332832,20859.88046583982
4456.720132469041,22598.512884629905
4456.7433097257845,24347.401544866538
4456.766487103061,26172.979556939674
4456.789664600872,27941.972439639336
4456.8128422192185,29396.22209661283
4456.8360199581,30346.48478438356
4456.859197817518,30820.431872370704
4456.882375797473,30806.636905654468
4456.905553897966,30652.78818726619
4456.928732118997,30099.08380257154
4456.951910460566,29677.072967849224
4456.975088922674,29093.844331550587
4456.998267505323,28269.44159651718
4457.021446208513,27839.040998109464
4457.044625032244,27745.470839662063
4457.067803976516,27254.911749442213
4457.090983041332,27318.201653891516
4457.1141622266905,27491.483207820565
4457.1373415325925,27724.738368631875
4457.160520959039,28013.78847915846
4457.183700506031,28455.73848644331
4457.206880173568,28388.389934073683
4457.230059961651,28035.67893388861
4457.2532398702815,27373.248457406964
4457.27641989946,26442.370538129708
4457.299600049186,25131.411256384512
4457.322780319461,23479.620731060688
4457.345960710286,21964.56663056346
4457.36914122166,20297.4558099426
4457.392321853586,18609.388953098725
4457.415502606062,17069.424482807524
4457.43868347909,15772.137379773609
4457.461864472672,15032.526916473307
4457.485045586805,14691.482980468772
4457.508226821494,14697.17197446577
4457.5314081767365,15710.421976841983
4457.554589652534,16928.869771305745
4457.577771248887,18666.743144212458
4457.600952965797,20429.32366977875
4457.624134803263,22440.705949031635
4457.647316761288,24645.26041205146
4457.67049883987,26499.999951889895
4457.693681039011,28006.692050209866
4457.716863358712,29427.11517151463
4457.7400457989725,30511.345109640268
4457.763228359793,30511.104597833266
4457.7864110411765,30248.280589314316
4457.809593843121,30279.379981616436
4457.832776765628,29768.84181664808
4457.855959808699,29260.081829204722
4457.879142972333,28336.50087650068
4457.902326256532,27703.290268272624
4457.925509661296,26959.72887609391
4457.948693186626,25730.441346624073
4457.971876832522,24390.724243927474
4457.995060598985,22971.55844555001
4458.018244486016,21501.191680142703
4458.041428493615,20266.840040780844
4458.0646126217825,18802.153747127606
4458.08779687052,17500.553061464063
4458.110981239827,16650.774607918665
4458.134165729705,15947.713377744403
4458.157350340155,15621.594070941452
4458.180535071177,16011.252648769225
4458.203719922771,16344.816996978725
4458.226904894938,16964.66455065184
4458.2500899876795,17530.701984680116
4458.273275200995,18065.987916010046
4458.296460534886,18743.062340752946
4458.3196459893525,19495.234228707737
4458.342831564396,20345.83399000905
4458.366017260016,21617.69902212523
4458.389203076214,22347.92418902781
4458.4123890129895,23455.54209807374
4458.435575070344,23773.87928558566
4458.458761248279,24159.318577599337
4458.481947546794,24126.549055132262
4458.505133965889,23987.944004450066
4458.528320505566,23602.177869906052
4458.551507165825,23470.5726528618
4458.574693946666,24013.228825359154
4458.597880848091,24936.433242912906
4458.6210678701,26276.726180453286
4458.644255012693,27620.87303697637
4458.6674422758715,29296.094470212334
4458.690629659636,30625.046440198625
4458.713817163986,31408.564631251396
4458.737004788924,31840.719583394144
4458.76019253445,31448.721358118954
4458.783380400563,30619.37222905648
4458.8065683872655,29632.35232139058
4458.829756494558,28409.7396008534
4458.85294472244,26817.268140660388
4458.876133070914,24969.613476703464
4458.899321539979,23033.787557396685
4458.922510129635,20918.958557645437
4458.945698839884,19009.25112270487
4458.968887670727,16898.732567122923
4458.992076622164,14830.773505258772
4459.015265694195,12889.018688921142
4459.0384548868215,11071.438480084342
4459.061644200044,9657.317856211579
4459.084833633862,8684.553252766791
4459.108023188278,7998.381665866656
4459.131212863292,7653.812195182475
4459.154402658904,7899.815696672375
4459.177592575114,8312.585393000045
4459.200782611925,9333.132214369267
4459.223972769336,10444.410729529784
4459.247163047347,11695.04723934978
4459.27035344596,13172.940768339093
4459.293543965176,14578.080392723536
4459.316734604993,16173.626387042104
4459.339925365414,17544.45608796195
4459.363116246439,18405.70327447279
4459.386307248069,19803.458414301866
4459.409498370304,21240.9447251542
4459.432689613145,22623.261814666712
4459.455880976592,24429.459106585007
4459.479072460647,26423.425968600914
4459.502264065309,28048.348677759896
4459.52545579058,29568.456027100354
4459.5486476364595,30407.86296091356
4459.571839602949,30749.10060089801
4459.595031690048,30737.055593975532
4459.618223897759,30147.19552114956
4459.641416226081,29677.830930787324
4459.664608675014,28950.8168519549
4459.687801244561,28510.94528480784
4459.710993934721,27441.26074039595
4459.734186745496,26826.050997918235
4459.757379676885,25997.295083421268
4459.780572728889,25654.707714833337
4459.803765901509,26072.95806430516
4459.8269591947455,26749.14764532881
4459.850152608599,27705.498408861302
4459.87334614307,28607.412894856243
4459.89653979816,29769.26132931916
4459.91973357387,30968.241158235207
4459.942927470198,31224.418645782007
4459.966121487147,31219.650487511753
4459.989315624717,30225.303800652993
4460.0125098829085,29824.75057331267
4460.035704261722,28273.022280372108
4460.058898761158,27230.962108490767
4460.082093381218,25305.166831035684
4460.105288121902,23555.8265157589
4460.12848298321,21824.53663853769
4460.151677965145,20031.341145305007
4460.1748730677045,18099.39259171469
4460.198068290891,16669.566337737953
4460.221263634704,15502.5238888063
4460.244459099145,14726.75361055541
4460.267654684215,14303.940810088936
4460.290850389914,14889.854359105744
4460.314046216243,15931.3780990146
4460.337242163202,17435.832992935746
4460.360438230791,19325.56688599916
4460.383634419013,21883.20393173645
4460.406830727867,23878.45343551466
4460.430027157354,26411.29493490752
4460.453223707474,28205.343464261816
4460.476420378228,30116.150171292815
4460.499617169617,32015.36040987303
4460.522814081641,33498.76876375043
4460.5460111143,34521.47404327036
4460.569208267598,35167.255083248885
4460.592405541532,35276.404725618
4460.615602936104,35428.76020070015
4460.638800451314,35513.254988449255
4460.661998087163,35477.99861139294
4460.685195843652,35389.576634438665
4460.708393720782,35167.051031461546
4460.731591718552,34619.293022070684
4460.754789836965,34387.87446015307
4460.777988076019,33908.35887211257
4460.801186435716,33203.641516070544
4460.824384916057,32463.622200397516
4460.847583517042,31667.370269774237
4460.870782238671,31034.716918466027
4460.893981080947,30090.145542192837
4460.917180043868,28945.93444360109
4460.940379127435,28112.582386586637
4460.963578331651,26946.066090297212
4460.986777656513,25200.76826900503
4461.009977102025,23261.454303819755
4461.033176668186,21344.609340677638
4461.056376354995,19412.626865644663
4461.079576162457,17700.53276950615
4461.102776090568,15876.597781551825
4461.125976139332,14224.527671754386
4461.149176308748,13059.177794182902
4461.172376598816,12248.135906581938
4461.195577009538,11765.413923188415
4461.218777540915,11593.321327967844
4461.241978192946,11720.311758636257
4461.265178965633,11990.744744666199
4461.2883798589755,12297.493467310711
4461.311580872974,12812.884755025085
4461.3347820076315,13159.749071551794
4461.357983262946,13335.91164001154
4461.381184638919,13198.084985681297
4461.404386135551,12938.82973380393
4461.4275877528435,12560.041875867644
4461.4507894907965,11734.972353323616
4461.4739913494095,11115.373341546847
4461.497193328685,10692.16689470354
4461.520395428623,10194.687601382573
4461.543597649224,9869.317739515014
4461.566799990488,9618.979472684174
4461.590002452416,9238.442604240747
4461.61320503501,8735.898645847998
4461.636407738269,8310.214612251886
4461.659610562193,8193.880891006145
4461.682813506784,8210.998380521407
4461.706016572044,8657.386981569198
4461.729219757971,9395.062961596383
4461.752423064566,10399.730571391952
4461.775626491831,11711.500799701073
4461.798830039766,13112.225670297785
4461.82203370837,14364.970036366263
4461.845237497647,15519.594028052246
4461.868441407595,16297.666030641976
4461.891645438215,16612.44526450959
4461.914849589509,16468.0690862673
4461.938053861475,15893.74253410027
4461.961258254117,15369.179473308634
4461.984462767433,14672.383762658601
4462.007667401424,14237.655127252494
4462.030872156092,13919.3310661418
4462.0540770314365,14225.411984754728
4462.077282027459,15085.106773219064
4462.100487144158,16376.767380298554
4462.123692381537,17782.82485290043
4462.146897739594,19385.10958882252
4462.170103218332,20876.873487544857
4462.19330881775,21781.59360984511
4462.21651453785,22597.71884094114
4462.239720378631,22776.114127794375
4462.262926340095,22637.54563143646
4462.286132422241,22307.451315268925
4462.309338625071,22100.498394294373
4462.3325449485865,21584.289578758056
4462.355751392785,20961.451212874388
4462.3789579576705,20202.940974507597
4462.402164643242,19488.323214132655
4462.4253714495,19191.898184703103
4462.448578376446,18725.53088920094
4462.471785424079,18778.584263310615
4462.494992592401,19256.586965436352
4462.518199881412,20762.977120834825
4462.541407291114,22505.540858757045
4462.564614821506,24056.190381068132
4462.587822472589,26279.312497245453
4462.611030244365,28054.234849509063
4462.634238136832,29222.479941328955
