wave,flux
5000.025812696027,74375.18800143948
5000.051815424163,75336.54278638538
5000.0778182875265,75789.17502371946
5000.103821286119,75460.46250808373
5000.12982441994,74601.31317261218
5000.155827688991,73260.36850412989
5000.181831093272,71684.61984784101
5000.207834632784,70259.54970699601
5000.2338383075285,69753.87211712182
5000.259842117506,69850.85560587641
5000.285846062716,70346.87503562422
5000.311850143161,71181.83450222175
5000.33785435884,72366.70273165288
5000.363858709754,73092.68229920436
5000.389863195905,74270.5401873058
5000.415867817292,75408.46119813947
5000.441872573917,76255.77468163254
5000.4678774657805,77485.10736351306
5000.493882492882,78441.50032611555
5000.519887655224,79006.89958744125
5000.545892952806,79935.56392862408
5000.571898385629,80877.75424597673
5000.597903953694,81866.41763092141
5000.623909657001,82234.7126077924
5000.649915495552,82287.77796414508
5000.675921469346,82397.21004759333
5000.701927578384,82131.03789564515
5000.727933822669,81926.77475921839
5000.7539402021985,81317.11866457622
5000.779946716975,80359.38860977096
5000.805953366999,79134.46740956511
5000.831960152272,77574.80184124828
5000.857967072792,75328.2627827274
5000.883974128563,72632.10325075052
5000.9099813195835,69789.45913947914
5000.935988645855,67303.19416166296
5000.961996107378,65924.15728949041
5000.988003704153,65061.30065056041
5001.014011436181,64397.41657360301
5001.040019303464,65017.00536936868
5001.066027306,65436.45813491706
5001.092035443791,66175.89233779215
5001.118043716839,66552.30227565988
5001.1440521251425,66202.98420852078
5001.170060668704,65096.13067355419
5001.196069347523,63439.53614027748
5001.222078161601,61217.28189018223
5001.248087110937,58093.08574060645
5001.274096195534,54342.902580593916
5001.300105415392,50899.60180731648
5001.326114770512,48103.80377779399
5001.352124260892,46060.71071848815
5001.3781338865365,45270.131694937096
5001.4041436474445,45783.88577912578
5001.430153543616,47607.19900492345
5001.456163575053,50229.328185095954
5001.482173741756,53580.95155604191
5001.508184043724,57444.27862556614
5001.534194480961,61420.401916938914
5001.560205053464,65401.12523881536
5001.586215761236,68426.51361251558
5001.612226604278,71708.8451963262
5001.638237582589,74925.27057753487
5001.664248696171,77352.04648430145
5001.690259945024,79412.18264353395
5001.716271329149,81204.71242343576
5001.742282848547,82530.42186406045
5001.768294503218,83509.47749427275
5001.794306293164,84174.03865887561
5001.820318218383,84888.5506249559
5001.84633027888,85661.94693299584
5001.872342474651,85780.70097732231
5001.8983548056995,85506.28869376186
5001.924367272026,85078.49619453316
5001.9503798736305,85211.00228935663
5001.976392610514,85061.1626335467
5002.002405482678,84654.64668142668
5002.028418490122,84163.40967128267
5002.054431632847,83504.95181292137
5002.080444910854,82652.24623628451
5002.106458324142,81494.42728448584
5002.1324718727155,79934.34398593675
5002.158485556572,78025.34471388541
5002.184499375713,75825.36796387623
5002.210513330139,73343.74044718394
5002.236527419852,70895.82557525157
5002.262541644852,69005.88472243628
5002.288556005138,67392.40843787427
5002.314570500714,67451.09845802824
5002.340585131577,68330.05123009691
5002.36659989773,69843.72872976052
5002.392614799174,71518.04671979445
5002.418629835909,73239.98966522067
5002.444645007936,75267.31045799714
5002.4706603152545,77571.78058522036
5002.496675757866,79263.15408347972
5002.522691335772,80434.27868585475
5002.548707048972,81778.9424095065
5002.574722897468,83046.61111794745
5002.600738881259,83965.46228299743
5002.626755000347,84827.50344797377
5002.652771254732,85453.94624894616
5002.678787644415,85771.53056543313
5002.704804169397,86258.37379233925
5002.730820829678,86485.4225370481
5002.75683762526,86691.91493619494
5002.782854556142,86535.0129187214
5002.8088716223265,86705.13761430723
5002.834888823812,86773.85615575117
5002.860906160601,86894.27494517516
5002.886923632695,86889.75433332591
5002.912941240092,86292.26739868111
5002.938958982793,86588.38977065659
5002.9649768608015,86715.57475295349
5002.990994874116,86601.39050633498
5003.017013022737,86618.46052204481
5003.043031306666,86319.17907392344
5003.069049725905,86257.68892924598
5003.095068280452,85870.39583785439
5003.121086970309,85703.55624069314
5003.147105795477,85206.23403148148
5003.173124755956,85057.2523929893
5003.199143851748,84327.70827757966
5003.225163082852,83759.17879701193
5003.251182449269,83254.5315552778
5003.277201951001,83228.65943798026
5003.3032215880485,83061.15663819123
5003.32924136041,82645.25401679409
5003.35526126809,82559.54254104165
5003.381281311085,82012.97909635313
5003.407301489398,81116.03465190818
5003.433321803031,80459.58054376149
5003.459342251982,79579.76597765813
5003.4853628362525,78225.25928903285
5003.511383555844,77112.55059802493
5003.537404410757,76617.92237737929
5003.563425400991,76096.7669546482
5003.589446526548,75565.69072858954
5003.615467787429,75674.8707661723
5003.641489183634,76303.10084748232
5003.667510715163,76931.26357344813
5003.693532382018,77369.35916594874
5003.719554184199,78252.62792914342
5003.745576121707,79266.40914892522
5003.771598194542,80263.29962052015
5003.797620402706,81128.14195664921
5003.823642746199,81995.75830558804
5003.849665225021,82417.14995708533
5003.875687839174,82937.95691757814
5003.901710588658,83587.9263692764
5003.927733473473,84140.34923007985
5003.953756493622,84770.56934490707
5003.979779649103,84978.51909163615
5004.005802939919,85371.23279249319
5004.031826366068,86100.11099468418
5004.057849927553,86236.50564358107
5004.083873624375,86159.6269814797
5004.109897456533,86600.8113451139
5004.135921424028,86898.48140756368
5004.161945526862,86708.66109166472
5004.187969765035,86867.92407633002
5004.213994138547,86968.41516184583
5004.240018647399,86860.59734810708
5004.266043291592,86385.41090882664
5004.292068071127,86315.24419897169
5004.318092986004,85846.37864911917
5004.344118036223,85264.13072358021
5004.370143221788,84776.98980232599
5004.396168542696,83989.17435058045
5004.422193998949,83462.9949908614
5004.448219590549,82579.17685606799
5004.474245317495,80970.46290989609
5004.500271179789,79355.42985585466
5004.52629717743,77149.78584005972
5004.5523233104195,74268.60588063224
5004.578349578759,71190.29746900205
5004.604375982449,68267.71909618733
5004.630402521489,65850.29679690658
5004.656429195881,64267.58263349901
5004.682456005625,64081.52478902988
5004.708482950721,64379.326657413876
5004.734510031172,65391.828665577355
5004.760537246977,67453.74045470526
5004.7865645981365,69579.05045403016
5004.812592084652,71288.36104223022
5004.838619706525,73373.82295681376
5004.8646474637535,75285.77629751111
5004.890675356341,75908.60584798112
5004.916703384286,76213.92850012197
5004.942731547591,76634.5956627588
5004.968759846256,76083.53836153563
5004.994788280281,75056.44705616041
5005.020816849668,73069.6668621714
5005.046845554417,70110.92388202462
5005.072874394528,66627.45042632203
5005.098903370003,62838.47319576742
5005.124932480842,58396.52098776577
5005.150961727047,54710.7244558322
5005.176991108617,51361.98511717633
5005.203020625552,49106.527988630725
5005.229050277856,48477.08228274464
5005.255080065526,48614.64715431439
5005.281109988566,49537.602160518014
5005.3071400469735,51069.97821700274
5005.333170240751,52706.8263761945
5005.3592005699,54288.39500450008
5005.38523103442,55189.116321138696
5005.411261634312,55306.7205848317
5005.4372923695755,54840.57838471815
5005.463323240213,53065.66024842448
5005.489354246225,50748.95853667964
5005.515385387611,47992.46308888954
5005.541416664373,45276.008316906235
5005.567448076511,43210.589323313114
5005.593479624025,41461.981813835424
5005.619511306918,40949.58541257473
5005.645543125189,41704.77121953807
5005.671575078838,43307.7675751616
5005.697607167867,46049.830950413125
5005.723639392277,49775.694014029585
5005.749671752068,53764.617388595565
5005.77570424724,57579.14378538599
5005.8017368777955,61590.218423268816
5005.8277696437335,65556.71398375397
5005.853802545055,68983.94441809351
5005.879835581762,72194.09501579235
5005.905868753854,75118.31235217287
5005.931902061331,77447.46894308947
5005.957935504196,79358.95165418884
5005.983969082448,80676.87239490483
5006.010002796088,81935.66173994138
5006.036036645117,82757.0577913834
5006.062070629536,84101.71412682653
5006.088104749344,84254.43548133476
5006.114139004544,84857.66558362558
5006.140173395135,85051.5837303115
5006.166207921118,85210.6512741115
5006.192242582495,84927.07323302775
5006.218277379266,85130.4662160881
5006.244312311431,85132.72668839853
5006.270347378991,84530.55557707338
5006.296382581946,84296.30195256398
5006.322417920299,84419.75696331388
5006.348453394048,84202.56036232084
5006.374489003196,83943.24132494783
5006.400524747743,83498.58819162093
5006.426560627688,82314.45039196374
5006.452596643034,81242.4019566928
5006.47863279378,80387.11831990836
5006.504669079928,78909.80650257682
5006.530705501478,76663.43432076497
5006.556742058431,73692.55625404853
5006.582778750788,70489.5731201092
5006.608815578549,66649.47961607858
5006.634852541715,62147.66732090259
5006.660889640287,57736.35561342672
5006.686926874265,53775.82614241385
5006.71296424365,50726.34526685065
5006.739001748444,48570.24083828188
5006.765039388645,48051.64379201698
5006.791077164256,48833.09171493431
5006.817115075277,50505.16590178207
5006.843153121708,53115.575505958266
5006.869191303552,56625.17975697767
5006.895229620806,60260.138305464265
5006.921268073474,63848.46000141168
5006.947306661555,67504.82568472472
5006.97334538505,70533.47190567362
5006.999384243961,73546.49347298263
5007.025423238286,76093.49890239109
5007.051462368028,78017.46643875551
5007.077501633187,79438.52805181532
5007.103541033764,80862.05221933112
5007.129580569759,81328.43885729297
5007.155620241173,81597.52107417381
5007.181660048007,81883.64267713495
5007.207699990262,81937.00876489382
5007.233740067937,82504.51127583804
5007.259780281035,82555.50583145386
5007.285820629555,82895.21155565191
5007.311861113499,83768.38179412649
5007.337901732866,84677.17233323866
5007.363942487658,85108.89974227654
5007.389983377876,85393.71173131285
5007.41602440352,85948.92530981891
5007.442065564591,86309.00187217623
5007.468106861089,86630.0788387008
5007.494148293015,87124.91579106344
5007.520189860371,87165.3173914155
5007.546231563156,87219.36650670147
5007.572273401372,87438.8128820136
5007.598315375018,87682.0830197978
5007.624357484096,87714.06058853737
5007.650399728607,88017.86789282614
5007.676442108551,88098.58087966725
5007.702484623929,88227.31498494888
5007.728527274741,88017.41901218552
5007.754570060989,87943.34526477903
5007.780612982673,88217.8893206992
5007.806656039793,88403.68269850143
5007.832699232351,88218.55057288281
5007.858742560347,88578.86803206992
5007.884786023782,88698.5288223212
5007.910829622656,88448.65005604847
5007.936873356971,88404.62753398446
5007.962917226726,88355.50554117207
5007.988961231923,88050.76634956902
5008.015005372563,87638.45403426759
5008.041049648646,87361.63221118767
5008.067094060171,87222.57708474476
5008.0931386071425,86862.35845795326
5008.119183289558,86473.87006328964
5008.14522810742,86524.36309644576
5008.171273060728,86140.06232319037
5008.197318149483,85806.3488943475
5008.223363373687,86535.91250382607
5008.249408733339,86655.74476987068
5008.27545422844,86491.16269235311
5008.301499858992,87297.40116920852
5008.327545624995,87516.84767795303
5008.353591526448,87734.53417244532
5008.379637563355,87153.29980738518
5008.405683735714,87623.5383257841
5008.431730043527,87572.2605345205
5008.457776486794,87551.81849741864
5008.483823065515,87644.94623755263
5008.509869779693,87655.77244947304
5008.535916629327,87541.41081703812
5008.561963614418,87554.02650784726
5008.588010734968,88070.39926359047
5008.614057990975,88489.91788006762
5008.640105382442,88320.59129351242
5008.666152909369,88145.62442603505
5008.692200571756,88312.4695381956
5008.718248369605,88226.7588318496
5008.744296302916,88322.53531008131
5008.77034437169,88215.60615989285
5008.796392575927,88094.207758383
5008.822440915628,88349.92519398396
5008.848489390794,88155.48672145022
5008.874538001426,88159.68580479953
5008.900586747524,88210.32574977049
5008.926635629089,88285.23119036916
5008.952684646122,87917.2618057812
5008.978733798623,87541.99574833582
5009.004783086593,87484.64385248206
5009.030832510033,87778.62176601576
5009.056882068944,87353.64094486489
5009.082931763326,87071.81734952584
5009.108981593179,86851.23409055719
5009.135031558506,86368.50271714652
5009.161081659306,86363.00289362836
5009.187131895579,86403.50832949221
5009.213182267327,86393.21190923497
5009.239232774552,86423.64683310321
5009.265283417251,86174.41082481139
5009.291334195428,86161.18115873363
5009.317385109083,85615.19930347607
5009.343436158216,85140.61821650775
5009.369487342828,84702.81571640333
5009.395538662919,83849.40133898372
5009.421590118491,82948.9407210621
5009.447641709544,81499.56255659633
5009.473693436078,79820.76014922681
5009.499745298095,78060.62331716262
5009.525797295596,76302.47813550274
5009.55184942858,74207.99366985928
5009.577901697049,71498.48822518169
5009.603954101003,69576.55512674306
5009.630006640443,66680.3924598561
5009.65605931537,64191.3041956503
5009.682112125784,62538.167777108334
5009.708165071686,62062.300991821976
5009.7342181530785,62313.54384564175
5009.760271369959,63437.413961160804
5009.78632472233,65461.70883254938
5009.812378210192,67763.57111076017
5009.838431833546,70202.91307075725
5009.864485592391,72788.49432531018
5009.890539486731,75435.49600686524
5009.916593516564,77939.93357778431
5009.942647681891,79969.23654543636
5009.968701982713,81392.28833590161
5009.994756419032,82934.37209636746
5010.020810990847,84293.31811468689
5010.046865698159,85278.48177553197
5010.072920540969,86011.4516689515
5010.098975519279,86415.6763416729
5010.125030633087,86588.19621000484
5010.151085882395,87300.66726852268
5010.177141267204,87555.41357072609
5010.2031967875155,86949.51925930989
5010.229252443328,86544.1615397204
5010.255308234644,86217.04875765313
5010.281364161464,85394.63781671027
5010.307420223788,84611.0416034386
5010.333476421617,83268.8451605187
5010.359532754951,81593.58141088499
5010.3855892237925,80063.86356051292
5010.4116458281405,79058.36196300956
5010.437702567997,78600.82407553794
5010.463759443362,78356.11505385081
5010.489816454236,78461.51394171953
5010.51587360062,79125.14033725366
5010.541930882514,80314.95333128133
5010.56798829992,81707.10208149895
5010.5940458528385,82618.66775807439
5010.62010354127,83547.24384578351
5010.646161365214,84805.37093253853
5010.672219324672,85156.3006228669
5010.698277419646,86055.5951331294
5010.724335650135,86341.58549401072
5010.7503940161405,86662.04621833653
5010.7764525176635,86918.72333486799
5010.802511154703,87354.60187619289
5010.828569927262,87729.95358392033
5010.85462883534,87848.49979636181
5010.880687878937,87938.77368764192
5010.906747058056,88110.75679002589
5010.932806372695,88169.044979354
5010.958865822856,88420.17566104021
5010.98492540854,88467.24998591332
5011.0109851297475,88279.21682292987
5011.0370449864795,87816.46461793495
5011.063104978735,87366.28568194398
5011.089165106517,86833.68570289474
5011.115225369825,86445.7492190262
5011.14128576866,86105.07312247514
5011.167346303022,85338.86913430381
5011.193406972913,84473.55567143447
5011.219467778333,83463.40158515016
5011.2455287192815,82227.18430944115
5011.271589795761,80899.77668996861
5011.297651007772,79059.24752221505
5011.323712355315,77188.61084569215
5011.34977383839,75001.69557333691
5011.375835456999,71963.78932535982
5011.401897211142,68390.51787858675
5011.427959100819,64141.17693192941
5011.454021126031,59281.50593644854
5011.4800832867795,55086.50322057225
5011.506145583065,50590.52175250406
5011.532208014888,47002.29412342574
5011.558270582248,44631.928045759145
5011.584333285148,43472.28992110822
5011.610396123588,43309.76073903058
5011.636459097567,44428.03815744143
5011.662522207088,46910.839581236374
5011.68858545215,49721.26390988344
5011.714648832754,53038.3919070428
5011.740712348902,56568.086953085294
5011.766776000594,59909.292690838476
5011.79283978783,62771.577337536255
5011.818903710611,64428.53086004832
5011.844967768939,65526.93450518347
5011.871031962813,66726.54541164651
5011.897096292234,67181.41223276166
5011.923160757203,67320.50450535199
5011.949225357721,68233.96368987694
5011.975290093788,69409.91364585015
5012.001354965406,70803.26539779718
5012.027419972574,72569.0094121462
5012.053485115294,73835.45521322984
5012.079550393566,74850.35092423225
5012.105615807392,75913.43806177059
5012.13168135677,76473.49613896153
5012.157747041703,76586.6079764436
5012.183812862192,77465.13000894454
5012.209878818236,78098.76567186351
5012.235944909837,78681.42977418556
5012.262011136994,79870.51454540386
5012.28807749971,80681.95034636986
5012.3141439979845,81721.4956839649
5012.340210631818,82760.49627274468
5012.366277401212,83180.64659867197
5012.392344306166,84097.10332337032
5012.418411346682,84492.10294325791
5012.44447852276,85225.9080098681
5012.470545834401,85474.93794330767
5012.496613281605,85706.35821115694
5012.522680864374,86049.33562969769
5012.548748582707,85636.16923661537
5012.574816436606,85409.90791132092
5012.600884426071,84861.465671716
5012.626952551104,84035.42854735476
5012.653020811705,83114.01026051072
5012.679089207873,81589.04626025607
5012.705157739611,79459.18412684066
5012.73122640692,77378.18952875526
5012.757295209798,75261.71622441341
5012.7833641482475,73251.61169127641
5012.80943322227,71993.65265103056
5012.835502431864,70898.74702723585
5012.861571777033,70424.08983180315
5012.887641257775,70626.30204073075
5012.9137108740915,70648.61957209052
5012.939780625984,70641.32024292408
5012.965850513452,69726.02663840688
5012.991920536498,68786.86617482881
5013.017990695121,66888.26788090015
5013.044060989323,64398.10933977531
5013.070131419104,61064.71578613019
5013.096201984464,57763.73361693268
5013.122272685405,54270.82619461756
5013.148343521927,52278.09689321602
5013.17441449403,50338.59164604525
5013.200485601717,49615.08906088438
5013.226556844987,50484.59371411905
5013.2526282238405,52495.62882220093
5013.278699738279,55222.708375305236
5013.304771388303,58538.19411839767
5013.330843173913,61752.75685195236
5013.35691509511,64417.318438821
5013.382987151894,67249.42759834202
5013.409059344267,69967.7899899851
5013.435131672228,72206.38165489664
5013.46120413578,73858.77993206894
5013.487276734921,75241.86549357431
5013.513349469653,76110.75844986466
5013.539422339977,75869.38782828266
5013.565495345894,75019.88566292044
5013.5915684874035,73716.42460393657
5013.617641764507,71495.70103640572
5013.643715177206,68732.57240179922
5013.6697887254995,65803.72542907216
5013.695862409389,63026.95161904318
5013.721936228875,60826.143627658224
5013.748010183958,59378.12101800395
5013.77408427464,59293.06396310036
5013.800158500921,60297.9944054397
5013.826232862801,62027.902284008225
5013.852307360281,64075.49898077024
5013.8783819933615,66981.68830957326
5013.904456762045,69716.29035928586
5013.930531666329,72033.55210579255
5013.956606706218,74422.42877183824
5013.982681881709,76816.68362438482
5014.008757192805,78183.05487806683
5014.034832639507,79496.12692657037
5014.060908221814,80528.60049398773
5014.086983939728,81340.79272226966
5014.113059793249,81395.56847302204
5014.139135782378,81197.80056038541
5014.165211907116,80570.12551768623
5014.1912881674625,79653.69269724474
5014.21736456342,78114.68719467717
5014.243441094988,76111.20587317429
5014.269517762167,73550.67123797256
5014.295594564959,69964.22935833303
5014.321671503363,66058.35964475376
5014.347748577381,62010.00497336511
5014.373825787014,58156.889773460854
5014.399903132261,54859.328357431325
5014.425980613125,52728.784459187205
5014.4520582296045,52024.173983320055
5014.478135981701,52541.50215596315
