wave,flux
4450.003811362098,27870.116686553138
4450.026953690486,26584.67479217791
4450.050096139227,26280.768390689333
4450.073238708321,27182.89769071155
4450.096381397769,29224.941109412805
4450.119524207569,32216.74280259583
4450.142667137726,35776.16502250709
4450.165810188237,39492.67213948179
4450.188953359103,43732.470043872745
4450.212096650326,47251.76482987082
4450.2352400619075,50904.00963846821
4450.258383593846,54449.01787130992
4450.281527246142,57191.205846994795
4450.304671018797,59847.62851995449
4450.327814911813,62218.92473335214
4450.350958925188,64873.98842824661
4450.374103058924,67044.73430065728
4450.3972473130225,68642.85364929632
4450.420391687483,70086.92418664198
4450.443536182305,71900.51407413933
4450.466680797492,73585.39862056052
4450.489825533042,75394.37834376581
4450.512970388957,77600.18988643523
4450.536115365237,80031.21510828302
4450.559260461882,81862.89455346482
4450.582405678895,83467.80611705391
4450.605551016274,85158.11401716457
4450.628696474022,86780.24955327039
4450.651842052138,87612.31703874402
4450.674987750623,88395.3145245514
4450.698133569476,89335.52507468361
4450.721279508702,89561.53528606331
4450.744425568297,89513.86836509731
4450.767571748264,89528.72385306068
4450.790718048604,89143.63926836965
4450.813864469315,88631.64694329354
4450.837011010401,88334.14362336288
4450.86015767186,87203.79590665056
4450.883304453694,86119.82175276229
4450.906451355903,84582.72669030074
4450.929598378489,82446.06915383389
4450.95274552145,80047.84830007094
4450.975892784789,76437.95078860271
4450.999040168505,72571.21686309543
4451.022187672601,68378.12650926827
4451.045335297074,63882.567444765686
4451.068483041929,59718.985627682705
4451.091630907163,56259.74035984524
4451.114778892777,54430.039339135205
4451.137926998774,53663.330890903846
4451.161075225153,54281.1238037646
4451.184223571914,56708.80457507635
4451.207372039059,59599.06197750477
4451.230520626587,62905.75180212932
4451.253669334501,66551.026867006
4451.2768181628,70404.89549715225
4451.299967111485,73508.55592094109
4451.323116180556,76431.36063747827
4451.346265370014,78829.71012598203
4451.369414679861,80727.81665832888
4451.392564110095,82285.66089752484
4451.415713660719,83796.35795184884
4451.438863331732,84019.92101871083
4451.462013123136,83548.01546198
4451.48516303493,83775.85032463944
4451.508313067117,83109.94397429618
4451.531463219695,82313.28230342912
4451.554613492666,82653.83596615333
4451.577763886031,82641.64566454712
4451.60091439979,82491.34561549491
4451.624065033943,82991.07394538648
4451.647215788492,83993.15646530109
4451.670366663436,84867.73781002383
4451.693517658777,85630.47797767007
4451.716668774516,86427.99537927085
4451.739820010652,87134.52241543523
4451.762971367186,88016.94895916064
4451.78612284412,88716.49607318896
4451.8092744414525,89345.87207744412
4451.832426159187,89936.72727109758
4451.855577997321,90737.21698493161
4451.878729955857,90236.79720955441
4451.901882034796,90206.15536062792
4451.925034234137,90696.22608276454
4451.948186553881,90219.68449326321
4451.97133899403,90543.41938753292
4451.994491554583,89740.90064023646
4452.017644235542,89012.2826257978
4452.040797036907,88251.35848770017
4452.063949958678,87178.83437993388
4452.087103000857,86570.02897781231
4452.1102561634425,85229.49595044229
4452.133409446437,83710.01626975792
4452.156562849841,82810.76898466802
4452.179716373655,82167.61845256944
4452.202870017878,81537.80434316305
4452.226023782513,80645.01235247322
4452.24917766756,80223.17995699297
4452.272331673018,79981.1970311229
4452.29548579889,79817.33094704045
4452.318640045174,80293.52844779936
4452.341794411874,81187.12872876372
4452.364948898987,81672.84972565334
4452.388103506516,82032.02598240938
4452.4112582344615,82558.55015595822
4452.434413082823,82539.78087620213
4452.457568051602,82038.58594005046
4452.480723140799,81326.37077096161
4452.503878350413,80370.62066850773
4452.527033680448,79648.1431059055
4452.550189130902,79299.23679419263
4452.5733447017765,79420.15870385649
4452.596500393071,79813.74959831426
4452.619656204789,79915.71772612796
4452.642812136928,80309.42442637803
4452.66596818949,80663.68483754258
4452.689124362475,80576.57146326291
4452.7122806558855,80473.59741949894
4452.735437069719,80111.4986826494
4452.7585936039795,78642.41874832145
4452.781750258665,77263.22717692873
4452.804907033777,75662.80978258987
4452.828063929317,73887.89908598481
4452.851220945285,72931.4266119005
4452.87437808168,71826.70495036486
4452.897535338506,72851.47970007014
4452.92069271576,73719.79089108517
4452.943850213445,75194.09962378246
4452.967007831562,77018.97145706404
4452.99016557011,78822.285799426
4453.01332342909,80252.24562367884
4453.036481408502,82092.29137357048
4453.059639508349,83499.66014423357
4453.08279772863,84450.42722554451
4453.105956069345,85357.09538498186
4453.129114530496,85283.77995147371
4453.152273112083,85344.27063374595
4453.175431814107,84919.33488088941
4453.198590636567,84193.85110692409
4453.221749579466,83593.76104789486
4453.244908642802,83031.30746406461
4453.268067826579,83088.4357367002
4453.291227130795,83827.14302451098
4453.314386555451,84374.2877149981
4453.337546100549,84378.22601665182
4453.360705766087,85278.51081345139
4453.3838655520685,86285.1890508524
4453.407025458493,86545.27551745535
4453.430185485361,87197.74971541185
4453.453345632673,87922.01383312634
4453.476505900429,88652.64076073821
4453.4996662886315,89210.65571168557
4453.52282679728,89332.23364413525
4453.545987426375,89450.01542524762
4453.569148175917,89166.03753488458
4453.592309045907,88773.0265274366
4453.615470036346,88733.10255023223
4453.638631147233,88740.39240586026
4453.661792378571,87703.3259983011
4453.684953730359,86533.3027805861
4453.708115202598,85546.56593602606
4453.731276795288,83719.83821283416
4453.754438508431,81341.6016829777
4453.777600342027,78400.21921959685
4453.800762296077,74602.29280824796
4453.82392437058,70491.12368635881
4453.847086565538,65316.068188023215
4453.870248880952,60793.007084072524
4453.8934113168225,56434.18760489221
4453.916573873149,53211.78289539126
4453.939736549933,51084.58507437165
4453.962899347174,50485.94150113646
4453.986062264875,50942.494815079706
4454.009225303034,52604.72235748683
4454.032388461654,53819.466750309446
4454.055551740734,54556.08316391548
4454.078715140275,55538.46700819456
4454.101878660277,55884.40313625501
4454.125042300742,54797.411330830655
4454.14820606167,52819.26787399255
4454.171369943061,49831.941495633946
4454.194533944917,46480.9245430517
4454.2176980672375,42483.45952059894
4454.240862310024,38536.46139160579
4454.264026673275,35011.20823326846
4454.287191156994,32503.54158636045
4454.31035576118,30678.520521383405
4454.333520485834,29828.117409347487
4454.356685330957,29799.022199176685
4454.379850296548,31130.386679059222
4454.40301538261,33414.10040226803
4454.426180589142,35963.43541571881
4454.449345916145,38743.209850994324
4454.4725113636205,41398.154514539194
4454.495676931568,43367.96616196982
4454.5188426199875,45334.95095578741
4454.542008428882,46994.639456070625
4454.565174358249,48892.82599528528
4454.588340408092,51513.04669190189
4454.611506578411,54347.87479626621
4454.634672869205,57253.7975539585
4454.657839280476,60136.71609118344
4454.681005812225,62475.46606270635
4454.704172464451,63770.245513729235
4454.727339237156,63958.96021693567
4454.750506130341,63571.910330519924
4454.773673144005,62638.17713963405
4454.79684027815,61107.167029988974
4454.820007532776,59975.12514174521
4454.843174907884,59800.03110593509
4454.866342403473,60466.36732888687
4454.889510019546,62127.934960261446
4454.912677756102,64554.28202970332
4454.935845613144,67211.55052666178
4454.959013590669,70227.16276932537
4454.982181688681,73165.89691361038
4455.005349907178,75384.43762416803
4455.028518246162,77237.3461965903
4455.051686705633,79249.35963609492
4455.074855285593,80986.57770544672
4455.098023986041,82043.28964877663
4455.121192806979,81795.01909193069
4455.144361748406,81668.67282004043
4455.167530810323,80884.76759671727
4455.190699992732,79510.48530465321
4455.213869295633,77733.36888538557
4455.237038719026,75186.13203254486
4455.260208262912,72372.16757333762
4455.283377927292,68424.84209683067
4455.306547712166,63922.60224444084
4455.329717617535,59246.19617866533
4455.352887643399,54158.50010045901
4455.37605778976,49540.54790254588
4455.399228056617,46335.08546623516
4455.422398443972,43906.57812136148
4455.445568951825,43341.127088740766
4455.468739580177,44468.48289946812
4455.491910329028,46609.94405075546
4455.515081198378,49809.804809213216
4455.538252188229,53655.44538776612
4455.561423298582,57731.723103035416
4455.584594529436,62007.555960954436
4455.607765880793,65622.4089424097
4455.630937352652,69531.98588355927
4455.654108945016,72575.75633336531
4455.677280657883,75393.96329278292
4455.700452491255,77097.35798470116
4455.723624445134,78638.95065247934
4455.746796519518,79295.5725817118
4455.7699687144095,78905.04065329183
4455.793141029808,78307.5615539454
4455.816313465714,77122.51115510883
4455.83948602213,75402.16032999053
4455.862658699055,73881.20780946722
4455.885831496489,72290.79877718267
4455.909004414434,71742.57711621618
4455.932177452891,71539.1833628756
4455.955350611858,71673.91723790189
4455.978523891339,71700.2510166014
4456.001697291333,71271.27697748697
4456.024870811841,71509.7046199292
4456.048044452862,71381.33567831994
4456.071218214399,69474.30368892277
4456.094392096451,67537.34027722034
4456.117566099019,65310.24461232878
4456.140740222105,63091.2604050354
4456.163914465707,61497.772644545155
4456.187088829828,60678.88414083795
4456.210263314468,60868.00744608304
4456.233437919626,62344.91953356333
4456.256612645306,64440.69219097828
4456.279787491505,66675.10445716797
4456.302962458226,70002.02964278238
4456.326137545469,72628.05941409705
4456.349312753233,74792.62304216909
4456.372488081522,76805.14740854515
4456.395663530333,78406.23770059431
4456.41883909967,80099.24851592405
4456.442014789531,81247.13545477111
4456.465190599917,81926.61044129732
4456.488366530831,82019.4802705829
4456.5115425822705,81957.65106406531
4456.5347187542375,81755.49307049687
4456.557895046733,81393.76242345442
4456.581071459757,81484.06539552381
4456.604247993311,81525.89911017787
4456.627424647395,81795.1059094816
4456.650601422009,82136.59008502409
4456.673778317154,82530.4259698202
4456.696955332832,83006.62331676336
4456.720132469041,83420.28012933432
4456.7433097257845,83643.20517909709
4456.766487103061,83054.31621552257
4456.789664600872,82148.68858619966
4456.8128422192185,81022.1470585689
4456.8360199581,79192.51184331122
4456.859197817518,76338.59152830277
4456.882375797473,73195.91038650596
4456.905553897966,69664.71322988084
4456.928732118997,65977.75799201486
4456.951910460566,62472.10349314462
4456.975088922674,59777.856071009184
4456.998267505323,58171.546402943575
4457.021446208513,57598.692217904354
4457.044625032244,57381.838476073885
4457.067803976516,58137.58871642268
4457.090983041332,59688.532339773
4457.1141622266905,61973.26939327925
4457.1373415325925,65095.002813264546
4457.160520959039,68015.88794400817
4457.183700506031,70999.20097199513
4457.206880173568,74097.87869421854
4457.230059961651,76844.02268366543
4457.2532398702815,78269.24046864611
4457.27641989946,80260.31071754785
4457.299600049186,81783.37073968796
4457.322780319461,82688.84327403702
4457.345960710286,83312.78304610515
4457.36914122166,84122.28696567749
4457.392321853586,84194.94327920627
4457.415502606062,84125.15496903482
4457.43868347909,83968.09539993029
4457.461864472672,82529.35047858435
4457.485045586805,81515.55180096815
4457.508226821494,79732.89563547705
4457.5314081767365,77227.9085544226
4457.554589652534,74650.90895784894
4457.577771248887,71688.89538517405
4457.600952965797,68809.85147683581
4457.624134803263,66705.92829821177
4457.647316761288,65549.0779745596
4457.67049883987,64210.26947491356
4457.693681039011,63400.11642984184
4457.716863358712,62822.692992383294
4457.7400457989725,62598.242099516065
4457.763228359793,62387.04017743598
4457.7864110411765,62304.07384964675
4457.809593843121,63372.652158967154
4457.832776765628,65017.33570998363
4457.855959808699,67166.91653593066
4457.879142972333,69243.55600768438
4457.902326256532,71386.62938402158
4457.925509661296,73347.59301172482
4457.948693186626,74716.3394867766
4457.971876832522,75550.3910104485
4457.995060598985,75189.29594413792
4458.018244486016,75072.20384133427
4458.041428493615,75261.8849326905
4458.0646126217825,75415.82074429073
4458.08779687052,75740.14520292205
4458.110981239827,75704.68273728588
4458.134165729705,77007.75072037516
4458.157350340155,78778.06837660848
4458.180535071177,80152.50888745161
4458.203719922771,81349.25440645087
4458.226904894938,82439.7465366081
4458.2500899876795,83237.31027898438
4458.273275200995,83797.84124312722
4458.296460534886,84040.00953032808
4458.3196459893525,83589.66709111935
4458.342831564396,83440.02197541058
4458.366017260016,81092.12814322417
4458.389203076214,79925.5766113876
4458.4123890129895,77520.27007460356
4458.435575070344,74450.30101372421
4458.458761248279,70632.68254023741
4458.481947546794,65822.82363924522
4458.505133965889,60509.81567367954
4458.528320505566,54980.26606680651
4458.551507165825,49104.33612826464
4458.574693946666,44354.18870184071
4458.597880848091,39500.8852061454
4458.6210678701,36607.6346643941
4458.644255012693,34375.57159690853
4458.6674422758715,33749.41272980252
4458.690629659636,34495.811259771064
4458.713817163986,36020.594808105205
4458.737004788924,38238.15329562744
4458.76019253445,41545.30612215436
4458.783380400563,44493.89246187273
4458.8065683872655,47228.00612878879
4458.829756494558,49463.26225832215
4458.85294472244,51242.50989837079
4458.876133070914,53386.91066034462
4458.899321539979,55375.64501203199
4458.922510129635,58556.465189165996
4458.945698839884,61776.62096946298
4458.968887670727,65036.64721874403
4458.992076622164,68432.76465818526
4459.015265694195,72254.49786649707
4459.0384548868215,74778.38697426667
4459.061644200044,77291.1009555911
4459.084833633862,79595.05815730675
4459.108023188278,81347.06566279895
4459.131212863292,83022.6884817183
4459.154402658904,83787.50478824209
4459.177592575114,84304.96458488425
4459.200782611925,84400.19445870363
4459.223972769336,83709.17789566585
4459.247163047347,82805.70537519678
4459.27035344596,82553.24821844276
4459.293543965176,82377.89034196245
4459.316734604993,82519.16054251099
4459.339925365414,82814.64735219399
4459.363116246439,83112.93550876083
4459.386307248069,83969.97400910896
4459.409498370304,84701.96282126963
4459.432689613145,85373.47160870569
4459.455880976592,85938.94962425674
4459.479072460647,85890.12681269206
4459.502264065309,86376.76297425164
4459.52545579058,86305.17746322394
4459.5486476364595,85612.56356945896
4459.571839602949,84138.81662136664
4459.595031690048,82931.85944164397
4459.618223897759,80617.33769794338
4459.641416226081,78255.25455346573
4459.664608675014,75241.29388270626
4459.687801244561,71389.88994268619
4459.710993934721,67745.6315781998
4459.734186745496,64793.99184471334
4459.757379676885,62448.27105357901
4459.780572728889,61733.281258314506
4459.803765901509,61253.63290947228
4459.8269591947455,62133.09386711246
4459.850152608599,63870.63138448366
4459.87334614307,65805.69634327586
4459.89653979816,68078.2781543691
4459.91973357387,70628.06602258873
4459.942927470198,73286.70949698258
4459.966121487147,76162.49929265365
4459.989315624717,78253.08734351021
4460.0125098829085,80226.98243887976
4460.035704261722,82131.22084524448
4460.058898761158,83512.71118097403
4460.082093381218,85506.18154108846
4460.105288121902,86790.9632229191
4460.12848298321,87437.24790613957
4460.151677965145,87853.91672221912
4460.1748730677045,88099.63043449842
4460.198068290891,88375.62581582142
4460.221263634704,88642.3761297466
4460.244459099145,88522.54895442545
4460.267654684215,88175.31170662408
4460.290850389914,87849.17117666655
4460.314046216243,87482.58102249348
4460.337242163202,87346.42301223062
4460.360438230791,87078.52736394656
4460.383634419013,86948.73894123104
4460.406830727867,86477.89032191016
4460.430027157354,85617.61706859799
4460.453223707474,85029.44844099067
4460.476420378228,83991.8905782906
4460.499617169617,81982.07867671868
4460.522814081641,80173.45380300476
4460.5460111143,77289.27978399482
4460.569208267598,74257.85553372445
4460.592405541532,70785.220228787
4460.615602936104,67268.53083431229
4460.638800451314,63435.19961275967
4460.661998087163,60091.33345114645
4460.685195843652,56955.17679826425
4460.708393720782,54801.0310479484
4460.731591718552,52842.51551604508
4460.754789836965,51631.08641359017
4460.777988076019,51170.97201045191
4460.801186435716,51102.46425467518
4460.824384916057,51261.36463247106
4460.847583517042,51327.10919216074
4460.870782238671,50951.631636279504
4460.893981080947,49651.05492488459
4460.917180043868,48100.308938596914
4460.940379127435,46581.49857107749
4460.963578331651,45193.15002558797
4460.986777656513,44372.345803527634
4461.009977102025,43851.29160959312
4461.033176668186,43448.24356411481
4461.056376354995,42756.68623396985
4461.079576162457,41732.57256086241
4461.102776090568,40071.14656312535
4461.125976139332,38424.26774884642
4461.149176308748,36772.25886883376
4461.172376598816,35429.403567585825
4461.195577009538,34739.17807891207
4461.218777540915,35036.81903089261
4461.241978192946,36353.51124412468
4461.265178965633,39176.055947425724
4461.2883798589755,42987.69672667002
4461.311580872974,46373.386965887425
4461.3347820076315,49777.17299030958
4461.357983262946,52952.47621704749
4461.381184638919,55191.551143328674
4461.404386135551,56658.43197161635
4461.4275877528435,56764.91591229485
4461.4507894907965,55568.749241648
4461.4739913494095,53837.303263392576
4461.497193328685,52095.75858359778
4461.520395428623,50648.49369062144
4461.543597649224,50006.279210380766
4461.566799990488,50729.88745200869
4461.590002452416,52532.43119808387
4461.61320503501,54783.370449970884
4461.636407738269,57620.02224701221
4461.659610562193,60850.5917838178
4461.682813506784,63928.83099434317
4461.706016572044,67177.38963904044
4461.729219757971,69712.05536781164
4461.752423064566,71817.17560481344
4461.775626491831,74110.35392702944
4461.798830039766,75271.16757632785
4461.82203370837,75541.96885020183
4461.845237497647,75452.25884551881
4461.868441407595,75173.51956817789
4461.891645438215,74164.59350933306
4461.914849589509,72256.08070390535
4461.938053861475,70285.33980760069
4461.961258254117,68583.84080828553
4461.984462767433,66940.24621331845
4462.007667401424,66721.07771351172
4462.030872156092,67488.36470901257
4462.0540770314365,68583.56020485688
4462.077282027459,70717.9195472692
4462.100487144158,73088.19631065364
4462.123692381537,75403.4431691025
4462.146897739594,77153.71690511642
4462.170103218332,78716.4662884825
4462.19330881775,80388.92044746976
4462.21651453785,81550.11311613797
4462.239720378631,82579.85419381254
4462.262926340095,83050.79318375842
4462.286132422241,83451.0700612345
4462.309338625071,83265.28097883826
4462.3325449485865,83992.49199852902
4462.355751392785,83664.11030788199
4462.3789579576705,83192.39259477197
4462.402164643242,82478.02463812171
4462.4253714495,80946.41493977062
4462.448578376446,79132.6409179433
4462.471785424079,77406.45400422571
4462.494992592401,75329.51849575878
4462.518199881412,73873.40522941569
4462.541407291114,73296.95987236919
4462.564614821506,73197.35705688133
4462.587822472589,73444.11882286209
4462.611030244365,74115.85603576047
4462.634238136832,75472.30416762571
4462.657446149992,76598.98749235243
4462.680654283847,77845.40232436819
4462.703862538396,79012.8800813682
4462.727070913639,80103.25535962917
4462.750279409578,80922.41002859708
4462.773488026214,81429.39523223856
4462.796696763546,81086.17360367415
4462.819905621575,80758.0388884943
4462.843114600304,79933.21723131307
