wave,flux
4450.003811362098,16081.523524859436
4450.026953690486,14426.873164069711
4450.050096139227,12744.773150686964
4450.073238708321,11147.77387627532
4450.096381397769,9968.748141650574
4450.119524207569,9030.344325114753
4450.142667137726,8836.217532148119
4450.165810188237,9377.611147342785
4450.188953359103,10778.833308767325
4450.212096650326,12609.006238795735
4450.2352400619075,15311.114549039294
4450.258383593846,17798.770211700776
4450.281527246142,20141.66588117145
4450.304671018797,21744.205274650296
4450.327814911813,22617.801798787077
4450.350958925188,22874.47122130424
4450.374103058924,22771.945782859217
4450.3972473130225,23181.447663186646
4450.420391687483,23890.00257989573
4450.443536182305,25227.859545263767
4450.466680797492,26318.012045804877
4450.489825533042,26956.72984324518
4450.512970388957,27190.222723462535
4450.536115365237,27426.00409760484
4450.559260461882,28483.110862196252
4450.582405678895,30596.251560843648
4450.605551016274,33043.98892466812
4450.628696474022,36042.9380266054
4450.651842052138,38743.900296613094
4450.674987750623,40593.466131484674
4450.698133569476,42046.529804049394
4450.721279508702,42929.56957034295
4450.744425568297,43611.190245443526
4450.767571748264,43939.040681011305
4450.790718048604,44249.765091231624
4450.813864469315,44109.18639292596
4450.837011010401,44232.68406252387
4450.86015767186,44128.811921617606
4450.883304453694,43608.888502982816
4450.906451355903,43501.37371662573
4450.929598378489,42679.37877879886
4450.95274552145,42576.26118860152
4450.975892784789,41783.842558855504
4450.999040168505,40670.14172343627
4451.022187672601,39924.574913695156
4451.045335297074,38847.47295232943
4451.068483041929,37302.350369696105
4451.091630907163,34515.67679664932
4451.114778892777,31468.528932200796
4451.137926998774,27964.09172848956
4451.161075225153,24161.60347404899
4451.184223571914,20541.98144397915
4451.207372039059,18134.358042367297
4451.230520626587,17159.281350355246
4451.253669334501,17718.629632184904
4451.2768181628,19847.621174931686
4451.299967111485,22941.153691596275
4451.323116180556,26418.797137381607
4451.346265370014,30329.908568622017
4451.369414679861,33827.82121527383
4451.392564110095,36493.253904716126
4451.415713660719,38620.58614409398
4451.438863331732,40027.543685596116
4451.462013123136,40701.23594066272
4451.48516303493,40925.875127736166
4451.508313067117,40604.85750633539
4451.531463219695,39580.494945714134
4451.554613492666,37796.05984678031
4451.577763886031,35374.93101613095
4451.60091439979,32912.00935554061
4451.624065033943,30856.455337572937
4451.647215788492,29922.99517778088
4451.670366663436,30020.44526875944
4451.693517658777,30903.370383751353
4451.716668774516,32429.463902522824
4451.739820010652,33959.214656692966
4451.762971367186,35955.38139090162
4451.78612284412,37882.2528797164
4451.8092744414525,39306.52982886312
4451.832426159187,41170.71792425915
4451.855577997321,41924.91631187841
4451.878729955857,43023.409812445476
4451.901882034796,43760.55549669135
4451.925034234137,43999.23561649658
4451.948186553881,44262.43174130239
4451.97133899403,44549.789478014056
4451.994491554583,44407.228270686806
4452.017644235542,44430.49008217715
4452.040797036907,43853.67020935064
4452.063949958678,43669.58073130805
4452.087103000857,43239.60080958154
4452.1102561634425,42644.38117153695
4452.133409446437,41349.140160375704
4452.156562849841,40075.96869306806
4452.179716373655,38534.82650867134
4452.202870017878,36647.02917216762
4452.226023782513,35276.00751480113
4452.24917766756,33837.45033234067
4452.272331673018,32406.57819946297
4452.29548579889,31232.98892399753
4452.318640045174,30002.961628957313
4452.341794411874,29068.452297654312
4452.364948898987,28628.072163125224
4452.388103506516,28651.80573065876
4452.4112582344615,29557.26245448794
4452.434413082823,31258.105046032542
4452.457568051602,33274.174526236275
4452.480723140799,35413.04172511887
4452.503878350413,36771.959921612295
4452.527033680448,37231.56678503432
4452.550189130902,37263.29283530013
4452.5733447017765,36206.34218966037
4452.596500393071,34445.15976891876
4452.619656204789,32349.401575600543
4452.642812136928,31022.505289137014
4452.66596818949,30603.395607960887
4452.689124362475,31230.88162542733
4452.7122806558855,32812.23131045474
4452.735437069719,34512.61001006563
4452.7585936039795,35767.14579205061
4452.781750258665,36330.734587850835
4452.804907033777,36677.87199796952
4452.828063929317,35764.223893359354
4452.851220945285,35500.418220737505
4452.87437808168,33832.02311554299
4452.897535338506,31342.78507423782
4452.92069271576,28721.342149760865
4452.943850213445,26552.082772889782
4452.967007831562,25459.721227839495
4452.99016557011,25617.823437422983
4453.01332342909,27564.611442927282
4453.036481408502,30601.31264296596
4453.059639508349,33989.232648923666
4453.08279772863,36885.488059479154
4453.105956069345,38629.27536583673
4453.129114530496,39996.72448190794
4453.152273112083,41037.84957337448
4453.175431814107,41472.13502670139
4453.198590636567,41286.650084979185
4453.221749579466,41042.37765421231
4453.244908642802,40607.98096485496
4453.268067826579,39292.503534337404
4453.291227130795,37463.356816409294
4453.314386555451,35658.66172672082
4453.337546100549,34055.045471196
4453.360705766087,33442.83548069167
4453.3838655520685,33962.105889280414
4453.407025458493,35123.44794165427
4453.430185485361,36728.83304444737
4453.453345632673,38457.84253281161
4453.476505900429,40059.33064464118
4453.4996662886315,40987.57809486493
4453.52282679728,41368.02458463252
4453.545987426375,41917.04245435123
4453.569148175917,42541.2922305487
4453.592309045907,42975.990957155365
4453.615470036346,42850.50943978713
4453.638631147233,43133.37534434788
4453.661792378571,43547.06224269999
4453.684953730359,43320.89833670726
4453.708115202598,43163.81586407183
4453.731276795288,42955.648429087916
4453.754438508431,42419.430357786434
4453.777600342027,41962.4148324865
4453.800762296077,41531.0080399019
4453.82392437058,40417.71026427458
4453.847086565538,39489.223395392
4453.870248880952,37829.02443712821
4453.8934113168225,35686.68656600192
4453.916573873149,32479.399610979108
4453.939736549933,28953.953060372638
4453.962899347174,24939.419933108016
4453.986062264875,21104.54906689199
4454.009225303034,18079.011411265164
4454.032388461654,16100.469047869738
4454.055551740734,16030.669587857748
4454.078715140275,17435.46431309275
4454.101878660277,19779.12752313484
4454.125042300742,22589.043816799633
4454.14820606167,25217.292449942066
4454.171369943061,26969.214843470243
4454.194533944917,27602.291200283013
4454.2176980672375,26750.8002042043
4454.240862310024,24969.829622647547
4454.264026673275,22342.56600947401
4454.287191156994,19608.460543127687
4454.31035576118,17026.422194186645
4454.333520485834,14634.311081301848
4454.356685330957,12556.220992330294
4454.379850296548,10919.687896145355
4454.40301538261,9732.545793761537
4454.426180589142,9312.963253176216
4454.449345916145,9715.098753796137
4454.4725113636205,10913.019775060675
4454.495676931568,12726.436497287557
4454.5188426199875,15089.018235773765
4454.542008428882,17417.5966288421
4454.565174358249,19005.775998723777
4454.588340408092,19728.69614565498
4454.611506578411,19529.45771367519
4454.634672869205,19170.04192563747
4454.657839280476,19168.176062935647
4454.681005812225,19616.92740095254
4454.704172464451,21190.4449664622
4454.727339237156,23811.669863848892
4454.750506130341,26812.647791680636
4454.773673144005,29293.12265790582
4454.79684027815,31099.816120405983
4454.820007532776,32140.133091806794
4454.843174907884,31447.34355289008
4454.866342403473,29533.636722049374
4454.889510019546,27005.643234947293
4454.912677756102,24549.298719888462
4454.935845613144,22340.048274588036
4454.959013590669,21627.112514962206
4454.982181688681,22363.8596202173
4455.005349907178,24484.39147149465
4455.028518246162,27420.665750949305
4455.051686705633,30662.390514250204
4455.074855285593,34040.95281167044
4455.098023986041,36646.68811765211
4455.121192806979,38092.60095157654
4455.144361748406,39252.59633194564
4455.167530810323,40118.0657101897
4455.190699992732,40007.079667652986
4455.213869295633,39645.89425820968
4455.237038719026,38325.05782726477
4455.260208262912,36850.96338157534
4455.283377927292,35270.22395504273
4455.306547712166,33851.21100997236
4455.329717617535,32398.89333410063
4455.352887643399,31013.496626685603
4455.37605778976,29368.52138444656
4455.399228056617,26777.02435989559
4455.422398443972,23742.7395877498
4455.445568951825,20643.66317998751
4455.468739580177,17499.968766578528
4455.491910329028,15039.701600437162
4455.515081198378,13439.96530248308
4455.538252188229,13086.206811010376
4455.561423298582,14309.127592800542
4455.584594529436,16504.75744754603
4455.607765880793,19704.522853750266
4455.630937352652,23454.1673206333
4455.654108945016,27173.648606830648
4455.677280657883,30414.712575600282
4455.700452491255,33217.96615505013
4455.723624445134,35592.54727203432
4455.746796519518,36980.71329776599
4455.7699687144095,38037.634906592895
4455.793141029808,38781.46800891177
4455.816313465714,39150.402236319875
4455.83948602213,38669.85643502397
4455.862658699055,37694.99607563784
4455.885831496489,36121.136043700026
4455.909004414434,33526.31402883347
4455.932177452891,30367.11795659016
4455.955350611858,27133.70685123129
4455.978523891339,24178.676137988587
4456.001697291333,22578.84191161491
4456.024870811841,22415.43485237429
4456.048044452862,23313.939464819377
4456.071218214399,25040.41693536278
4456.094392096451,27367.99554015574
4456.117566099019,29349.522228094967
4456.140740222105,30546.54466307017
4456.163914465707,30697.09006444173
4456.187088829828,29604.896499109524
4456.210263314468,27639.28178686611
4456.233437919626,25013.587864499408
4456.256612645306,22674.073151283177
4456.279787491505,21372.377092037575
4456.302962458226,21601.64026673918
4456.326137545469,23455.245608721714
4456.349312753233,26237.12643575868
4456.372488081522,29543.460343652518
4456.395663530333,32713.204009753717
4456.41883909967,35398.14191307564
4456.442014789531,37576.779376762635
4456.465190599917,39029.48725959707
4456.488366530831,39611.11637886573
4456.5115425822705,39680.62817009876
4456.5347187542375,39713.65796921911
4456.557895046733,39321.37644267081
4456.581071459757,38490.868469376306
4456.604247993311,37332.25506638084
4456.627424647395,36150.68391716401
4456.650601422009,34792.720379197584
4456.673778317154,33269.87521812704
4456.696955332832,32964.20752635123
4456.720132469041,33670.28482553413
4456.7433097257845,34829.10731137022
4456.766487103061,36173.79701990588
4456.789664600872,37827.20700807427
4456.8128422192185,39044.38812168774
4456.8360199581,39522.876402597874
4456.859197817518,39609.9042218542
4456.882375797473,39327.494381987126
4456.905553897966,38885.46406472659
4456.928732118997,37746.19327484727
4456.951910460566,35859.97324736677
4456.975088922674,33136.79006521874
4456.998267505323,29815.693785569456
4457.021446208513,26154.47196226272
4457.044625032244,22466.09417904594
4457.067803976516,19518.17982458977
4457.090983041332,18070.961064478543
4457.1141622266905,17401.929940277347
4457.1373415325925,17537.011482931543
4457.160520959039,18441.312848135363
4457.183700506031,20032.372303585962
4457.206880173568,22412.44771938595
4457.230059961651,25548.100605240317
4457.2532398702815,29082.479143694298
4457.27641989946,32668.84314048497
4457.299600049186,35358.133441397535
4457.322780319461,37411.52696750158
4457.345960710286,38869.43428019437
4457.36914122166,39258.71408692865
4457.392321853586,39102.989267221295
4457.415502606062,38839.19881276779
4457.43868347909,38467.015372609174
4457.461864472672,38722.931751067306
4457.485045586805,39490.545076242015
4457.508226821494,39488.63775144667
4457.5314081767365,39107.27178814388
4457.554589652534,38387.14405449542
4457.577771248887,37376.64834290092
4457.600952965797,36173.70363106464
4457.624134803263,33751.1413453318
4457.647316761288,31497.84178780444
4457.67049883987,28861.17203530113
4457.693681039011,25919.479074575167
4457.716863358712,23659.899871187507
4457.7400457989725,22545.270474905683
4457.763228359793,22604.457770026285
4457.7864110411765,23229.58566545406
4457.809593843121,23774.21081489443
4457.832776765628,23649.31381536465
4457.855959808699,23454.4116957769
4457.879142972333,22640.76465391161
4457.902326256532,22976.59563067001
4457.925509661296,24056.319948418644
4457.948693186626,26665.861687155808
4457.971876832522,29282.858301526838
4457.995060598985,32279.295804287987
4458.018244486016,34024.282273536024
4458.041428493615,35083.811214759575
4458.0646126217825,35144.93936560669
4458.08779687052,33995.65917984082
4458.110981239827,31904.61405944956
4458.134165729705,29927.073612155986
4458.157350340155,27675.1428406718
4458.180535071177,27109.364070522613
4458.203719922771,28033.084107215585
4458.226904894938,29986.458111792577
4458.2500899876795,32449.83834919902
4458.273275200995,35138.116071196884
4458.296460534886,37277.722934258105
4458.3196459893525,39204.424065438376
4458.342831564396,40172.00319923559
4458.366017260016,40967.23196149027
4458.389203076214,40922.695751952706
4458.4123890129895,40991.04040254863
4458.435575070344,40418.11964641171
4458.458761248279,39757.93843350749
4458.481947546794,38863.326497889044
4458.505133965889,37527.38685274535
4458.528320505566,35623.53368378349
4458.551507165825,33265.32372622807
4458.574693946666,30628.986382915944
4458.597880848091,27298.47360753159
4458.6210678701,23377.840996065424
4458.644255012693,19584.72089359462
4458.6674422758715,15944.115469779077
4458.690629659636,13031.062373647224
4458.713817163986,10966.338036370295
4458.737004788924,9841.704090378684
4458.76019253445,9384.960204569883
4458.783380400563,9976.450560424686
4458.8065683872655,11248.028933448953
4458.829756494558,13288.359344020031
4458.85294472244,15813.394562103698
4458.876133070914,18188.06212316641
4458.899321539979,20497.14244399983
4458.922510129635,21529.137796170246
4458.945698839884,22184.28800403051
4458.968887670727,21805.537874755664
4458.992076622164,21790.63014079335
4459.015265694195,22779.668789105668
4459.0384548868215,24886.85773491858
4459.061644200044,27799.790862016358
4459.084833633862,30969.111117450997
4459.108023188278,34399.7192858941
4459.131212863292,37176.10225712433
4459.154402658904,39053.063744246276
4459.177592575114,40263.19076339098
4459.200782611925,41108.44098569875
4459.223972769336,41650.137259486706
4459.247163047347,41413.73927181297
4459.27035344596,40976.770196466154
4459.293543965176,39803.526190681165
4459.316734604993,37944.999427697956
4459.339925365414,36239.7598826159
4459.363116246439,34205.04749479902
4459.386307248069,32676.230169769206
4459.409498370304,31951.313912788366
4459.432689613145,32688.923502051155
4459.455880976592,33976.25445202327
4459.479072460647,36010.47292840559
4459.502264065309,38095.815503766615
4459.52545579058,39720.428201565424
4459.5486476364595,40875.78122273483
4459.571839602949,41163.0146277863
4459.595031690048,41383.31471154922
4459.618223897759,41210.36448322649
4459.641416226081,41169.28609915286
4459.664608675014,40390.67997303066
4459.687801244561,39338.359951968894
4459.710993934721,37826.447506937715
4459.734186745496,35461.07334358222
4459.757379676885,32583.54984035231
4459.780572728889,29105.410875512232
4459.803765901509,25348.213532166435
4459.8269591947455,22014.06079324095
4459.850152608599,18874.107840258443
4459.87334614307,17331.273497012167
4459.89653979816,16903.840843931805
4459.91973357387,17430.68502934632
4459.942927470198,19252.24739386931
4459.966121487147,21470.093150179495
4459.989315624717,24004.18378133673
4460.0125098829085,27008.906236283772
4460.035704261722,30621.902759318236
4460.058898761158,33556.84486983904
4460.082093381218,36272.339061359606
4460.105288121902,38261.82342321167
4460.12848298321,40037.20376798739
4460.151677965145,41344.882622125224
4460.1748730677045,42198.047764161456
4460.198068290891,42641.90160103864
4460.221263634704,42772.74772687713
4460.244459099145,43184.37242705044
4460.267654684215,43486.336574713474
4460.290850389914,43375.10657255035
4460.314046216243,43190.69238241348
4460.337242163202,42815.246931871974
4460.360438230791,42375.55976172356
4460.383634419013,41452.05076312532
4460.406830727867,40895.01109213236
4460.430027157354,40144.888781350535
4460.453223707474,39851.73165283168
4460.476420378228,40166.50859464601
4460.499617169617,40670.934479449534
4460.522814081641,40928.586211933325
4460.5460111143,40530.591709108114
4460.569208267598,40043.37707070731
4460.592405541532,39243.95434879814
4460.615602936104,37632.559225177516
4460.638800451314,35026.00812564264
4460.661998087163,32223.4238391457
4460.685195843652,28486.662420797675
4460.708393720782,25016.382817351423
4460.731591718552,21530.391158958268
4460.754789836965,18849.641559416275
4460.777988076019,16932.893657913453
4460.801186435716,15727.130168950029
4460.824384916057,14970.618285158997
4460.847583517042,15076.11592290087
4460.870782238671,15944.771644063643
4460.893981080947,17156.11276988773
4460.917180043868,18850.631280190068
4460.940379127435,20489.529977104477
4460.963578331651,20984.884349507396
4460.986777656513,20578.498918597477
4461.009977102025,19517.540472743156
4461.033176668186,18028.70741802034
4461.056376354995,16822.99727798067
4461.079576162457,15959.981338391673
4461.102776090568,16066.464418214075
4461.125976139332,16683.941466679134
4461.149176308748,17387.319268609575
4461.172376598816,17648.78957215712
4461.195577009538,17124.308217204296
4461.218777540915,15813.020011932827
4461.241978192946,14044.76910015712
4461.265178965633,12348.106929790281
4461.2883798589755,11016.291517981845
4461.311580872974,10650.493076687671
4461.3347820076315,11354.227341274913
4461.357983262946,13129.367234695375
4461.381184638919,15445.203006591442
4461.404386135551,18527.072968772918
4461.4275877528435,21971.522824816177
4461.4507894907965,24983.512163035277
4461.4739913494095,27348.405531713077
4461.497193328685,28617.11181268574
4461.520395428623,28367.396542341623
4461.543597649224,26951.280443553205
4461.566799990488,24526.352421153966
4461.590002452416,21608.75086315804
4461.61320503501,18768.75641280862
4461.636407738269,16897.910764395783
4461.659610562193,16528.435400279148
4461.682813506784,17349.03827898194
4461.706016572044,19656.20227591469
4461.729219757971,22769.423004176864
4461.752423064566,25704.306179354873
4461.775626491831,28400.925779998175
4461.798830039766,30090.18652318427
4461.82203370837,31405.249591897955
4461.845237497647,32307.93673999881
4461.868441407595,32857.75332956279
4461.891645438215,33989.54864767576
4461.914849589509,34557.65875077471
4461.938053861475,34342.74181387137
4461.961258254117,33714.932465179496
4461.984462767433,31746.8789505266
4462.007667401424,29281.513966910992
4462.030872156092,26649.35563327344
4462.0540770314365,23938.62219635457
4462.077282027459,22034.9428510917
4462.100487144158,21780.32318033258
4462.123692381537,22676.000617824335
4462.146897739594,25306.994591783478
4462.170103218332,28503.819780717895
4462.19330881775,32011.5436168508
4462.21651453785,35069.53464672496
4462.239720378631,37365.064507152965
4462.262926340095,38784.563633836166
4462.286132422241,39210.85433247448
4462.309338625071,39449.90232070021
4462.3325449485865,38802.50155094839
4462.355751392785,38473.083167418925
4462.3789579576705,38168.13267049202
4462.402164643242,38377.395044813165
4462.4253714495,38289.613440863395
4462.448578376446,38291.745113571335
4462.471785424079,38130.89401482568
4462.494992592401,37515.7197384569
4462.518199881412,36155.95253891446
4462.541407291114,33739.538081744344
4462.564614821506,30559.965217176454
4462.587822472589,27034.06629421032
4462.611030244365,24604.830642360455
4462.634238136832,22605.48717608655
4462.657446149992,22545.22574477553
4462.680654283847,23858.898718154687
4462.703862538396,26128.47355361653
