wave,flux
4450.003811362098,15737.830920242433
4450.026953690486,15706.286280794418
4450.050096139227,16764.981652282077
4450.073238708321,18591.968536227196
4450.096381397769,21109.71502449092
4450.119524207569,24064.19668433303
4450.142667137726,27043.716828619647
4450.165810188237,29793.94122073048
4450.188953359103,32209.35344548167
4450.212096650326,33743.03645297631
4450.2352400619075,35592.993900274356
4450.258383593846,37372.04514105671
4450.281527246142,39020.73254253828
4450.304671018797,40445.851024325195
4450.327814911813,42043.32425827289
4450.350958925188,43463.531359325716
4450.374103058924,44467.72776922486
4450.3972473130225,45401.73145596732
4450.420391687483,47083.23335916972
4450.443536182305,48371.50876709596
4450.466680797492,50217.795024912164
4450.489825533042,52469.685763012116
4450.512970388957,54892.1557446235
4450.536115365237,56702.769945088476
4450.559260461882,58024.85064736336
4450.582405678895,59383.64106197534
4450.605551016274,60464.584080429035
4450.628696474022,60952.55399040741
4450.651842052138,61608.37710309586
4450.674987750623,62154.71038691619
4450.698133569476,62062.76030566078
4450.721279508702,61961.594862104685
4450.744425568297,61940.86469094527
4450.767571748264,61678.50250046535
4450.790718048604,61247.117087333114
4450.813864469315,60866.500704091966
4450.837011010401,60195.845985417305
4450.86015767186,58981.4017254881
4450.883304453694,57439.357310818086
4450.906451355903,55926.0749868655
4450.929598378489,53704.46669387021
4450.95274552145,50925.43388794992
4450.975892784789,47518.79199439799
4450.999040168505,44036.854731580555
4451.022187672601,40117.78089584884
4451.045335297074,36956.184098826
4451.068483041929,34328.679735824975
4451.091630907163,33175.830485374165
4451.114778892777,33210.83389797322
4451.137926998774,34648.28456582186
4451.161075225153,36888.05848878546
4451.184223571914,39864.472045371316
4451.207372039059,43255.055246961456
4451.230520626587,46415.29589342134
4451.253669334501,49701.825129477635
4451.2768181628,52275.02219941628
4451.299967111485,54214.83912629072
4451.323116180556,55700.34290294351
4451.346265370014,56952.87498768861
4451.369414679861,57587.370149234324
4451.392564110095,57546.089159358875
4451.415713660719,56801.62610042244
4451.438863331732,55947.415492956614
4451.462013123136,54828.80011054439
4451.48516303493,53771.32876027486
4451.508313067117,53029.652625886054
4451.531463219695,52550.97058252319
4451.554613492666,52720.07368765501
4451.577763886031,52983.718762175355
4451.60091439979,53719.45290315435
4451.624065033943,54845.05558706237
4451.647215788492,55743.73192186374
4451.670366663436,56989.37434558128
4451.693517658777,58341.63706294963
4451.716668774516,59348.6082413097
4451.739820010652,60577.34198480624
4451.762971367186,61048.18958311152
4451.78612284412,61612.991727994035
4451.8092744414525,62270.0214210233
4451.832426159187,62713.277841704614
4451.855577997321,62500.92326622165
4451.878729955857,62503.65542241337
4451.901882034796,62141.05604686273
4451.925034234137,62000.89617232411
4451.948186553881,61428.95619328164
4451.97133899403,61158.70237615127
4451.994491554583,60381.49197524929
4452.017644235542,59400.220531465435
4452.040797036907,58181.750147223574
4452.063949958678,56874.02163302466
4452.087103000857,55873.216875161634
4452.1102561634425,54680.367166057964
4452.133409446437,53234.90971787052
4452.156562849841,52200.403890202564
4452.179716373655,51207.04247366942
4452.202870017878,50235.077465033624
4452.226023782513,49612.195396184354
4452.24917766756,49764.21494391622
4452.272331673018,50171.30440047489
4452.29548579889,50943.777466192616
4452.318640045174,51966.64130183352
4452.341794411874,52861.09496328769
4452.364948898987,53730.4898069121
4452.388103506516,54485.2097705171
4452.4112582344615,54367.60558914801
4452.434413082823,53673.31644630469
4452.457568051602,53243.761694261135
4452.480723140799,52534.64207737002
4452.503878350413,51695.88968443132
4452.527033680448,51428.130252205876
4452.550189130902,51530.86789393557
4452.5733447017765,52017.077766665025
4452.596500393071,52921.193884991764
4452.619656204789,53294.049091748864
4452.642812136928,53699.51783083208
4452.66596818949,53648.033495176445
4452.689124362475,52903.933657246496
4452.7122806558855,52482.646170205604
4452.735437069719,51379.700373057436
4452.7585936039795,49833.72769035871
4452.781750258665,47864.218910706055
4452.804907033777,46541.34139444396
4452.828063929317,45726.02713880446
4452.851220945285,45692.27623164048
4452.87437808168,46251.98040896342
4452.897535338506,47779.46446242017
4452.92069271576,49915.31423532283
4452.943850213445,51980.682284879826
4452.967007831562,53630.20082102146
4452.99016557011,54938.04217673868
4453.01332342909,56321.5216497365
4453.036481408502,57311.29717716529
4453.059639508349,58153.28318173933
4453.08279772863,58526.3430167167
4453.105956069345,58258.0165908284
4453.129114530496,57644.146122867336
4453.152273112083,57145.76583285479
4453.175431814107,56197.008695624085
4453.198590636567,55370.54974679386
4453.221749579466,55001.28793157827
4453.244908642802,55165.318367017644
4453.268067826579,55328.11836434249
4453.291227130795,55957.994019536935
4453.314386555451,57081.65905960601
4453.337546100549,57693.130471984085
4453.360705766087,58245.2008615702
4453.3838655520685,58904.789023395424
4453.407025458493,59472.51275834973
4453.430185485361,60346.861860097706
4453.453345632673,60904.271418153585
4453.476505900429,61091.58610760969
4453.4996662886315,61594.73189226268
4453.52282679728,61791.56353624577
4453.545987426375,61537.24602923916
4453.569148175917,61344.31725553964
4453.592309045907,61189.70875366824
4453.615470036346,60983.23254009016
4453.638631147233,60392.86064853709
4453.661792378571,59542.24818256626
4453.684953730359,58261.4877726897
4453.708115202598,56796.96910135865
4453.731276795288,54971.63623843507
4453.754438508431,52356.45380897432
4453.777600342027,49297.55034069047
4453.800762296077,45750.13732247405
4453.82392437058,41838.453335369704
4453.847086565538,38174.14740793061
4453.870248880952,35049.11475332822
4453.8934113168225,32731.642261348
4453.916573873149,31860.614891817997
4453.939736549933,32165.260663618254
4453.962899347174,33084.275207744984
4453.986062264875,34950.585409864165
4454.009225303034,36646.06808308596
4454.032388461654,37856.36585103486
4454.055551740734,38263.45203164145
4454.078715140275,38248.685407909026
4454.101878660277,37392.10903339476
4454.125042300742,35418.15625142023
4454.14820606167,32707.38836631969
4454.171369943061,30259.54215730792
4454.194533944917,27334.15786187732
4454.2176980672375,24309.488165845927
4454.240862310024,21944.75061796967
4454.264026673275,19927.730998089948
4454.287191156994,18656.64902930202
4454.31035576118,18327.10396781248
4454.333520485834,18962.568317937334
4454.356685330957,20507.744829668343
4454.379850296548,22633.409685121635
4454.40301538261,24612.441663600235
4454.426180589142,26723.00213092168
4454.449345916145,28079.702915983165
4454.4725113636205,29245.674107197294
4454.495676931568,30244.081108940387
4454.5188426199875,31094.096368419054
4454.542008428882,32463.192935814397
4454.565174358249,34562.84069712526
4454.588340408092,36964.92386530777
4454.611506578411,39318.59624798977
4454.634672869205,41493.60352502112
4454.657839280476,43171.83301762527
4454.681005812225,43718.992957485454
4454.704172464451,43330.052597004644
4454.727339237156,42393.730938229884
4454.750506130341,40910.941357249125
4454.773673144005,39569.78005456281
4454.79684027815,38594.23172900083
4454.820007532776,38305.98715599874
4454.843174907884,38776.10253252745
4454.866342403473,39977.417087052876
4454.889510019546,42692.67547120928
4454.912677756102,45457.583582326406
4454.935845613144,47765.543412139275
4454.959013590669,50375.0521156522
4454.982181688681,52493.95990873422
4455.005349907178,53912.56350508506
4455.028518246162,55097.06805534525
4455.051686705633,56184.8121034584
4455.074855285593,56446.69518264383
4455.098023986041,55931.73756830073
4455.121192806979,55449.26931549761
4455.144361748406,54218.89027224096
4455.167530810323,53182.83936533558
4455.190699992732,50944.82522122614
4455.213869295633,48919.965074291
4455.237038719026,46790.59578013795
4455.260208262912,43277.31250240938
4455.283377927292,39869.67225448083
4455.306547712166,36252.407294226585
4455.329717617535,33124.052478268866
4455.352887643399,29706.507849431888
4455.37605778976,27306.781338056982
4455.399228056617,26531.202016932064
4455.422398443972,26974.775520605424
4455.445568951825,28364.605259939235
4455.468739580177,31229.3125503222
4455.491910329028,34366.70106657133
4455.515081198378,38026.06888029835
4455.538252188229,41567.255338830575
4455.561423298582,44992.13734066295
4455.584594529436,47847.161769071434
4455.607765880793,50322.87707099201
4455.630937352652,52488.58151432122
4455.654108945016,53584.90652132869
4455.677280657883,54508.35238625708
4455.700452491255,54935.61233420034
4455.723624445134,54478.28751330604
4455.746796519518,53697.10665444261
4455.7699687144095,52043.57602993989
4455.793141029808,50050.956794444945
4455.816313465714,47847.98298294505
4455.83948602213,45981.788860630804
4455.862658699055,44421.238256523546
4455.885831496489,43711.40133741748
4455.909004414434,43448.381703317784
4455.932177452891,43601.66212085941
4455.955350611858,44444.50527498019
4455.978523891339,45176.55204286002
4456.001697291333,45455.43730451633
4456.024870811841,45308.81958964501
4456.048044452862,44215.43662408437
4456.071218214399,42857.555745581936
4456.094392096451,40938.59377164963
4456.117566099019,39100.83504857599
4456.140740222105,37918.88008438865
4456.163914465707,37689.94022486513
4456.187088829828,38495.79632785572
4456.210263314468,40302.96143057857
4456.233437919626,42497.08800463475
4456.256612645306,44780.26977862626
4456.279787491505,47434.580072482466
4456.302962458226,49893.33340079065
4456.326137545469,52308.54016441322
4456.349312753233,53742.75445501956
4456.372488081522,54344.50750581388
4456.395663530333,55261.73940210096
4456.41883909967,55970.33650744501
4456.442014789531,55817.118288668535
4456.465190599917,55495.306347854326
4456.488366530831,54940.62393950307
4456.5115425822705,54076.30498762101
4456.5347187542375,53565.53747597833
4456.557895046733,53297.91426010311
4456.581071459757,53424.528126639045
4456.604247993311,53983.67692318273
4456.627424647395,54594.464835005354
4456.650601422009,55310.275462844715
4456.673778317154,55974.40450975684
4456.696955332832,56473.21350719968
4456.720132469041,56642.08421354243
4456.7433097257845,56264.51806593259
4456.766487103061,55725.226601946844
4456.789664600872,54652.78520079172
4456.8128422192185,52620.97195422238
4456.8360199581,49776.35625320107
4456.859197817518,46671.05603663393
4456.882375797473,43392.590359933434
4456.905553897966,40124.23940480091
4456.928732118997,37123.39283692578
4456.951910460566,34919.18823459736
4456.975088922674,33646.964611021125
4456.998267505323,33472.486453045756
4457.021446208513,33936.93154225486
4457.044625032244,35261.32713574044
4457.067803976516,37216.39860876348
4457.090983041332,39807.41579587276
4457.1141622266905,42564.74915919283
4457.1373415325925,45811.870771211106
4457.160520959039,48614.29476869154
4457.183700506031,51155.45021141584
4457.206880173568,53352.929342290074
4457.230059961651,54712.559088431066
4457.2532398702815,55646.199116188975
4457.27641989946,56259.83713363772
4457.299600049186,56868.830490154396
4457.322780319461,56863.97554248886
4457.345960710286,57086.09106967364
4457.36914122166,57958.60867962726
4457.392321853586,57323.77996023811
4457.415502606062,56273.48851970548
4457.43868347909,55249.28377279143
4457.461864472672,54072.630976624074
4457.485045586805,52119.175131164644
4457.508226821494,49896.32181287912
4457.5314081767365,47660.16006659982
4457.554589652534,45099.27562923656
4457.577771248887,42709.127755569476
4457.600952965797,40874.82679452201
4457.624134803263,40219.18156345952
4457.647316761288,39714.002299041735
4457.67049883987,39296.30361669238
4457.693681039011,38904.0773643564
4457.716863358712,38725.47280809724
4457.7400457989725,38614.92117025571
4457.763228359793,39330.60642498795
4457.7864110411765,40457.968308809934
4457.809593843121,41905.52877255151
4457.832776765628,44039.863723073286
4457.855959808699,46541.607294233065
4457.879142972333,48172.68655613228
4457.902326256532,49217.41450031522
4457.925509661296,49909.74043274191
4457.948693186626,49902.78693171801
4457.971876832522,49680.35701541303
4457.995060598985,48861.17382239262
4458.018244486016,47842.76815499024
4458.041428493615,47400.40836023282
4458.0646126217825,48096.21055968716
4458.08779687052,49385.62828425577
4458.110981239827,50178.6945517586
4458.134165729705,52373.91388660174
4458.157350340155,53947.6765662579
4458.180535071177,54817.07456222387
4458.203719922771,56130.62530650158
4458.226904894938,57082.17179354958
4458.2500899876795,57567.7218247139
4458.273275200995,57835.755033086665
4458.296460534886,57702.066072440924
4458.3196459893525,57002.07112385749
4458.342831564396,56142.8381611931
4458.366017260016,54702.02041911543
4458.389203076214,52083.473915582814
4458.4123890129895,49855.2802290394
4458.435575070344,46743.957057672465
4458.458761248279,43045.20039971885
4458.481947546794,38906.6465707376
4458.505133965889,34588.57431233149
4458.528320505566,30435.606277295756
4458.551507165825,26652.746044049898
4458.574693946666,23388.91814439761
4458.597880848091,21351.05741143365
4458.6210678701,20036.21823443375
4458.644255012693,20050.572487613106
4458.6674422758715,20852.77099190554
4458.690629659636,22422.26175641325
4458.713817163986,24783.654712271364
4458.737004788924,27327.561726952466
4458.76019253445,29650.72872829619
4458.783380400563,31926.00490005434
4458.8065683872655,33160.033221580845
4458.829756494558,34070.83703261015
4458.85294472244,35335.119962817764
4458.876133070914,37441.63215239583
4458.899321539979,39233.545054837465
4458.922510129635,42418.91358905717
4458.945698839884,45265.339529023004
4458.968887670727,48001.88501684088
4458.992076622164,50399.98340676903
4459.015265694195,52985.88055663645
4459.0384548868215,55021.10075135224
4459.061644200044,56243.90360699895
4459.084833633862,57216.74029208589
4459.108023188278,58093.613759453634
4459.131212863292,58039.76505272243
4459.154402658904,57649.83601235078
4459.177592575114,56632.79219458508
4459.200782611925,56051.11101518152
4459.223972769336,54853.34488128014
4459.247163047347,54878.238889899076
4459.27035344596,54237.98737151996
4459.293543965176,54173.53330693331
4459.316734604993,54747.594234661825
4459.339925365414,55442.03494243484
4459.363116246439,56408.39993811992
4459.386307248069,57059.15470444836
4459.409498370304,57950.562206622024
4459.432689613145,58745.87872200272
4459.455880976592,58561.508892914084
4459.479072460647,58657.16071218736
4459.502264065309,58482.365082054144
4459.52545579058,57836.88084763068
4459.5486476364595,57170.56587707008
4459.571839602949,55450.21426070563
4459.595031690048,53552.435993635256
4459.618223897759,50382.62788074325
4459.641416226081,47435.611083734155
4459.664608675014,43805.246489746474
4459.687801244561,40226.9635289991
4459.710993934721,37263.420399853334
4459.734186745496,35485.643298988565
4459.757379676885,34894.61177495093
4459.780572728889,34838.842452189914
4459.803765901509,36209.832898247245
4459.8269591947455,38500.94206469894
4459.850152608599,40491.77726988273
4459.87334614307,43538.27759022599
4459.89653979816,46133.910363195355
4459.91973357387,48653.403705237564
4459.942927470198,51444.38037975282
4459.966121487147,53925.69791168887
4459.989315624717,55833.673437690464
4460.0125098829085,57353.19598139502
4460.035704261722,58785.615377537935
4460.058898761158,59249.93509257988
4460.082093381218,60359.15666977225
4460.105288121902,60864.37512490847
4460.12848298321,61283.307933046344
4460.151677965145,60968.89561270215
4460.1748730677045,61127.71489617254
4460.198068290891,61125.228458044054
4460.221263634704,61000.466653581134
4460.244459099145,60417.47432141377
4460.267654684215,60147.814369376705
4460.290850389914,59897.923888938705
4460.314046216243,59409.039815608325
4460.337242163202,59337.0716207473
4460.360438230791,59052.601653435726
4460.383634419013,58730.48641598341
4460.406830727867,58622.08051071375
4460.430027157354,57575.13450974682
4460.453223707474,56571.65228773621
4460.476420378228,54453.37253682109
4460.499617169617,52411.22205316296
4460.522814081641,50079.94407880707
4460.5460111143,47050.865625938844
4460.569208267598,43530.49967908582
4460.592405541532,40101.15333523633
4460.615602936104,36987.372993829966
4460.638800451314,34266.73660475195
4460.661998087163,31918.304107213113
4460.685195843652,30147.03233469142
4460.708393720782,29197.46040566708
4460.731591718552,29031.50832860808
4460.754789836965,29167.702885541712
4460.777988076019,30053.334073700913
4460.801186435716,30600.990662730666
4460.824384916057,31150.43652782865
4460.847583517042,30823.86886532961
4460.870782238671,29857.89305741883
4460.893981080947,28680.81866759603
4460.917180043868,27817.106685455936
4460.940379127435,27107.455129030932
4460.963578331651,26444.154799430707
4460.986777656513,26723.97300504081
4461.009977102025,26788.047908079592
4461.033176668186,26463.101698530427
4461.056376354995,25839.47176747661
4461.079576162457,24828.024734854753
4461.102776090568,23367.68751958993
4461.125976139332,22112.668611897065
4461.149176308748,21083.416432887756
4461.172376598816,20748.648836720065
4461.195577009538,21494.847612747784
4461.218777540915,23096.147782539738
4461.241978192946,25437.140957824977
4461.265178965633,28444.66565589541
4461.2883798589755,31558.76059424562
4461.311580872974,34625.690441477265
4461.3347820076315,37269.1379112383
4461.357983262946,38746.70606901849
4461.381184638919,39176.17325439737
4461.404386135551,38777.82710281346
4461.4275877528435,37302.43436535664
4461.4507894907965,35417.027383308414
4461.4739913494095,33557.87497800054
4461.497193328685,32063.05599159315
4461.520395428623,31679.979373123177
4461.543597649224,32333.32411433459
4461.566799990488,33901.15676384736
4461.590002452416,36327.62663548762
4461.61320503501,38937.61558877386
4461.636407738269,41535.48407584989
4461.659610562193,43898.61949345017
4461.682813506784,46175.125820268666
4461.706016572044,47782.938601138354
4461.729219757971,49015.86569106507
4461.752423064566,50290.201161089455
4461.775626491831,50965.59442114217
4461.798830039766,51080.717539463265
4461.82203370837,50778.48402248117
4461.845237497647,49393.354642585706
4461.868441407595,47513.86111031962
4461.891645438215,45687.590763405984
4461.914849589509,43524.49743163133
4461.938053861475,41979.88927344245
4461.961258254117,41118.6236609308
4461.984462767433,41271.17795192445
4462.007667401424,42454.784804840856
4462.030872156092,44606.09742771543
4462.0540770314365,46551.60082645497
4462.077282027459,49009.070561155015
4462.100487144158,51230.564951775195
4462.123692381537,52875.61448127046
4462.146897739594,54264.166662324365
4462.170103218332,55483.0170999004
4462.19330881775,56377.212479859925
4462.21651453785,56694.37019347687
4462.239720378631,56766.068479617636
4462.262926340095,56908.095796782356
4462.286132422241,57249.98226866092
4462.309338625071,56688.081153906416
4462.3325449485865,56302.82012367252
4462.355751392785,55294.33659520085
4462.3789579576705,54010.25847180822
4462.402164643242,52156.395276412375
4462.4253714495,50263.567867418365
4462.448578376446,47443.98702600852
4462.471785424079,45228.37383136703
4462.494992592401,43713.26436856437
4462.518199881412,43148.91929270744
4462.541407291114,43404.07896444577
4462.564614821506,44559.686842100295
4462.587822472589,45796.59247728796
4462.611030244365,47612.26382111449
4462.634238136832,49061.06106371175
4462.657446149992,50301.66181537551
4462.680654283847,51751.99364601068
4462.703862538396,53130.17686916698
4462.727070913639,54492.771644623965
4462.750279409578,54820.57503122491
