wave,flux
5000.025812696027,26339.310284378666
5000.051815424163,28677.724892130303
5000.0778182875265,31432.439264740337
5000.103821286119,34341.75004731392
5000.12982441994,37152.271079899954
5000.155827688991,39690.410339162096
5000.181831093272,41421.596513668796
5000.207834632784,42153.56748954562
5000.2338383075285,42082.2522358183
5000.259842117506,40444.64086048427
5000.285846062716,38607.09344036476
5000.311850143161,35783.60327427789
5000.33785435884,33011.95436880964
5000.363858709754,31180.973838506827
5000.389863195905,30771.792146426164
5000.415867817292,31569.837298799754
5000.441872573917,33008.061468213346
5000.4678774657805,34564.288483412565
5000.493882492882,35831.32960628448
5000.519887655224,36749.840119666325
5000.545892952806,37223.42776348826
5000.571898385629,37032.60430102414
5000.597903953694,36668.93242143619
5000.623909657001,36907.834544794816
5000.649915495552,37908.81640341889
5000.675921469346,39198.98891380336
5000.701927578384,41002.75430409754
5000.727933822669,42503.35487227684
5000.7539402021985,43521.71630653024
5000.779946716975,44385.89879161113
5000.805953366999,44219.07598079033
5000.831960152272,44179.7834126548
5000.857967072792,43989.588852330315
5000.883974128563,43642.84833652623
5000.9099813195835,43639.50347385617
5000.935988645855,43674.432847606025
5000.961996107378,43334.91138175634
5000.988003704153,42364.664861988116
5001.014011436181,41053.1306611462
5001.040019303464,39203.09375116394
5001.066027306,36642.08033994599
5001.092035443791,34554.81400649999
5001.118043716839,33190.49465639691
5001.1440521251425,33344.76904648289
5001.170060668704,34647.717051448635
5001.196069347523,36343.847341718785
5001.222078161601,38236.24488143196
5001.248087110937,39209.81956697431
5001.274096195534,39529.44906896753
5001.300105415392,39182.38030758631
5001.326114770512,37650.81998096847
5001.352124260892,35327.98323352849
5001.3781338865365,32200.810504004723
5001.4041436474445,28297.83116071496
5001.430153543616,24519.772285624247
5001.456163575053,20682.15296634871
5001.482173741756,18051.92206391457
5001.508184043724,17035.968469833922
5001.534194480961,17709.4591261809
5001.560205053464,19914.865554853022
5001.586215761236,23202.984889067917
5001.612226604278,27334.954911714427
5001.638237582589,31437.93839472491
5001.664248696171,35180.52317328713
5001.690259945024,38352.24448811238
5001.716271329149,40902.022166435454
5001.742282848547,42650.47474925951
5001.768294503218,43637.64947783875
5001.794306293164,44503.22599406385
5001.820318218383,45223.001973956394
5001.84633027888,45573.22372732724
5001.872342474651,45946.60918905577
5001.8983548056995,46566.515106700754
5001.924367272026,46094.33229767924
5001.9503798736305,46010.33957458875
5001.976392610514,45887.619959571726
5002.002405482678,45702.952570043686
5002.028418490122,45250.37860115281
5002.054431632847,45045.56313743437
5002.080444910854,44549.20867516448
5002.106458324142,44071.13310649544
5002.1324718727155,43608.12773083911
5002.158485556572,43038.86036686152
5002.184499375713,42604.05965765683
5002.210513330139,41987.66384432064
5002.236527419852,41412.45663027334
5002.262541644852,40853.97679165451
5002.288556005138,39451.40158099547
5002.314570500714,37684.87986687395
5002.340585131577,34868.99864388504
5002.36659989773,31345.743764503834
5002.392614799174,28214.034628775014
5002.418629835909,26149.26721844425
5002.444645007936,25736.153816417635
5002.4706603152545,27109.453407667766
5002.496675757866,30155.104869722454
5002.522691335772,33727.30303454299
5002.548707048972,37176.91103243887
5002.574722897468,40210.7417717649
5002.600738881259,42494.80556440782
5002.626755000347,43983.65573259385
5002.652771254732,44863.91249786454
5002.678787644415,45554.42253629308
5002.704804169397,45927.57602419509
5002.730820829678,46514.397339433795
5002.75683762526,46313.10664051949
5002.782854556142,46370.72105493963
5002.8088716223265,46237.05063882444
5002.834888823812,46094.96411028529
5002.860906160601,46253.62163083877
5002.886923632695,46504.32287855003
5002.912941240092,46397.0041962278
5002.938958982793,46225.30940693224
5002.9649768608015,46029.08530765604
5002.990994874116,46012.692360716224
5003.017013022737,45913.99273329781
5003.043031306666,45602.637754769436
5003.069049725905,45383.080167899716
5003.095068280452,45085.31720874166
5003.121086970309,45116.44652667164
5003.147105795477,45232.04524267118
5003.173124755956,45323.299045278865
5003.199143851748,45495.13064363459
5003.225163082852,45562.27056318727
5003.251182449269,45109.40608362509
5003.277201951001,44137.23027299374
5003.3032215880485,42533.91481653777
5003.32924136041,40445.04755679068
5003.35526126809,38773.375725673905
5003.381281311085,37982.45575542277
5003.407301489398,37795.3332512431
5003.433321803031,38504.52960067008
5003.459342251982,40025.92229333215
5003.4853628362525,41479.41653999073
5003.511383555844,42223.191228953925
5003.537404410757,42203.895865897524
5003.563425400991,41794.54280207662
5003.589446526548,40589.84781820292
5003.615467787429,38337.85466220269
5003.641489183634,36103.14266069495
5003.667510715163,34177.5541294447
5003.693532382018,33704.37625618178
5003.719554184199,34021.96177972894
5003.745576121707,35954.827322227844
5003.771598194542,37816.22438111442
5003.797620402706,39645.77388884375
5003.823642746199,41065.272108046534
5003.849665225021,41816.80460615234
5003.875687839174,42265.65380675302
5003.901710588658,42668.003891970344
5003.927733473473,42643.04308009219
5003.953756493622,42109.8571156415
5003.979779649103,41982.52095400156
5004.005802939919,42434.571785845095
5004.031826366068,42734.28629879222
5004.057849927553,43290.57122476181
5004.083873624375,43847.31823774315
5004.109897456533,45096.12334945395
5004.135921424028,45590.09746372454
5004.161945526862,46059.44296110553
5004.187969765035,46393.86131281706
5004.213994138547,46259.34490590218
5004.240018647399,46396.562842674066
5004.266043291592,46384.324963241015
5004.292068071127,46502.58661001543
5004.318092986004,46516.628911432985
5004.344118036223,46539.60608188841
5004.370143221788,46459.47930011007
5004.396168542696,46075.6507738467
5004.422193998949,45723.311336247876
5004.448219590549,45232.62982632777
5004.474245317495,44480.2344878802
5004.500271179789,43769.89381502255
5004.52629717743,43182.20260628419
5004.5523233104195,42739.37090714623
5004.578349578759,42735.17491914654
5004.604375982449,42175.668391251194
5004.630402521489,41758.646357538506
5004.656429195881,40619.65584717618
5004.682456005625,38681.395596327326
5004.708482950721,35651.44464536252
5004.734510031172,32156.16694974405
5004.760537246977,28559.73130526118
5004.7865645981365,25959.770769471335
5004.812592084652,24882.97459229348
5004.838619706525,25584.795291790408
5004.8646474637535,28048.65379010038
5004.890675356341,31485.724066210532
5004.916703384286,34865.78014404069
5004.942731547591,37875.522791194664
5004.968759846256,40656.76745683265
5004.994788280281,41995.407330856346
5005.020816849668,42778.97393029583
5005.046845554417,42858.77060035886
5005.072874394528,42733.364799817056
5005.098903370003,42127.48548779421
5005.124932480842,41037.71049351692
5005.150961727047,39881.92018817954
5005.176991108617,38232.151153309154
5005.203020625552,35758.191875819386
5005.229050277856,32560.528489355005
5005.255080065526,28882.737517531434
5005.281109988566,24779.2267394011
5005.3071400469735,21124.675762783765
5005.333170240751,18748.49977333194
5005.3592005699,17836.807537569992
5005.38523103442,18638.1616943993
5005.411261634312,20911.713129158186
5005.4372923695755,23821.53471085726
5005.463323240213,26883.268860874283
5005.489354246225,29691.26039990246
5005.515385387611,31839.220058557985
5005.541416664373,32664.546777399853
5005.567448076511,32467.90632044495
5005.593479624025,31059.324595734215
5005.619511306918,28431.95706623556
5005.645543125189,25193.381877344433
5005.671575078838,21688.299681644556
5005.697607167867,18410.136949879045
5005.723639392277,16077.329960078925
5005.749671752068,14891.413155177299
5005.77570424724,14923.42033605109
5005.8017368777955,16328.965515581702
5005.8277696437335,19095.391803382237
5005.853802545055,22788.59066777227
5005.879835581762,26766.194215699175
5005.905868753854,30750.153895394455
5005.931902061331,34587.88780803046
5005.957935504196,37985.8099946217
5005.983969082448,40775.01950771014
5006.010002796088,42437.13806247093
5006.036036645117,43790.956565353874
5006.062070629536,44632.4216034932
5006.088104749344,45443.26416035845
5006.114139004544,45528.74665774528
5006.140173395135,45308.660649957885
5006.166207921118,45285.772974131505
5006.192242582495,45255.845349261515
5006.218277379266,45251.75756369312
5006.244312311431,45146.39460137148
5006.270347378991,44943.54253740154
5006.296382581946,44870.97277398502
5006.322417920299,44756.482824877414
5006.348453394048,44549.55779652788
5006.374489003196,44666.94601171852
5006.400524747743,44740.831937064104
5006.426560627688,44535.454175434155
5006.452596643034,44606.81134512792
5006.47863279378,44394.96061938589
5006.504669079928,44027.71879971796
5006.530705501478,44004.191923178216
5006.556742058431,43495.21326309401
5006.582778750788,43199.42811304642
5006.608815578549,42602.34361575866
5006.634852541715,41330.41360303461
5006.660889640287,40282.207686585854
5006.686926874265,38195.72966460044
5006.71296424365,35709.780451515966
5006.739001748444,32596.54224398265
5006.765039388645,28463.509532298005
5006.791077164256,24117.772614803078
5006.817115075277,20430.318597881305
5006.843153121708,17631.047245670125
5006.869191303552,15874.03063882695
5006.895229620806,15570.376719066544
5006.921268073474,16796.08280612988
5006.947306661555,19343.870482541122
5006.97334538505,22966.317003627482
5006.999384243961,27170.49965665245
5007.025423238286,31507.431780855557
5007.051462368028,35198.24074935186
5007.077501633187,38499.1804689661
5007.103541033764,41023.46755043412
5007.129580569759,42993.65794628259
5007.155620241173,44068.89141548969
5007.181660048007,45077.427373909224
5007.207699990262,45341.42783250243
5007.233740067937,45187.48634667314
5007.259780281035,44637.24892847919
5007.285820629555,43622.313578028436
5007.311861113499,42412.67046074268
5007.337901732866,40914.16160397781
5007.363942487658,40196.348395014975
5007.389983377876,40566.539856431526
5007.41602440352,41433.720379653394
5007.442065564591,42667.23001076617
5007.468106861089,44196.15109072564
5007.494148293015,45511.81568196435
5007.520189860371,46401.685749057295
5007.546231563156,47076.874369681114
5007.572273401372,47296.88203750193
5007.598315375018,47500.607451079326
5007.624357484096,47397.79224299881
5007.650399728607,47228.52308840166
5007.676442108551,47076.94669616843
5007.702484623929,47435.99090420792
5007.728527274741,47195.61808390753
5007.754570060989,47219.64032303185
5007.780612982673,47517.07013846672
5007.806656039793,47903.565152946765
5007.832699232351,47903.81221021943
5007.858742560347,47737.457689130446
5007.884786023782,47892.346213138015
5007.910829622656,48131.62879270478
5007.936873356971,48082.88299501716
5007.962917226726,48278.75619993383
5007.988961231923,48447.162839382974
5008.015005372563,48128.98162477339
5008.041049648646,48012.7194638703
5008.067094060171,48126.4649764839
5008.0931386071425,48025.10810629711
5008.119183289558,47854.63182065799
5008.14522810742,47499.13795054055
5008.171273060728,47112.43101112056
5008.197318149483,46227.57387497138
5008.223363373687,45398.28900661565
5008.249408733339,44474.352419309886
5008.27545422844,44133.82636137131
5008.301499858992,44149.27174622135
5008.327545624995,44822.42186636667
5008.353591526448,45384.639436270176
5008.379637563355,46320.23186506885
5008.405683735714,46950.78025290542
5008.431730043527,47148.14812271178
5008.457776486794,47640.5962537693
5008.483823065515,47781.495695214
5008.509869779693,47511.95132279613
5008.535916629327,47561.09964782463
5008.561963614418,47606.47258851854
5008.588010734968,47241.37925815461
5008.614057990975,47088.03381817941
5008.640105382442,47212.95311347447
5008.666152909369,47329.062128385696
5008.692200571756,47616.19035365004
5008.718248369605,47711.00941202912
5008.744296302916,47799.817056054104
5008.77034437169,47678.06432054991
5008.796392575927,47722.5594249585
5008.822440915628,47736.09169956782
5008.848489390794,47892.888094120426
5008.874538001426,47791.388427138096
5008.900586747524,47778.058991778096
5008.926635629089,47895.04362225017
5008.952684646122,47966.31800204233
5008.978733798623,47495.364849537385
5009.004783086593,47730.085985614496
5009.030832510033,47327.930998730284
5009.056882068944,46808.66806641606
5009.082931763326,46631.07620773484
5009.108981593179,46706.33067480855
5009.135031558506,46426.535258263226
5009.161081659306,46190.688345267416
5009.187131895579,45687.081625256826
5009.213182267327,44660.17455349339
5009.239232774552,43780.79866399883
5009.265283417251,42778.767936984244
5009.291334195428,42176.43952600783
5009.317385109083,42525.33885383732
5009.343436158216,43011.39449036665
5009.369487342828,43974.827832700925
5009.395538662919,44977.089597665654
5009.421590118491,45114.271224270626
5009.447641709544,45369.86497645702
5009.473693436078,45631.45502041159
5009.499745298095,45275.44011400457
5009.525797295596,44738.42847229132
5009.55184942858,43662.23510121648
5009.577901697049,42500.54324947398
5009.603954101003,39923.82217573514
5009.630006640443,37565.67183735213
5009.65605931537,36101.0184087623
5009.682112125784,34997.75309454074
5009.708165071686,34244.52174444537
5009.7342181530785,33387.47614306255
5009.760271369959,32154.469475111644
5009.78632472233,30238.029378135503
5009.812378210192,28009.740499515967
5009.838431833546,26488.40122362599
5009.864485592391,26351.22928557412
5009.890539486731,27865.189583443826
5009.916593516564,30468.901760142722
5009.942647681891,33508.39003515358
5009.968701982713,36721.6090628988
5009.994756419032,39510.77380228858
5010.020810990847,42064.525476000425
5010.046865698159,44040.801029822134
5010.072920540969,45612.57388271397
5010.098975519279,46661.22665139009
5010.125030633087,47081.22352244527
5010.151085882395,47498.15605068984
5010.177141267204,47438.582873603285
5010.2031967875155,47589.13803946662
5010.229252443328,47800.204465156705
5010.255308234644,47750.17712113188
5010.281364161464,47707.57199422058
5010.307420223788,47711.83297127513
5010.333476421617,47388.36725355877
5010.359532754951,47113.135055701496
5010.3855892237925,46578.007247226706
5010.4116458281405,45401.45354914708
5010.437702567997,44233.53471121199
5010.463759443362,42855.314450281556
5010.489816454236,40499.59248137475
5010.51587360062,37687.369538354455
5010.541930882514,35308.09429029067
5010.56798829992,33700.79716615756
5010.5940458528385,33505.64207345336
5010.62010354127,35130.12651631649
5010.646161365214,37631.07285558109
5010.672219324672,40292.895956688284
5010.698277419646,42827.12597083855
5010.724335650135,44465.920863631785
5010.7503940161405,45999.65582503848
5010.7764525176635,46538.83834818951
5010.802511154703,47101.67394985491
5010.828569927262,47178.19007166648
5010.85462883534,47411.45809037166
5010.880687878937,47145.40889879044
5010.906747058056,47419.91794265811
5010.932806372695,47699.93235316918
5010.958865822856,47895.09653372724
5010.98492540854,48026.45163547821
5011.0109851297475,48213.029824194266
5011.0370449864795,48112.242171845166
5011.063104978735,48015.40840672265
5011.089165106517,47863.08202340914
5011.115225369825,47866.37242261935
5011.14128576866,47716.11393552158
5011.167346303022,47247.74477578759
5011.193406972913,46864.83485421046
5011.219467778333,46377.87218239454
5011.2455287192815,45365.37907631233
5011.271589795761,44195.54586017694
5011.297651007772,42997.99367048766
5011.323712355315,41368.062423862306
5011.34977383839,39903.70211170902
5011.375835456999,38977.34866295685
5011.401897211142,38521.28176285449
5011.427959100819,38184.02803942586
5011.454021126031,38082.59113378807
5011.4800832867795,37518.788386005355
5011.506145583065,36444.10023007486
5011.532208014888,34934.85331767797
5011.558270582248,32103.903266266905
5011.584333285148,28579.902866511027
5011.610396123588,24387.972828013124
5011.636459097567,20567.80497174051
5011.662522207088,17227.644834319282
5011.68858545215,14841.665609006697
5011.714648832754,13466.139294873445
5011.740712348902,13594.493181472428
5011.766776000594,14854.20418925945
5011.79283978783,17272.63477011243
5011.818903710611,20662.133457689186
5011.844967768939,24611.95538206209
5011.871031962813,28763.104159247207
5011.897096292234,32456.322598876373
5011.923160757203,34991.92528553177
5011.949225357721,36478.39638123846
5011.975290093788,36648.234811968854
5012.001354965406,35241.91887490885
5012.027419972574,33046.650782115066
5012.053485115294,30881.81010527655
5012.079550393566,29680.69732164154
5012.105615807392,30029.13348312838
5012.13168135677,31877.48290288955
5012.157747041703,34271.25096474657
5012.183812862192,36811.12489074661
5012.209878818236,38703.731809464756
5012.235944909837,39541.66935690292
5012.262011136994,39311.123249194316
5012.28807749971,38371.24620699532
5012.3141439979845,37227.95420428238
5012.340210631818,36971.495935647086
5012.366277401212,37571.055941206425
5012.392344306166,39052.407464311145
5012.418411346682,40903.626292666326
5012.44447852276,42800.717219438375
5012.470545834401,44572.723736190586
5012.496613281605,45236.28904831847
5012.522680864374,45727.92947147759
5012.548748582707,46234.86609966555
5012.574816436606,46539.69602214478
5012.600884426071,46671.619301989325
5012.626952551104,46535.41272408615
5012.653020811705,46585.83671112464
5012.679089207873,46576.62486627915
5012.705157739611,46362.19308113569
5012.73122640692,46174.58421902646
5012.757295209798,45672.97734472539
5012.7833641482475,44440.7852539708
5012.80943322227,42785.77426168691
5012.835502431864,40770.35918649291
5012.861571777033,37616.76188307385
5012.887641257775,34014.742200081695
5012.9137108740915,31194.754495950325
5012.939780625984,29211.191216324798
5012.965850513452,28727.933985845884
5012.991920536498,29760.338480934082
5013.017990695121,31971.231776890178
5013.044060989323,34571.7839963275
5013.070131419104,36712.16649545498
5013.096201984464,38284.027994720615
5013.122272685405,38638.611994352475
5013.148343521927,37907.17681915015
5013.17441449403,36043.10093165207
5013.200485601717,33445.90973423631
5013.226556844987,30096.108601084703
5013.2526282238405,26200.341097234188
5013.278699738279,22524.28074099357
5013.304771388303,20064.81247059388
5013.330843173913,19099.716608947005
5013.35691509511,19925.583799345473
5013.382987151894,22062.48646794683
5013.409059344267,25199.730631868642
5013.435131672228,28823.220557024662
5013.46120413578,32346.355943796778
5013.487276734921,35056.25857754932
5013.513349469653,36862.0056798714
5013.539422339977,38109.444036145695
5013.565495345894,39133.27175036996
5013.5915684874035,40141.76612741474
5013.617641764507,40847.18742789373
5013.643715177206,41060.190457541365
5013.6697887254995,40767.51351796821
5013.695862409389,39523.93559154403
5013.721936228875,37104.10091872606
5013.748010183958,33617.72594986532
5013.77408427464,29304.810426917065
5013.800158500921,24955.887399888165
5013.826232862801,21300.592714584738
5013.852307360281,18764.312674704528
5013.8783819933615,17362.448717535808
5013.904456762045,17552.623652595077
5013.930531666329,19419.701901399145
5013.956606706218,22374.98005074044
5013.982681881709,26208.759160135265
5014.008757192805,30831.172964533118
5014.034832639507,34952.903342178965
5014.060908221814,38177.35977041757
5014.086983939728,40686.255255657736
5014.113059793249,42437.27519641234
5014.139135782378,43216.67821144488
5014.165211907116,43034.529872089624
5014.1912881674625,43082.39967889662
5014.21736456342,43308.65877350865
5014.243441094988,43336.08284553186
5014.269517762167,43195.02617381646
5014.295594564959,42599.39383333465
5014.321671503363,42130.0912679118
