wave,flux
4450.003811362098,26782.34073578019
4450.026953690486,26556.842502006344
4450.050096139227,26155.70631129988
4450.073238708321,25339.223442525297
4450.096381397769,24503.997094138154
4450.119524207569,23487.557613503115
4450.142667137726,22002.110833709434
4450.165810188237,20378.539035048223
4450.188953359103,18749.365101114316
4450.212096650326,17095.25227435119
4450.2352400619075,15405.55968225613
4450.258383593846,13694.521288451224
4450.281527246142,11961.66497428303
4450.304671018797,10348.246841800425
4450.327814911813,9074.030097785138
4450.350958925188,8128.331852436046
4450.374103058924,7299.557292208979
4450.3972473130225,6857.48616030604
4450.420391687483,6442.31201418156
4450.443536182305,6281.457589857761
4450.466680797492,6260.641921368819
4450.489825533042,6697.657254408402
4450.512970388957,7299.7797974206005
4450.536115365237,8277.15466091739
4450.559260461882,9481.273251414335
4450.582405678895,10591.537983214064
4450.605551016274,12042.069409221991
4450.628696474022,13080.617688789733
4450.651842052138,13993.095288771072
4450.674987750623,14535.970949174305
4450.698133569476,14750.210081374289
4450.721279508702,14935.986055507346
4450.744425568297,15029.422468950093
4450.767571748264,15268.00863907999
4450.790718048604,15944.51253625192
4450.813864469315,16716.811768960204
4450.837011010401,17792.9159892773
4450.86015767186,18643.11326337323
4450.883304453694,19328.35259392944
4450.906451355903,20448.188895197545
4450.929598378489,22075.074598784224
4450.95274552145,23794.58139726959
4450.975892784789,25505.154911651327
4450.999040168505,27413.97623488673
4451.022187672601,28862.808599006188
4451.045335297074,29906.64542406775
4451.068483041929,30870.305226182365
4451.091630907163,31259.96522977907
4451.114778892777,31257.7361824336
4451.137926998774,31127.436451801736
4451.161075225153,31285.05905779431
4451.184223571914,30934.326918704162
4451.207372039059,30573.113617635147
4451.230520626587,29948.298847828977
4451.253669334501,29231.346939018797
4451.2768181628,28330.529468543325
4451.299967111485,27060.223051581266
4451.323116180556,25946.446288986495
4451.346265370014,24563.824002329413
4451.369414679861,23025.994576483095
4451.392564110095,21330.387636327203
4451.415713660719,19584.257099909348
4451.438863331732,17959.53709776133
4451.462013123136,16407.938303394665
4451.48516303493,14928.744631719737
4451.508313067117,13648.586924941423
4451.531463219695,12897.336245259086
4451.554613492666,12369.565794381924
4451.577763886031,12766.391893752743
4451.60091439979,13835.04218285424
4451.624065033943,15443.969245301536
4451.647215788492,17389.207993256627
4451.670366663436,19446.57972880857
4451.693517658777,21548.404174355994
4451.716668774516,23378.68919177854
4451.739820010652,24533.344468862724
4451.762971367186,25348.307678031637
4451.78612284412,25858.448943308365
4451.8092744414525,25705.89045750103
4451.832426159187,25083.881972839925
4451.855577997321,24279.35437647974
4451.878729955857,23366.140038925238
4451.901882034796,22334.83345594446
4451.925034234137,21503.402429276804
4451.948186553881,20816.79139046351
4451.97133899403,20446.152263697863
4451.994491554583,20289.720186266924
4452.017644235542,20889.484601166587
4452.040797036907,21919.63415063894
4452.063949958678,23214.22180022508
4452.087103000857,24930.52275634061
4452.1102561634425,26335.43115794308
4452.133409446437,27358.698416869356
4452.156562849841,28604.705611062676
4452.179716373655,29828.07126245612
4452.202870017878,30382.080325809355
4452.226023782513,30968.316367746585
4452.24917766756,31173.246408139454
4452.272331673018,31238.79144754377
4452.29548579889,30927.08178398808
4452.318640045174,30732.44747332137
4452.341794411874,30428.829563623614
4452.364948898987,30092.01333630533
4452.388103506516,29491.24328121529
4452.4112582344615,28720.512606414934
4452.434413082823,27987.408549413743
4452.457568051602,26754.955683890283
4452.480723140799,25711.615611503785
4452.503878350413,24596.005951633517
4452.527033680448,23307.22641114106
4452.550189130902,22125.814974237383
4452.5733447017765,21107.510494557584
4452.596500393071,20131.179861803877
4452.619656204789,19390.468937111356
4452.642812136928,18926.054599824743
4452.66596818949,18663.28663800023
4452.689124362475,18634.044490593016
4452.7122806558855,18687.031582546493
4452.735437069719,18906.409273263147
4452.7585936039795,19355.00496994627
4452.781750258665,20155.838282630644
4452.804907033777,20933.980563186506
4452.828063929317,21437.373958998098
4452.851220945285,22059.54438142407
4452.87437808168,22091.638133995206
4452.897535338506,21889.134991602226
4452.92069271576,21606.695221211594
4452.943850213445,21113.304118210606
4452.967007831562,20493.675360348545
4452.99016557011,20151.73326118888
4453.01332342909,19750.75669401919
4453.036481408502,20140.907872627056
4453.059639508349,20805.183729010892
4453.08279772863,21157.85573943185
4453.105956069345,21478.27337407611
4453.129114530496,21278.417120156257
4453.152273112083,21075.423570309205
4453.175431814107,20308.712328851776
4453.198590636567,19665.726060677305
4453.221749579466,18684.620851337266
4453.244908642802,18392.37958261369
4453.268067826579,17722.934039415533
4453.291227130795,17660.314371686003
4453.314386555451,17907.544410101887
4453.337546100549,18629.07286673284
4453.360705766087,19990.069530783574
4453.3838655520685,21641.146744908758
4453.407025458493,23384.46616242128
4453.430185485361,24816.499903506683
4453.453345632673,25922.367299469803
4453.476505900429,26592.283689440676
4453.4996662886315,26504.090434501864
4453.52282679728,26437.3464151566
4453.545987426375,26068.160772907388
4453.569148175917,25481.718791948282
4453.592309045907,24852.20598958114
4453.615470036346,24065.209894506672
4453.638631147233,23481.113456046194
4453.661792378571,23107.1843398154
4453.684953730359,22848.944782528797
4453.708115202598,22818.89382559331
4453.731276795288,23388.133737837612
4453.754438508431,24494.56842421475
4453.777600342027,25714.03874383156
4453.800762296077,26929.420542921154
4453.82392437058,28012.977180364873
4453.847086565538,28731.971247298898
4453.870248880952,29384.662843388633
4453.8934113168225,29944.537711180303
4453.916573873149,30277.17602145699
4453.939736549933,30556.90959426068
4453.962899347174,30367.855915051765
4453.986062264875,30182.207143304768
4454.009225303034,30154.031272213462
4454.032388461654,29645.881640424628
4454.055551740734,28745.83370002454
4454.078715140275,27939.022134572682
4454.101878660277,26855.475739195346
4454.125042300742,25414.06066012946
4454.14820606167,24099.477216199302
4454.171369943061,22848.18716550867
4454.194533944917,21144.415908449264
4454.2176980672375,19243.718864157217
4454.240862310024,17508.846087250717
4454.264026673275,15920.909795707494
4454.287191156994,14084.299438121068
4454.31035576118,12605.337027728507
4454.333520485834,11525.787826542808
4454.356685330957,10522.520714196464
4454.379850296548,10261.517566134047
4454.40301538261,10462.18821991941
4454.426180589142,11095.830884722227
4454.449345916145,11929.849172218655
4454.4725113636205,12701.227402603794
4454.495676931568,13276.965258394379
4454.5188426199875,13669.35625458673
4454.542008428882,13551.602585453264
4454.565174358249,13024.066349480696
4454.588340408092,11802.818310925692
4454.611506578411,10593.410323231266
4454.634672869205,9272.303996162062
4454.657839280476,8197.10434453616
4454.681005812225,7260.923149360346
4454.704172464451,6558.282078591259
4454.727339237156,6214.025158801249
4454.750506130341,6044.628974023834
4454.773673144005,6181.856366550238
4454.79684027815,6632.175524044791
4454.820007532776,7124.275535673655
4454.843174907884,8067.9123945213705
4454.866342403473,9105.349125272334
4454.889510019546,10027.846274515145
4454.912677756102,10974.276798662908
4454.935845613144,11722.184758481637
4454.959013590669,12196.496179517711
4454.982181688681,12435.762644751674
4455.005349907178,12908.02110312076
4455.028518246162,13508.005493492807
4455.051686705633,14277.947294988557
4455.074855285593,15254.455430374222
4455.098023986041,16145.502500172286
4455.121192806979,16784.481832401045
4455.144361748406,17167.896979139543
4455.167530810323,17319.361539538906
4455.190699992732,17217.602948136406
4455.213869295633,16674.51840198898
4455.237038719026,15894.941335725778
4455.260208262912,15519.481118493482
4455.283377927292,15378.077870889601
4455.306547712166,15632.050553937384
4455.329717617535,16546.403944450594
4455.352887643399,17858.932071336993
4455.37605778976,19476.4497856942
4455.399228056617,21319.164392017356
4455.422398443972,23203.173432247782
4455.445568951825,24463.82185144384
4455.468739580177,25532.42620630602
4455.491910329028,25794.618748435936
4455.515081198378,25664.874241396996
4455.538252188229,25094.885893183276
4455.561423298582,24096.728480771148
4455.584594529436,23150.645225983197
4455.607765880793,21796.87863416976
4455.630937352652,20174.960789880693
4455.654108945016,18606.69512160991
4455.677280657883,17195.288914051303
4455.700452491255,15681.062581771612
4455.723624445134,14503.12707929573
4455.746796519518,13241.690741769142
4455.7699687144095,11931.135694365687
4455.793141029808,10891.358047666428
4455.816313465714,9870.558046332668
4455.83948602213,9472.62472411988
4455.862658699055,9566.28588785336
4455.885831496489,10134.084122158984
4455.909004414434,11400.604848495432
4455.932177452891,13189.626301226193
4455.955350611858,15279.260350055727
4455.978523891339,17408.907648501758
4456.001697291333,19422.021830003214
4456.024870811841,21086.52562574163
4456.048044452862,22730.01067639008
4456.071218214399,23593.78170758857
4456.094392096451,24060.510691936368
4456.117566099019,23540.981976917847
4456.140740222105,23387.981272890705
4456.163914465707,22716.252666631048
4456.187088829828,21924.590676854714
4456.210263314468,20669.349199292777
4456.233437919626,19697.076263556428
4456.256612645306,18326.331844471842
4456.279787491505,17052.095713313898
4456.302962458226,15697.523279981911
4456.326137545469,14750.81002628437
4456.349312753233,14464.908025838033
4456.372488081522,14273.487643346572
4456.395663530333,14527.690125048839
4456.41883909967,15088.263085211784
4456.442014789531,15731.320124676242
4456.465190599917,16252.792309627475
4456.488366530831,16768.50550773742
4456.5115425822705,16685.264349467358
4456.5347187542375,16507.27299970224
4456.557895046733,16168.228473896568
4456.581071459757,15912.056681604578
4456.604247993311,15973.219740057453
4456.627424647395,16317.349807662307
4456.650601422009,17196.84856950609
4456.673778317154,18579.359879733307
4456.696955332832,20400.789431154833
4456.720132469041,22181.35726899176
4456.7433097257845,23898.634548470756
4456.766487103061,25061.36857145816
4456.789664600872,26023.753539874673
4456.8128422192185,26434.51631091359
4456.8360199581,26462.39714796939
4456.859197817518,26147.401479497763
4456.882375797473,25646.87171144302
4456.905553897966,24935.929896976202
4456.928732118997,24478.36375465666
4456.951910460566,23920.896965694516
4456.975088922674,23485.12343235422
4456.998267505323,23141.71624571037
4457.021446208513,22644.05773918525
4457.044625032244,22574.628755721616
4457.067803976516,22972.85046207594
4457.090983041332,23654.444363334063
4457.1141622266905,24222.09100255077
4457.1373415325925,24345.046006668203
4457.160520959039,24652.738684457763
4457.183700506031,24435.799664345133
4457.206880173568,23843.118661388544
4457.230059961651,22875.289335072972
4457.2532398702815,21598.214256451876
4457.27641989946,20327.868839977866
4457.299600049186,18822.577668354657
4457.322780319461,17152.40897690113
4457.345960710286,15696.006123991421
4457.36914122166,14237.002654762722
4457.392321853586,12817.108342884989
4457.415502606062,11954.161742639806
4457.43868347909,11597.469224842871
4457.461864472672,11792.132262179606
4457.485045586805,12625.413520840199
4457.508226821494,13800.910398252185
4457.5314081767365,15205.878218074573
4457.554589652534,16868.491970683932
4457.577771248887,18807.59710211682
4457.600952965797,20763.599457740824
4457.624134803263,22467.18555620372
4457.647316761288,23898.17698959526
4457.67049883987,25201.8473965332
4457.693681039011,26014.828552105686
4457.716863358712,26203.14363057483
4457.7400457989725,26310.218853439797
4457.763228359793,25852.51248053074
4457.7864110411765,25319.2330255905
4457.809593843121,25156.439962160137
4457.832776765628,24702.304521606395
4457.855959808699,24023.498927955094
4457.879142972333,23244.53769672358
4457.902326256532,22351.227169253514
4457.925509661296,21176.145037639773
4457.948693186626,19806.275946589572
4457.971876832522,18428.868593362382
4457.995060598985,17109.628573269754
4458.018244486016,15781.754314312091
4458.041428493615,14711.024982759112
4458.0646126217825,13763.936834530392
4458.08779687052,13185.387182812243
4458.110981239827,12980.989213179417
4458.134165729705,13048.249407464731
4458.157350340155,13551.071494934688
4458.180535071177,14017.56290849359
4458.203719922771,14488.70636181963
4458.226904894938,14875.769075025852
4458.2500899876795,15374.119851112631
4458.273275200995,16283.959819924408
4458.296460534886,17332.303295312093
4458.3196459893525,18439.213291499225
4458.342831564396,19330.759647299445
4458.366017260016,20031.05033527957
4458.389203076214,20407.361260923914
4458.4123890129895,20386.50913593142
4458.435575070344,19958.033367939537
4458.458761248279,19610.47979278521
4458.481947546794,19479.828856605658
4458.505133965889,19372.35984705036
4458.528320505566,19542.748258974687
4458.551507165825,20352.89587315672
4458.574693946666,21577.760303747433
4458.597880848091,23328.863582541664
4458.6210678701,24767.390416586753
4458.644255012693,25994.24114797455
4458.6674422758715,26917.09162828486
4458.690629659636,27248.944226937856
4458.713817163986,27061.775313116035
4458.737004788924,26587.172799147662
4458.76019253445,25730.059836845143
4458.783380400563,24595.568518400087
4458.8065683872655,23382.018173663757
4458.829756494558,21822.54403838946
4458.85294472244,20137.50036876099
4458.876133070914,18276.50660702404
4458.899321539979,16544.278670058367
4458.922510129635,14638.683072097832
4458.945698839884,12735.013380888178
4458.968887670727,10946.3589175074
4458.992076622164,9292.508590754402
4459.015265694195,7913.338610269235
4459.0384548868215,6873.640532754493
4459.061644200044,6363.535772643405
4459.084833633862,6143.058227776915
4459.108023188278,6203.572241740652
4459.131212863292,6711.914473343765
4459.154402658904,7526.580877283207
4459.177592575114,8420.55661715389
4459.200782611925,9617.105079048788
4459.223972769336,10859.636041805843
4459.247163047347,12085.879208591617
4459.27035344596,13338.998603874905
4459.293543965176,14137.179652546642
4459.316734604993,15079.09150548216
4459.339925365414,16285.059053107547
4459.363116246439,17221.749105648334
4459.386307248069,18624.256533015287
4459.409498370304,20383.597503770856
4459.432689613145,22308.939285984125
4459.455880976592,23890.5648138041
4459.479072460647,25132.24902450007
4459.502264065309,26090.9407102948
4459.52545579058,26564.71220158979
4459.5486476364595,26562.997077183223
4459.571839602949,26129.291951100615
4459.595031690048,25483.009102742744
4459.618223897759,24445.87053458277
4459.641416226081,23527.95303933998
4459.664608675014,22756.86742078744
4459.687801244561,21906.086513854916
4459.710993934721,21240.055442057204
4459.734186745496,20998.170007746747
4459.757379676885,21256.159799580208
4459.780572728889,21943.93972172679
4459.803765901509,23155.237159344237
4459.8269591947455,24302.555977438493
4459.850152608599,25405.8997529635
4459.87334614307,26457.567295907087
4459.89653979816,26920.556279157845
4459.91973357387,26987.261020818805
4459.942927470198,26591.32488168014
4459.966121487147,25796.85541736445
4459.989315624717,24864.73504149015
4460.0125098829085,23509.183525966102
4460.035704261722,22012.541144120853
4460.058898761158,20479.899626051298
4460.082093381218,18810.14820573501
4460.105288121902,17149.7513082609
4460.12848298321,15306.716723528121
4460.151677965145,13698.835192857789
4460.1748730677045,12478.55722448999
4460.198068290891,11743.594646448963
4460.221263634704,11329.170589416975
4460.244459099145,11565.739835222384
4460.267654684215,12730.637932312326
4460.290850389914,14183.199587109393
4460.314046216243,15774.757440720039
4460.337242163202,17609.63930667409
4460.360438230791,19603.916361955
4460.383634419013,21691.152740412883
4460.406830727867,23703.543002742303
4460.430027157354,25449.148465595874
4460.453223707474,27041.617148217658
4460.476420378228,28533.852860689283
4460.499617169617,29277.183862278453
4460.522814081641,29489.61300889053
4460.5460111143,29827.47701593448
4460.569208267598,30102.865324430284
4460.592405541532,30005.408700853648
4460.615602936104,30112.531533432044
4460.638800451314,29989.33545263277
4460.661998087163,29504.345292188027
4460.685195843652,29341.43259204934
4460.708393720782,28988.60991387615
4460.731591718552,28392.99259035685
4460.754789836965,27904.045720955255
4460.777988076019,27534.431595607595
4460.801186435716,27203.087059701957
4460.824384916057,26675.092722785947
4460.847583517042,25984.62598500267
4460.870782238671,25231.418422298986
4460.893981080947,24344.153592378218
4460.917180043868,23155.03354816202
4460.940379127435,21559.813032305086
4460.963578331651,20191.677203963794
4460.986777656513,18395.770239349906
4461.009977102025,16589.45782864538
4461.033176668186,14945.533075870359
4461.056376354995,13228.004946255021
4461.079576162457,11847.603554759282
4461.102776090568,10776.764308389766
4461.125976139332,10103.448015008835
4461.149176308748,9752.872071684487
4461.172376598816,9649.640816714316
4461.195577009538,9725.235471472064
4461.218777540915,10166.939624557164
4461.241978192946,10617.798157240832
4461.265178965633,10998.899461747513
4461.2883798589755,11327.073862701614
4461.311580872974,11590.6031865397
4461.3347820076315,11558.490614256842
4461.357983262946,11179.351677648578
4461.381184638919,10641.995003402912
4461.404386135551,10063.905271735468
4461.4275877528435,9429.988407006824
4461.4507894907965,9153.917650692143
4461.4739913494095,8781.646906412494
4461.497193328685,8491.790172197618
4461.520395428623,8130.764190712992
4461.543597649224,7825.785469849056
4461.566799990488,7340.579502516366
4461.590002452416,6853.891497073877
4461.61320503501,6547.1982109959945
4461.636407738269,6620.9955981287285
4461.659610562193,6959.93903148804
4461.682813506784,7683.468666055615
4461.706016572044,8658.825373304464
4461.729219757971,9871.317512909249
4461.752423064566,11219.489341201735
4461.775626491831,12476.2436940523
4461.798830039766,13356.653119233963
4461.82203370837,14008.730566490322
4461.845237497647,14098.394058062151
4461.868441407595,14206.811938844223
4461.891645438215,13546.065834164121
4461.914849589509,12834.693409258227
4461.938053861475,11937.577917566916
4461.961258254117,11437.148007413878
4461.984462767433,11347.10514505358
4462.007667401424,11612.534334930318
4462.030872156092,12315.222700354125
4462.0540770314365,13578.150903693617
4462.077282027459,15049.230713976398
4462.100487144158,16569.88709720052
4462.123692381537,17795.247145724723
4462.146897739594,18606.22425952082
4462.170103218332,18926.80614153703
4462.19330881775,19431.429085434538
4462.21651453785,19403.20725616108
4462.239720378631,19222.057843081406
4462.262926340095,18839.543571534363
4462.286132422241,18517.912792933723
4462.309338625071,17730.43769733341
4462.3325449485865,16993.744461698603
4462.355751392785,16058.681879036849
4462.3789579576705,15482.266928202645
4462.402164643242,15191.415714704242
4462.4253714495,15085.006904493637
4462.448578376446,15742.727036651138
4462.471785424079,16920.530321636656
4462.494992592401,18446.942015651093
4462.518199881412,20277.345554649728
4462.541407291114,22228.505506481717
4462.564614821506,23698.419890323155
4462.587822472589,24998.831772616402
4462.611030244365,25654.067038822017
4462.634238136832,25999.97048557853
