wave,flux
4450.003811362098,21691.90769756674
4450.026953690486,19147.50548490751
4450.050096139227,17044.318877069618
4450.073238708321,16110.66698632202
4450.096381397769,16260.37876450589
4450.119524207569,17750.730926250617
4450.142667137726,20222.2887469105
4450.165810188237,23323.199903806013
4450.188953359103,27065.764269210194
4450.212096650326,30899.429632990854
4450.2352400619075,33980.37801623439
4450.258383593846,36095.047809872594
4450.281527246142,37484.81784524501
4450.304671018797,38384.463022436714
4450.327814911813,39536.129056310165
4450.350958925188,40945.27089118171
4450.374103058924,42817.939379687945
4450.3972473130225,44748.70693835005
4450.420391687483,45783.407042444145
4450.443536182305,46386.724950254364
4450.466680797492,47214.033277716066
4450.489825533042,49133.02221618839
4450.512970388957,51068.4656841694
4450.536115365237,53940.491359987594
4450.559260461882,57362.29331982964
4450.582405678895,61241.38404839316
4450.605551016274,64814.85981188757
4450.628696474022,66791.6985927946
4450.651842052138,68950.1319999594
4450.674987750623,70321.53879667063
4450.698133569476,71400.28940502553
4450.721279508702,71976.44203559708
4450.744425568297,72338.55009744766
4450.767571748264,72290.96698491478
4450.790718048604,72114.21164742237
4450.813864469315,72057.29686171091
4450.837011010401,71491.98076672366
4450.86015767186,70896.18039916444
4450.883304453694,70087.80027139986
4450.906451355903,69253.53367374245
4450.929598378489,68577.0126327346
4450.95274552145,67179.0636996117
4450.975892784789,65262.008469527966
4450.999040168505,62856.10434413949
4451.022187672601,59577.24926340175
4451.045335297074,55465.6920185499
4451.068483041929,50232.89531132943
4451.091630907163,44549.25015109964
4451.114778892777,39235.992986141464
4451.137926998774,35127.77218135971
4451.161075225153,32651.560249673013
4451.184223571914,32375.586957706764
4451.207372039059,34072.74145999116
4451.230520626587,37519.718133618284
4451.253669334501,42118.39015963774
4451.2768181628,47354.81905319471
4451.299967111485,52544.81440219853
4451.323116180556,56718.663358241974
4451.346265370014,60730.930957451455
4451.369414679861,63511.6041460996
4451.392564110095,65457.99044916206
4451.415713660719,66436.66720074674
4451.438863331732,66918.94839146799
4451.462013123136,66207.61825862348
4451.48516303493,64477.54365925023
4451.508313067117,61924.239032083904
4451.531463219695,59213.56510298761
4451.554613492666,56517.24698229757
4451.577763886031,54877.60511857194
4451.60091439979,53758.66128892986
4451.624065033943,53876.05847146483
4451.647215788492,55118.18106268989
4451.670366663436,57194.6219090803
4451.693517658777,59426.27268793795
4451.716668774516,61561.95272707879
4451.739820010652,64066.371012560456
4451.762971367186,66642.52188331202
4451.78612284412,68201.7212129506
4451.8092744414525,69300.40899910653
4451.832426159187,70370.21654476952
4451.855577997321,71252.62528517838
4451.878729955857,72281.86053925536
4451.901882034796,72353.12111980285
4451.925034234137,72120.12510068658
4451.948186553881,72357.16576949424
4451.97133899403,72537.55209407465
4451.994491554583,72264.64412272147
4452.017644235542,71417.04317306464
4452.040797036907,70680.67855401387
4452.063949958678,69480.27320121265
4452.087103000857,67616.27643558024
4452.1102561634425,65532.74557029417
4452.133409446437,64006.2474926256
4452.156562849841,61169.9372139728
4452.179716373655,59223.09257351212
4452.202870017878,57230.57402347816
4452.226023782513,55550.61290724636
4452.24917766756,54037.57333221513
4452.272331673018,52431.82755424409
4452.29548579889,51023.36015930854
4452.318640045174,51020.788705043386
4452.341794411874,51357.606818146414
4452.364948898987,53034.01023960651
4452.388103506516,55346.56218488403
4452.4112582344615,57787.48448600188
4452.434413082823,59955.28086076228
4452.457568051602,61546.838808534565
4452.480723140799,61541.31872721155
4452.503878350413,61075.57348130305
4452.527033680448,59326.72121700686
4452.550189130902,57127.84044111106
4452.5733447017765,55188.56467417025
4452.596500393071,54418.432023583446
4452.619656204789,54479.25230668344
4452.642812136928,55408.10636834914
4452.66596818949,57031.40107366878
4452.689124362475,58737.65349714405
4452.7122806558855,60051.66185210074
4452.735437069719,60556.165761701144
4452.7585936039795,60168.8976849729
4452.781750258665,59492.3286420213
4452.804907033777,58025.4107573297
4452.828063929317,55248.25582799264
4452.851220945285,52267.81289429765
4452.87437808168,48981.20394737165
4452.897535338506,46760.877170043605
4452.92069271576,46104.635496902
4452.943850213445,47378.495129279996
4452.967007831562,50283.341957363315
4452.99016557011,53938.91778581743
4453.01332342909,57858.45394776403
4453.036481408502,61382.38542062234
4453.059639508349,64100.73197626155
4453.08279772863,65975.10811729333
4453.105956069345,67337.82251322072
4453.129114530496,67851.93804678165
4453.152273112083,67762.12310656889
4453.175431814107,67642.65594683208
4453.198590636567,66180.97407426902
4453.221749579466,64521.41933115375
4453.244908642802,62588.19990226191
4453.268067826579,60123.39016615425
4453.291227130795,58966.42744059126
4453.314386555451,58450.47841259333
4453.337546100549,59494.722621809255
4453.360705766087,60862.48039262108
4453.3838655520685,62766.12346877379
4453.407025458493,64911.87101896816
4453.430185485361,66737.77045893998
4453.453345632673,67843.9839121645
4453.476505900429,68719.75127317982
4453.4996662886315,69298.04830728394
4453.52282679728,69895.85020272173
4453.545987426375,70591.77921161024
4453.569148175917,71048.03689638754
4453.592309045907,71474.19051358162
4453.615470036346,71316.90793931783
4453.638631147233,71237.9274733767
4453.661792378571,70527.46894083447
4453.684953730359,69878.34919271074
4453.708115202598,69481.52382381169
4453.731276795288,68741.51610452624
4453.754438508431,67855.49147096988
4453.777600342027,66159.33342441214
4453.800762296077,63758.98166620046
4453.82392437058,61277.344543236024
4453.847086565538,57439.69200679067
4453.870248880952,52224.22343585452
4453.8934113168225,46624.59516351971
4453.916573873149,40758.92727044413
4453.939736549933,35606.47122148648
4453.962899347174,31888.545292923267
4453.986062264875,30265.001396185173
4454.009225303034,31012.776149612517
4454.032388461654,33295.644479313516
4454.055551740734,36316.58351213051
4454.078715140275,39855.384720929615
4454.101878660277,42881.86016392609
4454.125042300742,44372.47994237091
4454.14820606167,44399.25063815753
4454.171369943061,42828.93022875613
4454.194533944917,39989.79449152168
4454.2176980672375,36414.42496703899
4454.240862310024,32246.949231220002
4454.264026673275,28644.416820385362
4454.287191156994,24776.466904348348
4454.31035576118,21583.983886376463
4454.333520485834,19442.37826189681
4454.356685330957,17778.019846351814
4454.379850296548,17457.776196790415
4454.40301538261,18563.093262665207
4454.426180589142,20863.851251007152
4454.449345916145,23671.067743300842
4454.4725113636205,27346.544802993398
4454.495676931568,29963.56068118285
4454.5188426199875,31904.197449301646
4454.542008428882,32433.619420106766
4454.565174358249,32755.10255752001
4454.588340408092,32852.763613052564
4454.611506578411,33591.15264471843
4454.634672869205,35659.475845221954
4454.657839280476,39094.14518110914
4454.681005812225,42833.676633911564
4454.704172464451,46348.80331454362
4454.727339237156,49589.91009289473
4454.750506130341,51532.70256774501
4454.773673144005,51272.20864327488
4454.79684027815,49684.16529922128
4454.820007532776,47141.34754823996
4454.843174907884,43967.78571847225
4454.866342403473,40978.941052481205
4454.889510019546,39177.7395659811
4454.912677756102,39355.57677255792
4454.935845613144,41222.72336530112
4454.959013590669,44759.50215609352
4454.982181688681,48901.37428214882
4455.005349907178,53398.461334343396
4455.028518246162,57521.16495311325
4455.051686705633,60594.53529471236
4455.074855285593,63172.60058536584
4455.098023986041,64919.36050186629
4455.121192806979,65597.3781900054
4455.144361748406,65418.70065461427
4455.167530810323,64614.78884040541
4455.190699992732,63056.95613056605
4455.213869295633,61015.77600216674
4455.237038719026,59018.11407673476
4455.260208262912,56663.037577016294
4455.283377927292,54324.79953036958
4455.306547712166,51807.81713509063
4455.329717617535,48359.74433041426
4455.352887643399,44082.25062697822
4455.37605778976,39067.25758200327
4455.399228056617,34251.208008763904
4455.422398443972,30121.54231635288
4455.445568951825,26824.347999270874
4455.468739580177,25098.65822226697
4455.491910329028,25570.677004286834
4455.515081198378,27758.61599983206
4455.538252188229,31445.542549148977
4455.561423298582,36348.84626743082
4455.584594529436,41588.76433164352
4455.607765880793,46893.884180764304
4455.630937352652,51569.82594110717
4455.654108945016,55402.69572027245
4455.677280657883,58604.74692922168
4455.700452491255,60983.458240404376
4455.723624445134,62569.0944271017
4455.746796519518,63355.25343497184
4455.7699687144095,63494.4791695007
4455.793141029808,63067.53347209631
4455.816313465714,61931.29288213164
4455.83948602213,58796.59070809724
4455.862658699055,54928.631838537236
4455.885831496489,50868.20477280753
4455.909004414434,46526.81501155911
4455.932177452891,43493.88572953424
4455.955350611858,42014.86092968789
4455.978523891339,42223.41385814317
4456.001697291333,43213.31756127276
4456.024870811841,45588.53089077399
4456.048044452862,48441.21752738187
4456.071218214399,50292.25005115538
4456.094392096451,51027.910289649204
4456.117566099019,49984.016733322664
4456.140740222105,47991.23296889069
4456.163914465707,45122.051157406306
4456.187088829828,41747.108065697
4456.210263314468,39422.54784429471
4456.233437919626,38557.317094112586
4456.256612645306,39357.31552761668
4456.279787491505,42643.071705508635
4456.302962458226,46707.04413719309
4456.326137545469,50769.62085562278
4456.349312753233,54698.985697392876
4456.372488081522,58429.360171042514
4456.395663530333,61359.92139854375
4456.41883909967,63022.628562279715
4456.442014789531,64423.06672123592
4456.465190599917,64503.14047516937
4456.488366530831,64578.29394546573
4456.5115425822705,64420.77911369875
4456.5347187542375,63181.25447130045
4456.557895046733,61867.2283231511
4456.581071459757,60166.91379724146
4456.604247993311,58137.78192862256
4456.627424647395,57417.66689370713
4456.650601422009,57617.57530278618
4456.673778317154,58542.72563730214
4456.696955332832,60076.25544716307
4456.720132469041,61941.86544813262
4456.7433097257845,63520.95235797971
4456.766487103061,64621.87931259817
4456.789664600872,65472.27356945718
4456.8128422192185,65810.65891416284
4456.8360199581,64732.241132310184
4456.859197817518,63130.50640787604
4456.882375797473,60909.37277846185
4456.905553897966,57504.68236807144
4456.928732118997,52805.23665335527
4456.951910460566,47711.53670068415
4456.975088922674,42639.74072288122
4456.998267505323,38063.6921233769
4457.021446208513,34793.72202631762
4457.044625032244,32758.61748267414
4457.067803976516,31964.909935101274
4457.090983041332,32661.39073635171
4457.1141622266905,34372.754603910595
4457.1373415325925,37153.298077331376
4457.160520959039,41054.75612960058
4457.183700506031,45654.64738330745
4457.206880173568,50698.861785313304
4457.230059961651,55357.75224980504
4457.2532398702815,59165.40247281453
4457.27641989946,61864.88059745052
4457.299600049186,63450.040435503535
4457.322780319461,64321.668404405835
4457.345960710286,64856.581100777454
4457.36914122166,64916.34829277256
4457.392321853586,64854.787785228415
4457.415502606062,65238.1072118824
4457.43868347909,65031.148914146615
4457.461864472672,64662.17406558368
4457.485045586805,64692.110982113525
4457.508226821494,63498.262610723745
4457.5314081767365,61345.819153263255
4457.554589652534,58810.76809615871
4457.577771248887,55629.33500379388
4457.600952965797,52123.600254850746
4457.624134803263,47852.85244013675
4457.647316761288,44093.431878448304
4457.67049883987,41848.54232687036
4457.693681039011,40560.427608384714
4457.716863358712,40307.06451477297
4457.7400457989725,40859.61626107531
4457.763228359793,41196.70672865868
4457.7864110411765,40730.568071118854
4457.809593843121,40159.77817084363
4457.832776765628,40201.55790316955
4457.855959808699,41487.39544285881
4457.879142972333,43956.377472424916
4457.902326256532,47157.743839129354
4457.925509661296,50893.46918170095
4457.948693186626,54425.283502578044
4457.971876832522,56463.42889005545
4457.995060598985,57292.26109599202
4458.018244486016,57124.67991157044
4458.041428493615,55347.59013861275
4458.0646126217825,52984.514985681344
4458.08779687052,50771.77939604543
4458.110981239827,48925.90110920525
4458.134165729705,49085.017770261446
4458.157350340155,50888.00461041354
4458.180535071177,53314.86909800621
4458.203719922771,56711.14017319094
4458.226904894938,59787.89057163218
4458.2500899876795,62120.386059043856
4458.273275200995,64437.30644008987
4458.296460534886,65936.58749938855
4458.3196459893525,67056.49487550948
4458.342831564396,67391.05819763092
4458.366017260016,66946.96423429967
4458.389203076214,66541.53756352024
4458.4123890129895,65148.25238199508
4458.435575070344,63263.49003341994
4458.458761248279,60691.22442968383
4458.481947546794,57581.97808481904
4458.505133965889,53986.730280419695
4458.528320505566,49639.739855075604
4458.551507165825,43705.92648328805
4458.574693946666,37610.799284363406
4458.597880848091,31807.572060686758
4458.6210678701,26729.988170425455
4458.644255012693,22892.512155213215
4458.6674422758715,20115.10292707864
4458.690629659636,18624.683138255135
4458.713817163986,18459.007820127048
4458.737004788924,19466.760364502585
4458.76019253445,21883.72308965939
4458.783380400563,25513.297860853043
4458.8065683872655,29290.151350258384
4458.829756494558,32570.006430381407
4458.85294472244,35098.932305097704
4458.876133070914,36637.451978666264
4458.899321539979,37314.257501566244
4458.922510129635,37828.01399544587
4458.945698839884,38929.996968006475
4458.968887670727,41612.27870080093
4458.992076622164,45013.16275800129
4459.015265694195,49226.34420659998
4459.0384548868215,53799.71003182541
4459.061644200044,57950.3751122821
4459.084833633862,61421.49735975253
4459.108023188278,64015.211123936846
4459.131212863292,65705.44006693266
4459.154402658904,66939.26253576692
4459.177592575114,67911.11270047024
4459.200782611925,67471.46868767713
4459.223972769336,66110.47082216194
4459.247163047347,64811.134439569556
4459.27035344596,62749.300716231206
4459.293543965176,60248.74010232932
4459.316734604993,58254.20094287504
4459.339925365414,57147.91239326346
4459.363116246439,57344.05011464567
4459.386307248069,58089.37697797848
4459.409498370304,59729.17870129195
4459.432689613145,61758.76008995291
4459.455880976592,64056.07943092644
4459.479072460647,65925.01194633274
4459.502264065309,67109.28242382927
4459.52545579058,67521.52988699845
4459.5486476364595,67907.17845278003
4459.571839602949,67890.79884635814
4459.595031690048,67202.24561231068
4459.618223897759,66085.95095749694
4459.641416226081,64220.94488006862
4459.664608675014,61474.99011124226
4459.687801244561,57688.55500942802
4459.710993934721,52977.46081589873
4459.734186745496,47560.71390631955
4459.757379676885,42065.4964153972
4459.780572728889,37311.58201542675
4459.803765901509,33843.74948498239
4459.8269591947455,32503.100882290455
4459.850152608599,32615.285506226413
4459.87334614307,34226.41415721121
4459.89653979816,37113.812714000254
4459.91973357387,40781.39019277775
4459.942927470198,44982.18998282417
4459.966121487147,49192.935513564174
4459.989315624717,53483.45666961869
4460.0125098829085,57567.392363773564
4460.035704261722,60880.05918554614
4460.058898761158,64159.28632615344
4460.082093381218,66703.81652607908
4460.105288121902,68127.87920397811
4460.12848298321,68949.06522008889
4460.151677965145,69860.59001794459
4460.1748730677045,70492.748963331
4460.198068290891,70881.3466665501
4460.221263634704,71161.93046475828
4460.244459099145,70982.53391255045
4460.267654684215,70444.28570405373
4460.290850389914,69936.94444549504
4460.314046216243,69141.99631335562
4460.337242163202,68288.77854460789
4460.360438230791,67646.47926974185
4460.383634419013,67245.58531494043
4460.406830727867,67307.56893502212
4460.430027157354,67259.55868649093
4460.453223707474,67446.75237737819
4460.476420378228,67476.04453907514
4460.499617169617,66764.15185706278
4460.522814081641,65369.72940208987
4460.5460111143,63306.872196753124
4460.569208267598,60536.45474565118
4460.592405541532,56501.21609046118
4460.615602936104,51803.640487699064
4460.638800451314,46748.48776270747
4460.661998087163,41896.260356961204
4460.685195843652,37231.774253561416
4460.708393720782,33164.89337987921
4460.731591718552,30562.32571873862
4460.754789836965,28560.58027987102
4460.777988076019,27631.302242813978
4460.801186435716,28010.09901724009
4460.824384916057,29302.572619984865
4460.847583517042,31253.489616430725
4460.870782238671,33174.255803462926
4460.893981080947,34467.79927288743
4460.917180043868,34548.199992700334
4460.940379127435,33554.33383748638
4460.963578331651,31715.642488887235
4460.986777656513,30009.50140250941
4461.009977102025,28778.56409153204
4461.033176668186,28105.346774112742
4461.056376354995,28305.291245382894
4461.079576162457,29125.241801592285
4461.102776090568,29384.154661662305
4461.125976139332,29175.821403774113
4461.149176308748,27979.758522480177
4461.172376598816,25638.684357188216
4461.195577009538,23368.581856529734
4461.218777540915,21556.072593371064
4461.241978192946,20347.061355535843
4461.265178965633,20460.32614815154
4461.2883798589755,22484.36567854737
4461.311580872974,25677.62650290887
4461.3347820076315,29486.338726232825
4461.357983262946,34237.10270889718
4461.381184638919,39003.31747940201
4461.404386135551,42802.96479954492
4461.4275877528435,45289.69555091321
4461.4507894907965,46306.33566184366
4461.4739913494095,45574.42901773972
4461.497193328685,43290.665018288266
4461.520395428623,39641.34250689434
4461.543597649224,35397.94975766587
4461.566799990488,32322.936895823765
4461.590002452416,30859.834702819375
4461.61320503501,31050.42268935586
4461.636407738269,33411.71720552202
4461.659610562193,37080.091735236165
4461.682813506784,41138.47037170481
4461.706016572044,45247.721387909296
4461.729219757971,48520.94955517135
4461.752423064566,51119.48750031922
4461.775626491831,53374.979648631714
4461.798830039766,54509.68135396725
4461.82203370837,56359.88116138004
4461.845237497647,57139.177533341324
4461.868441407595,57702.093611943405
4461.891645438215,57171.06195658005
4461.914849589509,55650.21563008601
4461.938053861475,52592.23989705234
4461.961258254117,49166.66302242598
4461.984462767433,44931.51096164386
4462.007667401424,42206.30381680025
4462.030872156092,40305.6292670904
4462.0540770314365,40578.5552387714
4462.077282027459,42766.267113995804
4462.100487144158,45941.90204372927
4462.123692381537,50482.12290852451
4462.146897739594,55213.68412180942
4462.170103218332,58723.91059326737
4462.19330881775,61735.43149952698
4462.21651453785,63470.15368766889
4462.239720378631,64346.67830366516
4462.262926340095,64418.49308962903
4462.286132422241,64383.537335565954
4462.309338625071,64546.1061939776
4462.3325449485865,64341.528025806125
4462.355751392785,64204.85264172312
4462.3789579576705,64090.49712815871
4462.402164643242,63691.74563621097
4462.4253714495,63117.338317782305
4462.448578376446,61693.05852087151
4462.471785424079,58905.08366897784
4462.494992592401,54793.64047457161
4462.518199881412,50509.67758989345
4462.541407291114,46423.664059173185
4462.564614821506,43112.21783764663
4462.587822472589,41876.38083279091
4462.611030244365,42498.471668807666
4462.634238136832,44505.43726877411
4462.657446149992,47111.389656873005
4462.680654283847,49817.26088232021
4462.703862538396,52858.746818095104
4462.727070913639,55542.55403364403
4462.750279409578,57760.86445964395
4462.773488026214,59744.82571602794
