wave,flux
4450.003811362098,32574.059090746832
4450.026953690486,28074.053429954034
4450.050096139227,23963.08192541935
4450.073238708321,20647.76783146025
4450.096381397769,18318.45031831171
4450.119524207569,16924.793506939037
4450.142667137726,15589.87309304397
4450.165810188237,14020.69185978604
4450.188953359103,12403.655528916332
4450.212096650326,10815.273320976336
4450.2352400619075,9846.458678382065
4450.258383593846,9969.074615289499
4450.281527246142,11156.331029338715
4450.304671018797,13322.017419682532
4450.327814911813,16582.824589711912
4450.350958925188,20398.989540685732
4450.374103058924,23958.659852529312
4450.3972473130225,26908.977741004368
4450.420391687483,28235.97905469547
4450.443536182305,28044.72279361473
4450.466680797492,27193.524472395377
4450.489825533042,26527.58943581446
4450.512970388957,26710.463419204756
4450.536115365237,28032.33612813804
4450.559260461882,29997.14445535462
4450.582405678895,31091.338996305283
4450.605551016274,31593.83226646495
4450.628696474022,31365.456270142393
4450.651842052138,31967.818294109635
4450.674987750623,33929.03820693474
4450.698133569476,37572.41303685783
4450.721279508702,42236.25103168024
4450.744425568297,46412.94108560099
4450.767571748264,49594.97879401771
4450.790718048604,52042.03467521819
4450.813864469315,53548.01087600914
4450.837011010401,54112.2795744944
4450.86015767186,54565.39592950478
4450.883304453694,54986.88135021212
4450.906451355903,55027.32695459841
4450.929598378489,54991.791309117594
4450.95274552145,54782.92348528436
4450.975892784789,54186.003436366205
4450.999040168505,53601.06560849612
4451.022187672601,53258.49152908061
4451.045335297074,52674.60622483376
4451.068483041929,51691.597811790365
4451.091630907163,50764.78798771739
4451.114778892777,49332.42374960063
4451.137926998774,47896.69098853865
4451.161075225153,45901.97741350795
4451.184223571914,43295.48713095227
4451.207372039059,39639.81249157496
4451.230520626587,34887.4322823737
4451.253669334501,29766.40533180453
4451.2768181628,24583.537379903843
4451.299967111485,20535.181081521547
4451.323116180556,18496.749169480816
4451.346265370014,18330.466812905488
4451.369414679861,20454.56433267783
4451.392564110095,24166.01754564133
4451.415713660719,29359.02133349036
4451.438863331732,34794.97139921592
4451.462013123136,40056.618013306084
4451.48516303493,44437.77069994821
4451.508313067117,47678.58153974087
4451.531463219695,49836.11246364284
4451.554613492666,50832.149606758576
4451.577763886031,50891.621154872366
4451.60091439979,50004.394683206636
4451.624065033943,48547.524280623766
4451.647215788492,46383.02780430311
4451.670366663436,42961.70139462697
4451.693517658777,38951.36049280425
4451.716668774516,35525.498624810796
4451.739820010652,33096.58100166261
4451.762971367186,32457.710859879702
4451.78612284412,33846.60741852026
4451.8092744414525,36562.15497798403
4451.832426159187,39463.02562666909
4451.855577997321,41966.40259645433
4451.878729955857,44747.05824075948
4451.901882034796,47707.546798486954
4451.925034234137,50377.21799688409
4451.948186553881,52073.89623887388
4451.97133899403,53523.36423795103
4451.994491554583,54421.66703876977
4452.017644235542,55093.666076219706
4452.040797036907,55129.06444867796
4452.063949958678,55446.547047011474
4452.087103000857,55062.54505335252
4452.1102561634425,54997.59910446499
4452.133409446437,54962.139684233895
4452.156562849841,54347.7458911014
4452.179716373655,53677.19933510516
4452.202870017878,52413.58681097308
4452.226023782513,51340.79110948019
4452.24917766756,49016.6378088612
4452.272331673018,46559.25057364003
4452.29548579889,44217.400553306434
4452.318640045174,41798.1188913729
4452.341794411874,39744.060497018
4452.364948898987,37553.5363518378
4452.388103506516,35926.60784147413
4452.4112582344615,34724.250438995776
4452.434413082823,33368.6601312397
4452.457568051602,31888.657211152233
4452.480723140799,31196.45709269403
4452.503878350413,32190.37140806691
4452.527033680448,34644.779542958204
4452.550189130902,38127.137305801356
4452.5733447017765,41531.11999038472
4452.596500393071,44157.806810410744
4452.619656204789,45437.79838214719
4452.642812136928,45590.198318940944
4452.66596818949,44372.03619972389
4452.689124362475,41645.03572459958
4452.7122806558855,38179.089084262276
4452.735437069719,35299.63430094751
4452.7585936039795,33988.04027358589
4452.781750258665,34457.789258619174
4452.804907033777,36941.47450855881
4452.828063929317,40302.58829836582
4452.851220945285,42827.285636657325
4452.87437808168,44038.098277309255
4452.897535338506,44417.85625765824
4452.92069271576,43698.67262983314
4452.943850213445,42538.59287323221
4452.967007831562,40804.70223686095
4452.99016557011,38021.288999875345
4453.01332342909,34076.386298579535
4453.036481408502,30441.17295646507
4453.059639508349,27676.254290598245
4453.08279772863,27555.142403360733
4453.105956069345,30115.460626764157
4453.129114530496,34565.55784085721
4453.152273112083,39437.34945314211
4453.175431814107,44395.53810378639
4453.198590636567,47779.66620232483
4453.221749579466,49618.56984382552
4453.244908642802,50626.17107322978
4453.268067826579,51049.13897975455
4453.291227130795,50624.25502478248
4453.314386555451,50650.01059622327
4453.337546100549,49737.35560497164
4453.360705766087,47993.99901966031
4453.3838655520685,45590.04628262126
4453.407025458493,42314.62117890087
4453.430185485361,39511.36687282722
4453.453345632673,37644.78046494338
4453.476505900429,37774.52063649673
4453.4996662886315,39775.64615290929
4453.52282679728,42969.23535021001
4453.545987426375,46026.02996359254
4453.569148175917,48015.73568575944
4453.592309045907,49665.49262065288
4453.615470036346,50951.83526584996
4453.638631147233,51822.31668726872
4453.661792378571,52453.690504247774
4453.684953730359,52751.36433371829
4453.708115202598,53048.19762641729
4453.731276795288,53189.893571144006
4453.754438508431,53700.34847959564
4453.777600342027,53817.289958856214
4453.800762296077,53294.08146299458
4453.82392437058,52828.87798547997
4453.847086565538,52345.62784400062
4453.870248880952,51524.72965865167
4453.8934113168225,50406.35492468336
4453.916573873149,49473.94496752453
4453.939736549933,47929.651116759946
4453.962899347174,45776.152530137886
4453.986062264875,43129.76682506894
4454.009225303034,39813.36558263012
4454.032388461654,35256.81428478725
4454.055551740734,30181.450626484468
4454.078715140275,24993.215397437143
4454.101878660277,20196.34755915845
4454.125042300742,17132.841286353305
4454.14820606167,16256.000416032226
4454.171369943061,17488.19609985289
4454.194533944917,20728.094672546133
4454.2176980672375,24994.463685147122
4454.240862310024,29359.78452192411
4454.264026673275,32301.02126259625
4454.287191156994,33464.87359260106
4454.31035576118,33057.32540973765
4454.333520485834,30930.144027758408
4454.356685330957,27399.184307057654
4454.379850296548,23171.249397442796
4454.40301538261,19535.874097835822
4454.426180589142,16618.745348608154
4454.449345916145,14218.822459626017
4454.4725113636205,12312.585310569906
4454.495676931568,10713.76510263054
4454.5188426199875,9719.352891520295
4454.542008428882,9876.773324803056
4454.565174358249,10807.367178798217
4454.588340408092,12866.94139393076
4454.611506578411,16005.41162834888
4454.634672869205,19569.09709451655
4454.657839280476,22314.74603714006
4454.681005812225,23854.627433032016
4454.704172464451,23862.53494453809
4454.727339237156,22940.29483886969
4454.750506130341,21547.78484843573
4454.773673144005,21305.799281091076
4454.79684027815,22727.70236567583
4454.820007532776,25896.013796829287
4454.843174907884,30374.634972988002
4454.866342403473,34716.84260788745
4454.889510019546,37743.323999646185
4454.912677756102,39373.970926959555
4454.935845613144,39387.64638954149
4454.959013590669,37567.91497207409
4454.982181688681,34032.95604355559
4455.005349907178,29883.945581723245
4455.028518246162,26024.333651195182
4455.051686705633,23692.52838897009
4455.074855285593,23613.237242224346
4455.098023986041,25793.410182956064
4455.121192806979,29931.910776461606
4455.144361748406,35086.24562759513
4455.167530810323,40209.60868875795
4455.190699992732,44244.86110392823
4455.213869295633,46931.922444931406
4455.237038719026,48637.103798449585
4455.260208262912,49542.368087852665
4455.283377927292,49553.722199147516
4455.306547712166,48854.97577051429
4455.329717617535,47436.348422535324
4455.352887643399,44873.56113685893
4455.37605778976,42200.562379005285
4455.399228056617,40027.46604317795
4455.422398443972,38104.81370926701
4455.445568951825,36799.41203229378
4455.468739580177,35347.694261083445
4455.491910329028,32674.025918826283
4455.515081198378,29079.32557867547
4455.538252188229,24575.916232128013
4455.561423298582,20188.28336721213
4455.584594529436,16807.73282386138
4455.607765880793,14366.196684614113
4455.630937352652,13488.958923652966
4455.654108945016,14033.220375434863
4455.677280657883,16555.39558439733
4455.700452491255,20584.67394091989
4455.723624445134,26109.729935009338
4455.746796519518,31583.787494577035
4455.7699687144095,36678.59858944421
4455.793141029808,41703.59382629913
4455.816313465714,47142.1896235304
4455.83948602213,45217.88082311238
4455.862658699055,46813.91018444043
4455.885831496489,47290.45226533997
4455.909004414434,47982.6842066242
4455.932177452891,47547.8668655078
4455.955350611858,45999.93383873979
4455.978523891339,44285.122603806005
4456.001697291333,40639.44584508985
4456.024870811841,36785.2907573
4456.048044452862,31577.78368884213
4456.071218214399,27482.626427680396
4456.094392096451,24512.894511738818
4456.117566099019,23571.235096650653
4456.140740222105,24404.460397189327
4456.163914465707,26974.743373698933
4456.187088829828,30493.755860905734
4456.210263314468,33613.88229078219
4456.233437919626,36191.114099005055
4456.256612645306,37645.59174667801
4456.279787491505,36553.65666071243
4456.302962458226,33998.58812284754
4456.326137545469,30045.100124515044
4456.349312753233,26486.247381228513
4456.372488081522,23920.61363680663
4456.395663530333,23248.22867912717
4456.41883909967,25641.81639530156
4456.442014789531,29651.189819748975
4456.465190599917,34830.343356010104
4456.488366530831,39938.42240535331
4456.5115425822705,44271.82311958608
4456.5347187542375,47153.21884957563
4456.557895046733,48797.84246213114
4456.581071459757,49767.02018176848
4456.604247993311,49648.0253904432
4456.627424647395,49257.33380299826
4456.650601422009,48047.57252014324
4456.673778317154,47147.26471504381
4456.696955332832,45871.648811951374
4456.720132469041,44048.1276931653
4456.7433097257845,41587.005024656915
4456.766487103061,39036.11707382919
4456.789664600872,37367.22345122433
4456.8128422192185,37770.99554790542
4456.8360199581,40056.08872842769
4456.859197817518,42897.617878627694
4456.882375797473,45556.847089694376
4456.905553897966,47156.87722047499
4456.928732118997,48011.888225619055
4456.951910460566,48617.83737948857
4456.975088922674,48347.959171905604
4456.998267505323,47745.23458814941
4457.021446208513,46367.02608488434
4457.044625032244,44462.853494201554
4457.067803976516,41324.466746397375
4457.090983041332,36837.03293600703
4457.1141622266905,32015.900740371446
4457.1373415325925,26989.94834611041
4457.160520959039,22656.973251217063
4457.183700506031,19773.67487052721
4457.206880173568,18624.71483267135
4457.230059961651,18833.281727208618
4457.2532398702815,19687.82800830709
4457.27641989946,21567.434503024495
4457.299600049186,24065.63771460873
4457.322780319461,27727.64701083416
4457.345960710286,33011.69666924422
4457.36914122166,38153.2863594091
4457.392321853586,42802.7114905047
4457.415502606062,46311.278968324004
4457.43868347909,48053.43703969579
4457.461864472672,48520.69810651623
4457.485045586805,48096.405231369834
4457.508226821494,47135.604289062925
4457.5314081767365,46437.49372077041
4457.554589652534,46659.58946167054
4457.577771248887,47399.304713665035
4457.600952965797,47940.50969467198
4457.624134803263,47840.734525382875
4457.647316761288,47107.84915574446
4457.67049883987,45596.78945326009
4457.693681039011,43554.593628066934
4457.716863358712,41122.56159339867
4457.7400457989725,38180.78793109551
4457.763228359793,34674.83309631494
4457.7864110411765,30755.500725287027
4457.809593843121,27063.920709765127
4457.832776765628,24562.104259237716
4457.855959808699,24315.886110046016
4457.879142972333,25567.71830285994
4457.902326256532,27126.19304151649
4457.925509661296,28098.697845038696
4457.948693186626,27685.91672510186
4457.971876832522,26418.92857712277
4457.995060598985,25411.508953770128
4458.018244486016,26117.088358218167
4458.041428493615,28950.10455223509
4458.0646126217825,33142.50906628842
4458.08779687052,37556.63630829943
4458.110981239827,41282.9768342618
4458.134165729705,43231.6475559478
4458.157350340155,43260.05494817891
4458.180535071177,41798.15066720725
4458.203719922771,39039.155964684214
4458.226904894938,35316.982433847115
4458.2500899876795,31760.21580573483
4458.273275200995,30015.123710266205
4458.296460534886,30205.01851863605
4458.3196459893525,32760.538269317025
4458.342831564396,36884.1707248302
4458.366017260016,41336.858653135016
4458.389203076214,44994.87827329373
4458.4123890129895,47882.81606649104
4458.435575070344,49601.18000824841
4458.458761248279,50422.647955797416
4458.481947546794,50912.70753924756
4458.505133965889,50769.8832975699
4458.528320505566,50066.72417305208
4458.551507165825,48999.6600349184
4458.574693946666,47438.506012793914
4458.597880848091,45668.795956952745
4458.6210678701,43337.52212598155
4458.644255012693,40822.170756899875
4458.6674422758715,37569.76567241094
4458.690629659636,33134.228934560706
4458.713817163986,28578.44363002349
4458.737004788924,23549.065587189943
4458.76019253445,18922.269228084766
4458.783380400563,15127.15253953453
4458.8065683872655,12222.20751363824
4458.829756494558,10490.915691321705
4458.85294472244,9604.972793940375
4458.876133070914,9808.023187837794
4458.899321539979,11001.552325193485
4458.922510129635,13116.727294317117
4458.945698839884,16196.501755379912
4458.968887670727,19852.04793399744
4458.992076622164,23273.206654451427
4459.015265694195,25531.53920710597
4459.0384548868215,26596.45166988401
4459.061644200044,26076.32199297753
4459.084833633862,25235.696290838492
4459.108023188278,25135.556216862584
4459.131212863292,27106.404981480286
4459.154402658904,30989.992893504026
4459.177592575114,35997.94654692668
4459.200782611925,40963.686252337975
4459.223972769336,44918.640215468506
4459.247163047347,48287.91410218149
4459.27035344596,50181.30854477292
4459.293543965176,50983.2313941621
4459.316734604993,51430.27705679818
4459.339925365414,51216.91261217022
4459.363116246439,50185.1172233805
4459.386307248069,48711.97328293146
4459.409498370304,46476.44863192406
4459.432689613145,43299.02560090603
4459.455880976592,39795.21837077938
4459.479072460647,36669.74230331287
4459.502264065309,34899.72179655144
4459.52545579058,35080.67699879185
4459.5486476364595,37722.387670567754
4459.571839602949,41218.760679121515
4459.595031690048,44252.92874123911
4459.618223897759,46914.81809865292
4459.641416226081,49073.45306223026
4459.664608675014,50523.98339484299
4459.687801244561,50799.960801695546
4459.710993934721,50708.35488901228
4459.734186745496,50584.12810120995
4459.757379676885,49768.34976733866
4459.780572728889,48530.85389831404
4459.803765901509,46856.03102945724
4459.8269591947455,44301.08739460457
4459.850152608599,40784.459160768514
4459.87334614307,36129.54562416636
4459.89653979816,30986.633567977722
4459.91973357387,25938.33779570907
4459.942927470198,21621.55433854342
4459.966121487147,18691.441524728176
4459.989315624717,17462.311793511595
4460.0125098829085,18038.96749420198
4460.035704261722,19967.454339079603
4460.058898761158,22426.78128143775
4460.082093381218,25646.86403780013
4460.105288121902,29242.94283773224
4460.12848298321,33531.716853822254
4460.151677965145,38228.74765995437
4460.1748730677045,42544.59786988186
4460.198068290891,46209.294562572235
4460.221263634704,49044.36063736616
4460.244459099145,50518.48032144219
4460.267654684215,51718.96060951195
4460.290850389914,52593.08006613926
4460.314046216243,53013.84151401721
4460.337242163202,53440.10507836915
4460.360438230791,53626.93750045229
4460.383634419013,53774.5009407972
4460.406830727867,53747.71669920781
4460.430027157354,53492.20957029961
4460.453223707474,52736.33298857298
4460.476420378228,51240.95253330821
4460.499617169617,49799.64759979141
4460.522814081641,48719.00803757305
4460.5460111143,48108.624128563395
4460.569208267598,48362.20534324215
4460.592405541532,49236.82524689546
4460.615602936104,49974.91749077473
4460.638800451314,50242.28340043417
4460.661998087163,49838.151249267445
4460.685195843652,48398.3994769187
4460.708393720782,46324.55999212925
4460.731591718552,43603.47043169363
4460.754789836965,39440.52469126366
4460.777988076019,34400.11508751845
4460.801186435716,29506.3259613735
4460.824384916057,24948.584188361787
4460.847583517042,21215.877730324573
4460.870782238671,18809.100270734318
4460.893981080947,17335.657478020297
4460.917180043868,16480.128754102425
4460.940379127435,16234.09604014496
4460.963578331651,16827.61078664846
4460.986777656513,18691.90166857029
4461.009977102025,21140.901356069087
4461.033176668186,23657.18907077005
4461.056376354995,25294.357910767147
4461.079576162457,25629.980518448392
4461.102776090568,24309.99870028264
4461.125976139332,22125.421248562958
4461.149176308748,19826.66166073996
4461.172376598816,18255.874105917046
4461.195577009538,17962.723063430687
4461.218777540915,18667.63224550152
4461.241978192946,20051.402239631414
4461.265178965633,21105.55905495071
4461.2883798589755,21240.523366032965
4461.311580872974,19817.313062514928
4461.3347820076315,17397.46727690544
4461.357983262946,14524.276256125446
4461.381184638919,12350.112366444775
4461.404386135551,10919.110370438846
4461.4275877528435,10930.530818694122
4461.4507894907965,12361.328736884156
4461.4739913494095,14975.420024076791
4461.497193328685,19061.764162723703
4461.520395428623,23817.523460408247
4461.543597649224,28368.352711026062
4461.566799990488,32440.483917866586
4461.590002452416,34902.86883239149
4461.61320503501,35353.96025733345
4461.636407738269,34019.90875900089
4461.659610562193,30389.841259143777
4461.682813506784,26031.58417397515
4461.706016572044,21804.447472977165
4461.729219757971,18433.06559821939
4461.752423064566,17140.249041386032
4461.775626491831,18069.4631354187
4461.798830039766,20468.38454702417
4461.82203370837,24372.102353183327
4461.845237497647,29134.937018464814
4461.868441407595,32175.152101191383
4461.891645438215,35873.92369541645
4461.914849589509,36957.35973726214
4461.938053861475,37548.748739502764
4461.961258254117,38011.1437615925
4461.984462767433,39290.15171574246
4462.007667401424,40576.89348977571
4462.030872156092,41048.453861810216
4462.0540770314365,40772.65578296558
4462.077282027459,38627.14209377324
4462.100487144158,35079.79477558176
4462.123692381537,30833.03758157775
4462.146897739594,27054.490962667023
4462.170103218332,23948.119924614795
4462.19330881775,22769.48690776098
4462.21651453785,23535.0264647888
4462.239720378631,26864.15818880669
4462.262926340095,31657.16012713246
4462.286132422241,37155.7716454225
4462.309338625071,42382.04732182644
4462.3325449485865,46043.17652754637
4462.355751392785,48050.58046942936
4462.3789579576705,48898.54571423456
4462.402164643242,48380.58385289975
4462.4253714495,47587.47337169484
4462.448578376446,46308.329186388095
4462.471785424079,45479.836178772006
4462.494992592401,45635.67904327967
4462.518199881412,45770.07384181151
4462.541407291114,46122.58485153482
4462.564614821506,46439.46670067773
4462.587822472589,45832.43499541901
4462.611030244365,44000.63352464473
4462.634238136832,41193.98961579378
4462.657446149992,37213.51084670725
4462.680654283847,32552.12292236977
4462.703862538396,28136.390794067236
4462.727070913639,24911.25408686716
