wave,flux
4450.003811362098,29345.244708661732
4450.026953690486,26028.28202230706
4450.050096139227,22649.370860730247
4450.073238708321,19272.27880497915
4450.096381397769,16755.380559112225
4450.119524207569,14689.643775903376
4450.142667137726,13307.959423632103
4450.165810188237,12380.018766238089
4450.188953359103,11329.416938987428
4450.212096650326,9944.467517496152
4450.2352400619075,8858.57976773417
4450.258383593846,8250.959856176776
4450.281527246142,8075.550041266456
4450.304671018797,8892.92167886239
4450.327814911813,10693.71108473801
4450.350958925188,13238.649739077346
4450.374103058924,16177.371410626509
4450.3972473130225,19086.7458324549
4450.420391687483,21536.30401158718
4450.443536182305,22660.866121658048
4450.466680797492,22720.346369628885
4450.489825533042,22218.729374796316
4450.512970388957,21364.3474787459
4450.536115365237,21364.91969532345
4450.559260461882,22444.797111539905
4450.582405678895,23814.488576718893
4450.605551016274,24784.99998439567
4450.628696474022,25217.022013165166
4450.651842052138,25082.16464094405
4450.674987750623,25798.352832004504
4450.698133569476,27150.338838095588
4450.721279508702,30383.273718282908
4450.744425568297,33749.08547739229
4450.767571748264,37352.043118054666
4450.790718048604,40283.134056176736
4450.813864469315,42147.127825802076
4450.837011010401,43098.27411556219
4450.86015767186,43967.287570311935
4450.883304453694,44406.14574998461
4450.906451355903,44683.78623333893
4450.929598378489,44545.24252224199
4450.95274552145,44471.687419452865
4450.975892784789,44419.39347225761
4450.999040168505,44226.18265901594
4451.022187672601,43708.84220651901
4451.045335297074,42964.21643190682
4451.068483041929,42529.865783592155
4451.091630907163,41851.040785207835
4451.114778892777,40971.459083425834
4451.137926998774,40152.434516546244
4451.161075225153,38723.401548071444
4451.184223571914,36756.70609602744
4451.207372039059,34525.597202793884
4451.230520626587,31699.2122809987
4451.253669334501,27938.662466275862
4451.2768181628,24139.822752461107
4451.299967111485,20047.110191176012
4451.323116180556,17039.936477627085
4451.346265370014,15143.305540131969
4451.369414679861,14955.435486412034
4451.392564110095,16460.370936111925
4451.415713660719,19591.727198381464
4451.438863331732,23608.120713781536
4451.462013123136,27609.03785389804
4451.48516303493,31933.394909178533
4451.508313067117,35507.82499983995
4451.531463219695,38287.43581407106
4451.554613492666,39864.48350543206
4451.577763886031,40867.81991022881
4451.60091439979,40941.47518369117
4451.624065033943,40529.215938207795
4451.647215788492,38945.67643129261
4451.670366663436,37028.35955744123
4451.693517658777,34470.17703417735
4451.716668774516,31517.09936031324
4451.739820010652,28739.887583970947
4451.762971367186,26717.631502801087
4451.78612284412,26213.05613386827
4451.8092744414525,27325.02911300693
4451.832426159187,29312.310266182532
4451.855577997321,31478.832107183778
4451.878729955857,33939.1332531262
4451.901882034796,36443.7388531813
4451.925034234137,38746.36595952876
4451.948186553881,40608.12141306344
4451.97133899403,42004.480930346675
4451.994491554583,43291.973934406444
4452.017644235542,44004.65478872729
4452.040797036907,44579.826189640895
4452.063949958678,44674.770243612795
4452.087103000857,44583.63927827343
4452.1102561634425,44593.22528602066
4452.133409446437,44408.10427772666
4452.156562849841,44094.85569961053
4452.179716373655,43978.559249544705
4452.202870017878,43312.26995996217
4452.226023782513,42456.68846817133
4452.24917766756,41101.947448555584
4452.272331673018,39296.174801878806
4452.29548579889,37492.60751622429
4452.318640045174,35674.2559678099
4452.341794411874,33702.274116936256
4452.364948898987,31556.225225773873
4452.388103506516,30105.84836162593
4452.4112582344615,28683.46886908135
4452.434413082823,27731.47645726993
4452.457568051602,26773.34219241187
4452.480723140799,25949.494685828544
4452.503878350413,25424.637157028305
4452.527033680448,25714.246142754386
4452.550189130902,27983.191560747822
4452.5733447017765,30758.882586060674
4452.596500393071,33132.532668165535
4452.619656204789,35288.90272662101
4452.642812136928,36428.69264933752
4452.66596818949,36591.807019742904
4452.689124362475,35409.75141579773
4452.7122806558855,33397.247419200045
4452.735437069719,30786.965502091527
4452.7585936039795,28636.333331777656
4452.781750258665,27347.1690927511
4452.804907033777,27652.108425481507
4452.828063929317,29610.78973811085
4452.851220945285,32217.985303348298
4452.87437808168,34504.30304465825
4452.897535338506,35413.77110186555
4452.92069271576,35421.4660701027
4452.943850213445,34938.1740552244
4452.967007831562,34071.29662976083
4452.99016557011,32524.87192290748
4453.01332342909,30209.848831330426
4453.036481408502,27555.283620451988
4453.059639508349,24467.11859257592
4453.08279772863,22460.26151161898
4453.105956069345,22410.673256993177
4453.129114530496,24174.37165552139
4453.152273112083,27349.964248125263
4453.175431814107,31996.77808092319
4453.198590636567,35471.07284133292
4453.221749579466,38141.856891977055
4453.244908642802,40048.14982227553
4453.268067826579,41080.6607068924
4453.291227130795,40983.81458175016
4453.314386555451,41084.54531318318
4453.337546100549,40798.173168481844
4453.360705766087,40132.33818659441
4453.3838655520685,38509.385088201605
4453.407025458493,36849.114693326286
4453.430185485361,33894.1749533418
4453.453345632673,31778.25039925957
4453.476505900429,30273.196964590534
4453.4996662886315,30325.828463178113
4453.52282679728,31859.783653365204
4453.545987426375,34487.69309508536
4453.569148175917,36861.33308484893
4453.592309045907,38785.61175805194
4453.615470036346,40063.752214985856
4453.638631147233,41241.60278174148
4453.661792378571,42038.39201489079
4453.684953730359,42441.85843996668
4453.708115202598,42642.98225660597
4453.731276795288,43065.37998604817
4453.754438508431,43545.08093497647
4453.777600342027,43468.880825415225
4453.800762296077,43176.73709829124
4453.82392437058,43159.80913004492
4453.847086565538,42938.94719972999
4453.870248880952,42472.07412828951
4453.8934113168225,41800.3176379118
4453.916573873149,40831.93713609873
4453.939736549933,39671.1133075376
4453.962899347174,38535.59219674715
4453.986062264875,36897.8412352719
4454.009225303034,34490.070593656455
4454.032388461654,31539.360660695027
4454.055551740734,27981.08645861962
4454.078715140275,24055.0897198932
4454.101878660277,19922.94447200311
4454.125042300742,16392.5751678976
4454.14820606167,14044.67816327861
4454.171369943061,13185.101888173369
4454.194533944917,14100.387546240283
4454.2176980672375,16531.176066423362
4454.240862310024,19773.236781440013
4454.264026673275,23194.57710597969
4454.287191156994,25729.79487482135
4454.31035576118,26648.65476803015
4454.333520485834,26317.857670503585
4454.356685330957,24783.75629356096
4454.379850296548,22044.90706699096
4454.40301538261,18730.31794434887
4454.426180589142,15546.711174230813
4454.449345916145,13224.882020836185
4454.4725113636205,11277.185309461112
4454.495676931568,9861.940127964588
4454.5188426199875,8693.718908831188
4454.542008428882,8018.386675378866
4454.565174358249,7769.237771481658
4454.588340408092,8598.49555615664
4454.611506578411,10341.456802545532
4454.634672869205,12585.52542260139
4454.657839280476,15170.269544394583
4454.681005812225,17605.98419796111
4454.704172464451,18934.79337654202
4454.727339237156,19122.248024596207
4454.750506130341,18331.61211067224
4454.773673144005,17464.472758839463
4454.79684027815,17180.5528522692
4454.820007532776,18301.303056729626
4454.843174907884,20810.908145814738
4454.866342403473,24081.63406893825
4454.889510019546,27472.08121081532
4454.912677756102,30238.31794134343
4454.935845613144,31500.123122580393
4454.959013590669,31366.72848570957
4454.982181688681,29925.47732395289
4455.005349907178,27064.722634705613
4455.028518246162,24082.407441211602
4455.051686705633,21161.54861417621
4455.074855285593,19175.383373958448
4455.098023986041,18959.585760096903
4455.121192806979,20785.194782047813
4455.144361748406,24079.716993337883
4455.167530810323,28112.756573351635
4455.190699992732,32218.945375857842
4455.213869295633,35634.681341764735
4455.237038719026,37826.10976105075
4455.260208262912,39129.455149317124
4455.283377927292,40134.7134706468
4455.306547712166,40178.15915339494
4455.329717617535,39157.47694000178
4455.352887643399,37990.428267705436
4455.37605778976,36295.8487746005
4455.399228056617,34029.93633182516
4455.422398443972,32075.12177565593
4455.445568951825,30717.457839366714
4455.468739580177,29277.280671832363
4455.491910329028,27859.15120708169
4455.515081198378,26161.36728727265
4455.538252188229,23094.052445751808
4455.561423298582,19642.847456693733
4455.584594529436,16408.458282386284
4455.607765880793,13565.360842711934
4455.630937352652,11629.82136967894
4455.654108945016,10927.12585788832
4455.677280657883,11468.92336987287
4455.700452491255,13326.588781252007
4455.723624445134,16576.98566316159
4455.746796519518,20686.10279464716
4455.7699687144095,25206.013988979324
4455.793141029808,29265.2364229992
4455.816313465714,32347.533475032316
4455.83948602213,34740.28721291478
4455.862658699055,36422.88946749893
4455.885831496489,37463.44076339518
4455.909004414434,38114.63147591644
4455.932177452891,38165.05884058272
4455.955350611858,37829.32763593661
4455.978523891339,37170.57968262796
4456.001697291333,35569.77268651352
4456.024870811841,32907.309901632805
4456.048044452862,29373.535714939877
4456.071218214399,25627.674798618336
4456.094392096451,22065.79810537624
4456.117566099019,19786.773962757747
4456.140740222105,19031.874218639812
4456.163914465707,19597.62082348556
4456.187088829828,21521.66443678384
4456.210263314468,24093.54177183989
4456.233437919626,26580.916759001913
4456.256612645306,28816.573658667632
4456.279787491505,29890.407022030846
4456.302962458226,29197.22403697678
4456.326137545469,27242.968204442062
4456.349312753233,24269.13802339958
4456.372488081522,21448.929014669015
4456.395663530333,19646.380457851737
4456.41883909967,19154.506802456282
4456.442014789531,20687.8868843311
4456.465190599917,24084.15610991062
4456.488366530831,28006.200906580136
4456.5115425822705,32254.86226829198
4456.5347187542375,35475.937413445565
4456.557895046733,38248.27802811418
4456.581071459757,39424.19411351412
4456.604247993311,40098.05643590776
4456.627424647395,40192.188336642204
4456.650601422009,39942.86046883112
4456.673778317154,38844.08934148446
4456.696955332832,38218.19108518544
4456.720132469041,37073.557941663996
4456.7433097257845,35430.517451995715
4456.766487103061,33557.458362892394
4456.789664600872,31673.121098413558
4456.8128422192185,30341.327840810023
4456.8360199581,30501.35988172021
4456.859197817518,31816.260870100963
4456.882375797473,34180.80962584929
4456.905553897966,36490.807795066146
4456.928732118997,37770.48388942012
4456.951910460566,38510.757046551196
4456.975088922674,38811.71783871251
4456.998267505323,38777.836715628946
4457.021446208513,38267.22683988673
4457.044625032244,37053.747453334094
4457.067803976516,35528.55458508029
4457.090983041332,32988.83720298241
4457.1141622266905,29508.438164609746
4457.1373415325925,25879.77656636668
4457.160520959039,21869.53166959554
4457.183700506031,18488.331959817144
4457.206880173568,16228.293566931485
4457.230059961651,15131.679473367094
4457.2532398702815,14905.45859191072
4457.27641989946,15690.74772495405
4457.299600049186,17174.737069853974
4457.322780319461,19184.38369216463
4457.345960710286,22180.280148632097
4457.36914122166,26376.07853006463
4457.392321853586,30685.030822997443
4457.415502606062,34225.41921439976
4457.43868347909,37079.74610194393
4457.461864472672,38930.83045708977
4457.485045586805,39204.93020300548
4457.508226821494,38770.41259606684
4457.5314081767365,38104.34260058787
4457.554589652534,37699.21857405792
4457.577771248887,37639.85766716532
4457.600952965797,38322.88772963444
4457.624134803263,38655.46042190353
4457.647316761288,38472.45803252769
4457.67049883987,37933.549089913264
4457.693681039011,36706.831076694856
4457.716863358712,34852.15090631061
4457.7400457989725,32808.42836245043
4457.763228359793,30439.62756853379
4457.7864110411765,27811.811240194467
4457.809593843121,24713.23034879291
4457.832776765628,21691.808242260977
4457.855959808699,19914.19996008009
4457.879142972333,19459.325519048452
4457.902326256532,20207.913442417856
4457.925509661296,21502.04940832458
4457.948693186626,22421.106643407493
4457.971876832522,22277.601162839805
4457.995060598985,21265.233953960276
4458.018244486016,20378.77430982719
4458.041428493615,20933.81780461999
4458.0646126217825,23085.30661854479
4458.08779687052,26261.598626385072
4458.110981239827,29822.61373982098
4458.134165729705,32754.218492233067
4458.157350340155,34497.175637845496
4458.180535071177,34831.94799455594
4458.203719922771,33864.13167865533
4458.226904894938,31683.91856899312
4458.2500899876795,28705.374922042272
4458.273275200995,25973.917716385782
4458.296460534886,24380.652446393804
4458.3196459893525,24419.24942323856
4458.342831564396,26349.864222951288
4458.366017260016,29532.287062261872
4458.389203076214,32976.09924873896
4458.4123890129895,36100.07897378474
4458.435575070344,38413.09802849807
4458.458761248279,40013.28597722964
4458.481947546794,40853.03749740181
4458.505133965889,41070.719519271865
4458.528320505566,40943.9787230693
4458.551507165825,40229.983891867036
4458.574693946666,39339.53905493046
4458.597880848091,38233.227154806074
4458.6210678701,36572.73933778487
4458.644255012693,34753.70236572083
4458.6674422758715,32496.653610592803
4458.690629659636,29713.054839867513
4458.713817163986,26681.952693954114
4458.737004788924,22941.934651407963
4458.76019253445,18974.877169830972
4458.783380400563,15247.839955373734
4458.8065683872655,11954.23822648309
4458.829756494558,9718.284699858
4458.85294472244,8385.158399840913
4458.876133070914,7827.766866470049
4458.899321539979,7933.887889624618
4458.922510129635,8762.059605082766
4458.945698839884,10389.476329697305
4458.968887670727,12684.087953047421
4458.992076622164,15537.036086610917
4459.015265694195,18255.579534288623
4459.0384548868215,20278.63441984475
4459.061644200044,21020.095521913947
4459.084833633862,20871.035302830238
4459.108023188278,20486.823198812843
4459.131212863292,20316.64296443284
4459.154402658904,21766.831853517953
4459.177592575114,24962.37064680882
4459.200782611925,28999.54204804662
4459.223972769336,33163.97711791171
4459.247163047347,36663.04617020833
4459.27035344596,38807.09138924684
4459.293543965176,40162.19338729914
4459.316734604993,41119.86556493787
4459.339925365414,41532.851775686664
4459.363116246439,41421.91316477083
4459.386307248069,40692.98881875267
4459.409498370304,39136.15124597845
4459.432689613145,37012.79666815371
4459.455880976592,34533.61493966469
4459.479072460647,31977.85797207867
4459.502264065309,29507.66933819737
4459.52545579058,27964.525553406973
4459.5486476364595,28264.285236095686
4459.571839602949,30090.82387774873
4459.595031690048,32779.636003070664
4459.618223897759,35590.10680195144
4459.641416226081,38097.42812509614
4459.664608675014,39867.89506294317
4459.687801244561,40452.147804451364
4459.710993934721,41112.75857728332
4459.734186745496,41508.22701635276
4459.757379676885,40851.747775536314
4459.780572728889,40039.45023302813
4459.803765901509,38739.64750951247
4459.8269591947455,37215.83495956608
4459.850152608599,35182.99275651273
4459.87334614307,32421.793791241595
4459.89653979816,28924.138004555585
4459.91973357387,24944.937185821007
4459.942927470198,21193.421054036782
4459.966121487147,17761.21788012738
4459.989315624717,15258.193066792886
4460.0125098829085,14323.045851190756
4460.035704261722,14624.348380709844
4460.058898761158,15909.769057299785
4460.082093381218,17732.332383181118
4460.105288121902,20030.95574001608
4460.12848298321,23277.422051173602
4460.151677965145,26830.717925449517
4460.1748730677045,30412.740010234782
4460.198068290891,34016.45173156153
4460.221263634704,37032.60579852574
4460.244459099145,39426.74884042822
4460.267654684215,40931.58464980693
4460.290850389914,41533.563756415984
4460.314046216243,42337.677524181956
4460.337242163202,42711.62636638334
4460.360438230791,42911.52733656881
4460.383634419013,43477.52058268222
4460.406830727867,43873.33368565857
4460.430027157354,43576.65321891302
4460.453223707474,42915.67509219482
4460.476420378228,42408.264488268345
4460.499617169617,41136.22460054994
4460.522814081641,40154.38763809637
4460.5460111143,39444.77749086038
4460.569208267598,38758.06722400871
4460.592405541532,39327.542991086906
4460.615602936104,39935.78056514504
4460.638800451314,40133.59936706856
4460.661998087163,40267.63513571927
4460.685195843652,39791.04753666169
4460.708393720782,38779.274705532305
4460.731591718552,37132.47658918864
4460.754789836965,34438.6206874945
4460.777988076019,31446.2922131761
4460.801186435716,27801.180880461747
4460.824384916057,23766.82144312662
4460.847583517042,20154.742881757415
4460.870782238671,17075.667726281314
4460.893981080947,15040.805619102353
4460.917180043868,14022.850514783695
4460.940379127435,13346.040616710805
4460.963578331651,13332.288497387133
4460.986777656513,13712.559349923658
4461.009977102025,14860.121919722036
4461.033176668186,16486.91148394421
4461.056376354995,18503.627008059997
4461.079576162457,20170.037647175213
4461.102776090568,20364.153770683813
4461.125976139332,19829.94668442566
4461.149176308748,17930.926516822743
4461.172376598816,16049.161427381901
4461.195577009538,14852.031290851219
4461.218777540915,14508.11014098498
4461.241978192946,14921.741798449168
4461.265178965633,16023.917582877119
4461.2883798589755,16724.845616719118
4461.311580872974,16709.152355294755
4461.3347820076315,15653.928486987252
4461.357983262946,14154.202263736237
4461.381184638919,11909.887897677503
4461.404386135551,9977.812956224227
4461.4275877528435,8782.87345663044
4461.4507894907965,8755.188327055866
4461.4739913494095,9700.519533152905
4461.497193328685,12030.602475030399
4461.520395428623,15052.690874489825
4461.543597649224,18518.367351860357
4461.566799990488,20580.854687647425
4461.590002452416,25397.004472572135
4461.61320503501,27325.8622927091
4461.636407738269,27870.814162351635
4461.659610562193,26849.066565512818
4461.682813506784,24331.706412687527
4461.706016572044,20960.457568852507
4461.729219757971,17549.1552564475
4461.752423064566,15078.3700742118
4461.775626491831,13971.095814666887
4461.798830039766,14317.374129346781
4461.82203370837,16305.36069493222
4461.845237497647,19374.23564109972
4461.868441407595,23034.38845687598
4461.891645438215,26186.900549413123
4461.914849589509,28602.709944256312
4461.938053861475,29461.32654243808
4461.961258254117,29901.662293798385
4461.984462767433,30539.268492382766
4462.007667401424,31266.206296843826
4462.030872156092,32251.113266485663
4462.0540770314365,32698.26160761729
4462.077282027459,32356.685261517112
4462.100487144158,30815.279243481764
4462.123692381537,28224.45229906088
4462.146897739594,24900.77568937267
4462.170103218332,21704.65583525378
4462.19330881775,19394.77074036857
4462.21651453785,18354.95808181865
4462.239720378631,18997.26195484093
4462.262926340095,21513.43020311194
4462.286132422241,25487.23021443545
4462.309338625071,29979.51262345754
4462.3325449485865,33792.840852700785
4462.355751392785,36788.250120576224
4462.3789579576705,38883.363823468586
4462.402164643242,39683.20409503009
4462.4253714495,39200.35686709665
4462.448578376446,38191.74230846763
4462.471785424079,37460.63593802228
4462.494992592401,36917.97329494115
4462.518199881412,36609.173543547186
4462.541407291114,37058.97912474373
4462.564614821506,37350.504725806764
4462.587822472589,36852.31994900752
4462.611030244365,36460.26861797716
4462.634238136832,35273.05140226005
4462.657446149992,32961.71383166886
4462.680654283847,29908.938201093744
4462.703862538396,26450.101577049947
