wave,flux
5000.025812696027,10321.895681734914
5000.051815424163,11268.081904223853
5000.0778182875265,12585.752934411106
5000.103821286119,13756.650059245341
5000.12982441994,14632.009807884484
5000.155827688991,15387.259963837156
5000.181831093272,16028.939738657875
5000.207834632784,16196.971153698938
5000.2338383075285,15888.509057161777
5000.259842117506,15290.782345604048
5000.285846062716,14357.51162484306
5000.311850143161,13290.954118549484
5000.33785435884,12389.135215196933
5000.363858709754,11796.649562890221
5000.389863195905,11856.697994677173
5000.415867817292,12288.203918354442
5000.441872573917,12758.608760132485
5000.4678774657805,13299.024270897036
5000.493882492882,13780.819274558567
5000.519887655224,14241.809630247291
5000.545892952806,14166.30831122727
5000.571898385629,14212.453197251632
5000.597903953694,14191.733561666222
5000.623909657001,14177.461903527343
5000.649915495552,14571.378847824439
5000.675921469346,15238.74749427927
5000.701927578384,15960.996524571321
5000.727933822669,16584.897820855706
5000.7539402021985,16860.727438759863
5000.779946716975,16904.771135120423
5000.805953366999,16889.268934786644
5000.831960152272,16901.077824539458
5000.857967072792,16740.701994961004
5000.883974128563,16735.30123235369
5000.9099813195835,16632.7787678379
5000.935988645855,16638.595139410278
5000.961996107378,16567.015105099326
5000.988003704153,16160.258069252328
5001.014011436181,15641.286890450176
5001.040019303464,14665.45267861919
5001.066027306,13641.20173848501
5001.092035443791,13033.009776577286
5001.118043716839,12681.491048919135
5001.1440521251425,12810.56108526752
5001.170060668704,13501.256158102122
5001.196069347523,14181.510922764865
5001.222078161601,14699.152239655654
5001.248087110937,15031.77452884502
5001.274096195534,15202.909222456601
5001.300105415392,14811.529775923625
5001.326114770512,14167.82985311785
5001.352124260892,13221.983958815334
5001.3781338865365,11992.051412738992
5001.4041436474445,10520.399085245112
5001.430153543616,8993.417993828149
5001.456163575053,7652.04828491476
5001.482173741756,6804.751557440638
5001.508184043724,6595.039541610358
5001.534194480961,6988.88948127765
5001.560205053464,8013.292680015601
5001.586215761236,9458.775587923386
5001.612226604278,10943.241031610523
5001.638237582589,12575.182055618252
5001.664248696171,14053.16039950008
5001.690259945024,15119.94681497196
5001.716271329149,15840.226292605123
5001.742282848547,16459.127824917607
5001.768294503218,16821.646810319122
5001.794306293164,17127.378637726677
5001.820318218383,17258.25968846614
5001.84633027888,17564.606497113644
5001.872342474651,17798.417120954116
5001.8983548056995,17679.117266627767
5001.924367272026,17576.418794285506
5001.9503798736305,17651.433824793963
5001.976392610514,17663.357585139183
5002.002405482678,17477.93114711427
5002.028418490122,17213.148232750365
5002.054431632847,17199.197999768352
5002.080444910854,16979.03595620029
5002.106458324142,16874.763227914576
5002.1324718727155,16696.448296936916
5002.158485556572,16466.05435894549
5002.184499375713,16256.525031006253
5002.210513330139,15961.147010736904
5002.236527419852,15708.362243463765
5002.262541644852,15496.661958933357
5002.288556005138,14951.321201587418
5002.314570500714,14103.003429012004
5002.340585131577,12983.058615306541
5002.36659989773,11692.830619867109
5002.392614799174,10563.333446791563
5002.418629835909,9861.244007638015
5002.444645007936,9915.852138535256
5002.4706603152545,10745.98233077051
5002.496675757866,12028.245301193276
5002.522691335772,13407.871930479214
5002.548707048972,14713.193412146473
5002.574722897468,15566.357867627963
5002.600738881259,16428.723350707987
5002.626755000347,16953.141598874634
5002.652771254732,17230.974430084436
5002.678787644415,17532.679837322197
5002.704804169397,17671.129972410283
5002.730820829678,17618.121052738603
5002.75683762526,17748.083353484093
5002.782854556142,17800.004524704185
5002.8088716223265,17700.525175586277
5002.834888823812,17655.2079466327
5002.860906160601,17654.949689792127
5002.886923632695,17859.80643585591
5002.912941240092,17746.361823113584
5002.938958982793,17697.247377028998
5002.9649768608015,17497.09542555748
5002.990994874116,17586.06581023327
5003.017013022737,17662.45927899465
5003.043031306666,17274.658410955995
5003.069049725905,17259.96963286033
5003.095068280452,17272.744664725713
5003.121086970309,17208.132267040546
5003.147105795477,17356.57824541222
5003.173124755956,17411.809713917293
5003.199143851748,17423.73561553437
5003.225163082852,17372.733391035574
5003.251182449269,17121.501051077576
5003.277201951001,16717.72159210342
5003.3032215880485,16095.032899419974
5003.32924136041,15416.89272564243
5003.35526126809,14827.925091391824
5003.381281311085,14429.69831274008
5003.407301489398,14425.027177459326
5003.433321803031,14892.091089506175
5003.459342251982,15628.18436495647
5003.4853628362525,15941.226002908761
5003.511383555844,16248.845247397863
5003.537404410757,16322.368825897489
5003.563425400991,15819.533931326234
5003.589446526548,15179.876715507673
5003.615467787429,14392.938240018468
5003.641489183634,13517.465396430292
5003.667510715163,12998.024279203813
5003.693532382018,13060.75098644406
5003.719554184199,13472.237954537342
5003.745576121707,14021.035867173237
5003.771598194542,14738.965840213688
5003.797620402706,15395.409342246454
5003.823642746199,15766.568793490893
5003.849665225021,16096.502811570139
5003.875687839174,16185.956160597203
5003.901710588658,16361.837387050356
5003.927733473473,16337.150092131407
5003.953756493622,16184.159294327623
5003.979779649103,16097.330724489151
5004.005802939919,16230.008483232516
5004.031826366068,16332.910819739429
5004.057849927553,16749.509386985486
5004.083873624375,17116.167969985872
5004.109897456533,17319.47236709891
5004.135921424028,17487.14279528782
5004.161945526862,17573.297980576197
5004.187969765035,17714.11322873251
5004.213994138547,17806.619591176266
5004.240018647399,17779.334574990364
5004.266043291592,17934.74229955958
5004.292068071127,17867.644626015346
5004.318092986004,17729.34274756795
5004.344118036223,17793.296905258285
5004.370143221788,17750.74240749636
5004.396168542696,17491.416503106957
5004.422193998949,17595.821819957895
5004.448219590549,17173.487494711237
5004.474245317495,16849.990877091604
5004.500271179789,16712.478778084795
5004.52629717743,16352.93647702874
5004.5523233104195,16278.590796859957
5004.578349578759,16300.688167241084
5004.604375982449,16162.25563491638
5004.630402521489,15946.750719939013
5004.656429195881,15448.192710063971
5004.682456005625,14577.251092500204
5004.708482950721,13526.650727566306
5004.734510031172,12339.232186629597
5004.760537246977,10923.74007537808
5004.7865645981365,9831.55089354707
5004.812592084652,9565.296840484396
5004.838619706525,10073.350265936055
5004.8646474637535,11183.461218479719
5004.890675356341,12510.964297565963
5004.916703384286,13788.901452320526
5004.942731547591,14940.368110374153
5004.968759846256,15637.214290187881
5004.994788280281,16234.681329716463
5005.020816849668,16368.771108294444
5005.046845554417,16327.603150435141
5005.072874394528,16275.226572480464
5005.098903370003,16000.794986953906
5005.124932480842,15535.499264127691
5005.150961727047,15007.818929457053
5005.176991108617,14326.025917006236
5005.203020625552,13377.40189293659
5005.229050277856,12173.02191391332
5005.255080065526,10505.823617727661
5005.281109988566,9037.720181791372
5005.3071400469735,7937.566814820027
5005.333170240751,7080.326060811463
5005.3592005699,6814.8041592370155
5005.38523103442,7309.096735583491
5005.411261634312,8202.653061906381
5005.4372923695755,9426.250404605791
5005.463323240213,10699.131988040419
5005.489354246225,11788.207719460384
5005.515385387611,12384.740791448105
5005.541416664373,12615.759031928153
5005.567448076511,12351.40489913058
5005.593479624025,11658.532004333516
5005.619511306918,10669.287051605255
5005.645543125189,9330.393572491415
5005.671575078838,7897.997762367715
5005.697607167867,6734.42568574155
5005.723639392277,5998.097873597292
5005.749671752068,5659.3940888871675
5005.77570424724,5856.687978577905
5005.8017368777955,6566.487587544946
5005.8277696437335,7813.104183084106
5005.853802545055,9246.02542466984
5005.879835581762,10900.889855575404
5005.905868753854,12432.30920182123
5005.931902061331,13896.090531221418
5005.957935504196,14909.81990649472
5005.983969082448,15744.902899474617
5006.010002796088,16393.981625575732
5006.036036645117,16884.557219378483
5006.062070629536,17222.01773461018
5006.088104749344,17390.83487951122
5006.114139004544,17396.05601352838
5006.140173395135,17360.467701207523
5006.166207921118,17317.941529877015
5006.192242582495,17274.35417357948
5006.218277379266,17214.423137031823
5006.244312311431,17070.710199912624
5006.270347378991,17187.940245685313
5006.296382581946,17031.229860429656
5006.322417920299,16883.579154846797
5006.348453394048,17131.370378468986
5006.374489003196,17072.694178759913
5006.400524747743,17092.989364404435
5006.426560627688,17107.142598353956
5006.452596643034,16994.739610033193
5006.47863279378,16989.781565037025
5006.504669079928,16783.178712118206
5006.530705501478,16718.592668994894
5006.556742058431,16576.261620641562
5006.582778750788,16417.804436956703
5006.608815578549,16150.417936640633
5006.634852541715,15800.75537346976
5006.660889640287,15244.638897324421
5006.686926874265,14363.167303857208
5006.71296424365,13412.271575016168
5006.739001748444,12213.803697222194
5006.765039388645,10617.831396490972
5006.791077164256,8935.56338727213
5006.817115075277,7500.001786148187
5006.843153121708,6418.22569003957
5006.869191303552,5975.555225572403
5006.895229620806,6118.922645332866
5006.921268073474,6707.427310418991
5006.947306661555,7820.885229415702
5006.97334538505,9386.96523557081
5006.999384243961,10998.291038985066
5007.025423238286,12607.350141036632
5007.051462368028,13988.65522441742
5007.077501633187,15148.947492686142
5007.103541033764,15935.82341718878
5007.129580569759,16631.95515816632
5007.155620241173,17017.0069432084
5007.181660048007,17255.065644918297
5007.207699990262,17404.58838404629
5007.233740067937,17326.161779501326
5007.259780281035,17115.582995983532
5007.285820629555,16624.37920788774
5007.311861113499,16131.213990378084
5007.337901732866,15632.454891290232
5007.363942487658,15369.62945828709
5007.389983377876,15635.881274802165
5007.41602440352,16122.598428890584
5007.442065564591,16468.820643745847
5007.468106861089,17123.075771360724
5007.494148293015,17480.23763193179
5007.520189860371,17814.78584763272
5007.546231563156,18032.9673166275
5007.572273401372,18005.97078045711
5007.598315375018,18021.95159618239
5007.624357484096,18128.960071716225
5007.650399728607,18034.81247787545
5007.676442108551,18120.206698979324
5007.702484623929,18094.969999965004
5007.728527274741,18005.049036012613
5007.754570060989,18093.413943902393
5007.780612982673,18236.218795114008
5007.806656039793,18314.53776944792
5007.832699232351,18277.80112815787
5007.858742560347,18338.09064408099
5007.884786023782,18338.770876443097
5007.910829622656,18236.475075422713
5007.936873356971,18473.347342939214
5007.962917226726,18330.317018096965
5007.988961231923,18417.285052567633
5008.015005372563,18267.646555131556
5008.041049648646,18473.271004634287
5008.067094060171,18329.00997134773
5008.0931386071425,18511.611493339457
5008.119183289558,18198.031975214675
5008.14522810742,18139.791547077002
5008.171273060728,17997.146800430473
5008.197318149483,17689.67539923931
5008.223363373687,17294.563871030452
5008.249408733339,16909.5770838616
5008.27545422844,16872.375483518637
5008.301499858992,17007.0538028406
5008.327545624995,17153.808438036547
5008.353591526448,17524.335677140432
5008.379637563355,17828.229775896976
5008.405683735714,17889.680180854637
5008.431730043527,18028.089087961493
5008.457776486794,18203.321049854607
5008.483823065515,18357.27034144978
5008.509869779693,18354.859696933534
5008.535916629327,18230.266721226777
5008.561963614418,18143.861656780642
5008.588010734968,18068.7579272721
5008.614057990975,18203.665163433696
5008.640105382442,18151.608772994798
5008.666152909369,18239.386618132146
5008.692200571756,18308.42386764452
5008.718248369605,18212.283487768735
5008.744296302916,18263.21041360344
5008.77034437169,18347.554617529255
5008.796392575927,18332.487143113773
5008.822440915628,18206.523581581012
5008.848489390794,18245.81164617386
5008.874538001426,18387.221955633424
5008.900586747524,18454.41280193269
5008.926635629089,18355.122792911974
5008.952684646122,18261.094010022738
5008.978733798623,18304.484316731865
5009.004783086593,18322.134883700743
5009.030832510033,18226.60076177618
5009.056882068944,17951.2848941231
5009.082931763326,17693.096286451677
5009.108981593179,17741.700921857435
5009.135031558506,17682.701911468528
5009.161081659306,17581.433202039156
5009.187131895579,17324.752232328025
5009.213182267327,17004.560301793776
5009.239232774552,16632.983869432377
5009.265283417251,16450.242366797233
5009.291334195428,16217.372478212326
5009.317385109083,16365.163140840514
5009.343436158216,16656.62278211463
5009.369487342828,17032.907716720303
5009.395538662919,17303.626840718196
5009.421590118491,17411.095116120287
5009.447641709544,17413.664341406857
5009.473693436078,17453.492946612598
5009.499745298095,17402.113480108565
5009.525797295596,17069.510092114735
5009.55184942858,16645.073263268023
5009.577901697049,16046.23813425579
5009.603954101003,15124.654058436246
5009.630006640443,14279.493252073782
5009.65605931537,13705.042944543906
5009.682112125784,13267.004200013558
5009.708165071686,13022.705304378625
5009.7342181530785,12790.724188126054
5009.760271369959,12222.433007726713
5009.78632472233,11309.348826488555
5009.812378210192,10411.08900923749
5009.838431833546,10136.402480479892
5009.864485592391,10125.99527056813
5009.890539486731,10995.22957314702
5009.916593516564,12110.196108440177
5009.942647681891,13364.762103953637
5009.968701982713,14538.611526468785
5009.994756419032,15523.065241370827
5010.020810990847,16329.783803010796
5010.046865698159,17066.528107033297
5010.072920540969,17620.913582639278
5010.098975519279,17835.03362130549
5010.125030633087,17987.438569977166
5010.151085882395,18007.525684454173
5010.177141267204,18087.183807080124
5010.2031967875155,18228.762608848167
5010.229252443328,18268.765760619477
5010.255308234644,18283.4176554821
5010.281364161464,18237.313389760813
5010.307420223788,18212.5555844106
5010.333476421617,18182.64921067564
5010.359532754951,17979.224909791257
5010.3855892237925,17762.641960751007
5010.4116458281405,17369.563186463827
5010.437702567997,16832.101034911815
5010.463759443362,16151.860383601886
5010.489816454236,15227.716547555054
5010.51587360062,14162.332143143562
5010.541930882514,13258.297481768044
5010.56798829992,12736.567682099292
5010.5940458528385,13000.714436390292
5010.62010354127,13737.581059539936
5010.646161365214,14857.841469211255
5010.672219324672,15731.409080427125
5010.698277419646,16714.289667487297
5010.724335650135,17369.48522733654
5010.7503940161405,17622.31563869656
5010.7764525176635,17850.054531039073
5010.802511154703,18060.07818567506
5010.828569927262,18174.65691578796
5010.85462883534,18165.286421771554
5010.880687878937,18065.484469652478
5010.906747058056,18146.578342725108
5010.932806372695,18313.857378417422
5010.958865822856,18329.234652469542
5010.98492540854,18273.488937083664
5011.0109851297475,18222.646536351982
5011.0370449864795,18254.048423471442
5011.063104978735,18367.808235221455
5011.089165106517,18335.41511482154
5011.115225369825,18138.740720914582
5011.14128576866,18100.212245934246
5011.167346303022,18114.356924102223
5011.193406972913,17859.338065461423
5011.219467778333,17489.463506971242
5011.2455287192815,17199.658985616956
5011.271589795761,16871.9151128191
5011.297651007772,16316.888173328616
5011.323712355315,15680.702771202845
5011.34977383839,15313.968358713157
5011.375835456999,14727.958379082122
5011.401897211142,14509.608947656317
5011.427959100819,14519.867169643876
5011.454021126031,14603.64021649663
5011.4800832867795,14338.62416059132
5011.506145583065,13754.921088601457
5011.532208014888,12995.81612789115
5011.558270582248,11831.386283493981
5011.584333285148,10413.699038171873
5011.610396123588,8922.106701181388
5011.636459097567,7545.4826088425525
5011.662522207088,6315.495573448281
5011.68858545215,5533.065600834666
5011.714648832754,5274.487961215157
5011.740712348902,5340.231702918564
5011.766776000594,5996.666371089627
5011.79283978783,7037.740743492262
5011.818903710611,8312.861032531606
5011.844967768939,10016.501198665863
5011.871031962813,11521.535242014186
5011.897096292234,12718.077627332701
5011.923160757203,13695.812077108932
5011.949225357721,14098.062251544588
5011.975290093788,13884.471970516448
5012.001354965406,13197.274691371364
5012.027419972574,12322.853008286784
5012.053485115294,11642.967641526491
5012.079550393566,11307.544886144904
5012.105615807392,11635.995770005118
5012.13168135677,12541.744357754136
5012.157747041703,13472.377936973828
5012.183812862192,14356.251244911979
5012.209878818236,15181.278160731456
5012.235944909837,15211.150122055058
5012.262011136994,14950.490715683192
5012.28807749971,14580.094046680033
5012.3141439979845,14184.99585367611
5012.340210631818,14190.42830523912
5012.366277401212,14591.963995863412
5012.392344306166,15188.990778015852
5012.418411346682,15849.201819937613
5012.44447852276,16540.133687704292
5012.470545834401,17053.9499839823
5012.496613281605,17382.156304724787
5012.522680864374,17674.25832464253
5012.548748582707,17787.51021607507
5012.574816436606,17801.978150428135
5012.600884426071,17821.939408368184
5012.626952551104,17807.178095814834
5012.653020811705,17890.17488922261
5012.679089207873,17839.86214148462
5012.705157739611,17591.98299715521
5012.73122640692,17542.983461123
5012.757295209798,17362.154528186984
5012.7833641482475,16663.88485447126
5012.80943322227,16056.17933808439
5012.835502431864,15264.157135156516
5012.861571777033,14147.571466937994
5012.887641257775,12693.4474008852
5012.9137108740915,11666.73284185907
5012.939780625984,11052.817347215592
5012.965850513452,11084.57838079365
5012.991920536498,11664.52025260082
5013.017990695121,12548.278288347832
5013.044060989323,13496.825215025425
5013.070131419104,14062.33747074794
5013.096201984464,14582.410249941262
5013.122272685405,14752.769398540984
5013.148343521927,14344.688593505125
5013.17441449403,13557.083561092822
5013.200485601717,12457.990871558766
5013.226556844987,11100.206418542533
5013.2526282238405,9588.151362631337
5013.278699738279,8280.178546680974
5013.304771388303,7524.360062734901
5013.330843173913,7428.313336080091
5013.35691509511,7878.645161107789
5013.382987151894,8858.992055182682
5013.409059344267,10217.18290931309
5013.435131672228,11517.322030042536
5013.46120413578,12821.851086513623
5013.487276734921,13878.456732436814
5013.513349469653,14247.657621183464
5013.539422339977,14584.24047686819
5013.565495345894,15053.802466374254
5013.5915684874035,15477.95794452747
5013.617641764507,15735.393622418353
5013.643715177206,15623.994086178092
5013.6697887254995,15461.857520203472
5013.695862409389,15056.61413295453
5013.721936228875,13845.284506811968
5013.748010183958,12316.456405646999
5013.77408427464,10734.107597382523
5013.800158500921,9209.339664844541
5013.826232862801,7937.627443692379
5013.852307360281,6867.713573306097
5013.8783819933615,6627.412422991362
5013.904456762045,6960.3790083191525
5013.930531666329,7801.763602570649
5013.956606706218,9122.416773149993
5013.982681881709,10690.937878307817
5014.008757192805,12345.368046305997
5014.034832639507,13804.131873296914
5014.060908221814,14866.714398976821
5014.086983939728,15667.469633059942
5014.113059793249,16286.06345642093
5014.139135782378,16581.727810303622
5014.165211907116,16650.431617440434
5014.1912881674625,16604.259855227494
