wave,flux
4450.003811362098,25300.453182528083
4450.026953690486,22333.365902315614
4450.050096139227,19088.744664907605
4450.073238708321,16501.572037414586
4450.096381397769,14271.153007484925
4450.119524207569,12547.131626621489
4450.142667137726,11624.818815044702
4450.165810188237,10682.671466108148
4450.188953359103,9533.899590719593
4450.212096650326,8437.037220259423
4450.2352400619075,7537.058674504186
4450.258383593846,7023.260867434193
4450.281527246142,7146.823823380266
4450.304671018797,8064.753623372159
4450.327814911813,9756.0781372178
4450.350958925188,12055.6680313957
4450.374103058924,14723.204018069566
4450.3972473130225,17380.921891785452
4450.420391687483,19359.471006584772
4450.443536182305,20112.68025050882
4450.466680797492,19820.826614250334
4450.489825533042,19137.121001258463
4450.512970388957,18771.654888636564
4450.536115365237,19241.15617975466
4450.559260461882,20283.66830585837
4450.582405678895,21492.304629963324
4450.605551016274,22109.76785364805
4450.628696474022,22344.23599879274
4450.651842052138,22303.703834622538
4450.674987750623,22776.65392873192
4450.698133569476,24637.901995418524
4450.721279508702,27361.18481404842
4450.744425568297,30363.175112489174
4450.767571748264,33462.26165807374
4450.790718048604,35923.34311477034
4450.813864469315,37094.757989101556
4450.837011010401,38361.341528044264
4450.86015767186,38820.95810581156
4450.883304453694,38910.80217830814
4450.906451355903,39400.62058688956
4450.929598378489,39404.5931215959
4450.95274552145,39090.89717142632
4450.975892784789,38879.01505069179
4450.999040168505,38767.748068575245
4451.022187672601,38355.52069484435
4451.045335297074,37724.72494362537
4451.068483041929,36980.285471542935
4451.091630907163,36386.3971847954
4451.114778892777,35986.86847190042
4451.137926998774,35077.796227687315
4451.161075225153,33660.20339401101
4451.184223571914,32212.1364166493
4451.207372039059,30241.98342170855
4451.230520626587,27322.69704438356
4451.253669334501,23885.19993242188
4451.2768181628,20110.16178754837
4451.299967111485,16710.760534999914
4451.323116180556,14286.318744985405
4451.346265370014,12951.377780297416
4451.369414679861,13261.361136107793
4451.392564110095,14814.976190440011
4451.415713660719,17801.37954513195
4451.438863331732,21574.981488881967
4451.462013123136,25361.304273734273
4451.48516303493,29133.108294560046
4451.508313067117,32140.8944405302
4451.531463219695,34414.85637752992
4451.554613492666,35735.08244686301
4451.577763886031,35982.84444937796
4451.60091439979,36044.13343654436
4451.624065033943,35636.45325560309
4451.647215788492,34001.36630135796
4451.670366663436,32124.485389361616
4451.693517658777,29871.581643338253
4451.716668774516,27202.235845245712
4451.739820010652,24794.005333226156
4451.762971367186,23450.46193157955
4451.78612284412,23272.450236083805
4451.8092744414525,24446.677156030943
4451.832426159187,26397.084007458972
4451.855577997321,28534.739608931723
4451.878729955857,30734.205352669986
4451.901882034796,32651.394325260157
4451.925034234137,34560.49362438689
4451.948186553881,36224.397293919676
4451.97133899403,37452.695512925726
4451.994491554583,38462.26442425936
4452.017644235542,39007.68763211302
4452.040797036907,39268.52236332488
4452.063949958678,39391.26880178425
4452.087103000857,39489.011088746185
4452.1102561634425,39587.37351915747
4452.133409446437,39244.79282906076
4452.156562849841,38841.75035290516
4452.179716373655,38396.6597752239
4452.202870017878,37670.55365901311
4452.226023782513,37069.55171055438
4452.24917766756,36129.82153624497
4452.272331673018,34567.373577275415
4452.29548579889,32842.571683073984
4452.318640045174,31344.649123154246
4452.341794411874,29333.224771076166
4452.364948898987,27694.316506131854
4452.388103506516,26172.402015114265
4452.4112582344615,25172.42254772923
4452.434413082823,24272.448990122943
4452.457568051602,23503.774008345394
4452.480723140799,22700.343186888207
4452.503878350413,22232.29411624617
4452.527033680448,23120.23110385362
4452.550189130902,25223.393897251935
4452.5733447017765,27534.324062218853
4452.596500393071,29644.6434327098
4452.619656204789,31053.76402755479
4452.642812136928,32240.38534017554
4452.66596818949,32227.70844422595
4452.689124362475,30933.793077936924
4452.7122806558855,28925.408390884204
4452.735437069719,26688.278051445155
4452.7585936039795,24782.935129992806
4452.781750258665,24058.928292393262
4452.804907033777,24853.22638269697
4452.828063929317,26908.55067040524
4452.851220945285,29147.253299916654
4452.87437808168,30850.83043454409
4452.897535338506,31716.06093682245
4452.92069271576,31623.50729177224
4452.943850213445,31005.530186371394
4452.967007831562,30063.581823394095
4452.99016557011,28611.581121887728
4453.01332342909,26305.20365975623
4453.036481408502,23617.35090076588
4453.059639508349,21180.801485732554
4453.08279772863,19564.34533197832
4453.105956069345,19762.98376714564
4453.129114530496,21780.482849497228
4453.152273112083,25224.011403248227
4453.175431814107,28710.849037618416
4453.198590636567,31845.20550107185
4453.221749579466,34400.22480576017
4453.244908642802,35683.22090816478
4453.268067826579,35920.166278622266
4453.291227130795,36152.1272624085
4453.314386555451,36636.28041983353
4453.337546100549,35994.72388745102
4453.360705766087,35304.461450271534
4453.3838655520685,34007.80133113553
4453.407025458493,32128.379012717043
4453.430185485361,29715.953581564376
4453.453345632673,27603.888139985054
4453.476505900429,26778.421214702532
4453.4996662886315,27070.057609716885
4453.52282679728,28725.383516163107
4453.545987426375,30914.119865120665
4453.569148175917,33178.39495145465
4453.592309045907,34354.86635498265
4453.615470036346,35640.449792529005
4453.638631147233,36383.72589417519
4453.661792378571,36971.147111490616
4453.684953730359,37486.52100791562
4453.708115202598,38023.29172673991
4453.731276795288,38116.446851954664
4453.754438508431,38143.381691443064
4453.777600342027,38198.608059055696
4453.800762296077,38231.74710244761
4453.82392437058,37978.739173693175
4453.847086565538,37518.89642883427
4453.870248880952,37220.20555046088
4453.8934113168225,36936.57727862689
4453.916573873149,35975.41613868089
4453.939736549933,34904.43915113879
4453.962899347174,33838.47112243471
4453.986062264875,32016.495447746074
4454.009225303034,29912.212223151753
4454.032388461654,27410.861249571008
4454.055551740734,24141.39619883827
4454.078715140275,20559.3873597187
4454.101878660277,16913.53268425021
4454.125042300742,13735.267209085074
4454.14820606167,11892.147875594113
4454.171369943061,11654.777143956464
4454.194533944917,12782.652934869315
4454.2176980672375,15062.134659753876
4454.240862310024,18149.16628171305
4454.264026673275,21000.727717523823
4454.287191156994,22924.539250761583
4454.31035576118,23767.84708389183
4454.333520485834,23090.87123241358
4454.356685330957,21125.08394146797
4454.379850296548,18552.496274998677
4454.40301538261,15898.431174101092
4454.426180589142,13397.1631332102
4454.449345916145,11385.760094874608
4454.4725113636205,9770.039236008373
4454.495676931568,8412.024006274984
4454.5188426199875,7397.79353678062
4454.542008428882,6798.294868430365
4454.565174358249,6972.726346141096
4454.588340408092,7882.028437356435
4454.611506578411,9573.91145156637
4454.634672869205,11671.865210888727
4454.657839280476,13916.65492997816
4454.681005812225,15994.969849334077
4454.704172464451,16918.113698958732
4454.727339237156,16608.840554244773
4454.750506130341,15885.773502944086
4454.773673144005,15495.755636711623
4454.79684027815,15205.998122736695
4454.820007532776,16593.086523055932
4454.843174907884,19087.57009661873
4454.866342403473,21878.43505733172
4454.889510019546,24956.136292520823
4454.912677756102,26934.499883440818
4454.935845613144,27990.419755924973
4454.959013590669,27480.480387941472
4454.982181688681,25950.943598063062
4455.005349907178,23558.69448631591
4455.028518246162,20651.66556390815
4455.051686705633,18154.372728680682
4455.074855285593,16732.568237842697
4455.098023986041,16838.669626469393
4455.121192806979,18839.948301045948
4455.144361748406,22078.91500205604
4455.167530810323,25647.627819573187
4455.190699992732,29019.73239805111
4455.213869295633,31959.990244974142
4455.237038719026,33885.24600392452
4455.260208262912,34798.50527290361
4455.283377927292,35478.56701375741
4455.306547712166,35298.92172202302
4455.329717617535,34423.593656077064
4455.352887643399,33169.7789667853
4455.37605778976,31492.962118417465
4455.399228056617,29537.785839192235
4455.422398443972,28027.185408927773
4455.445568951825,26581.99892438227
4455.468739580177,25442.198615235036
4455.491910329028,24252.31481431826
4455.515081198378,22204.639110356275
4455.538252188229,19497.644511861494
4455.561423298582,16654.952082779273
4455.584594529436,13913.36245197197
4455.607765880793,11482.917811182084
4455.630937352652,9987.256430707506
4455.654108945016,9555.397029002066
4455.677280657883,10355.60951819371
4455.700452491255,12326.786220383645
4455.723624445134,15357.689316638742
4455.746796519518,19237.01519309082
4455.7699687144095,23091.832702640906
4455.793141029808,26609.265512919203
4455.816313465714,29470.33210978236
4455.83948602213,31167.779375541948
4455.862658699055,32477.44694436594
4455.885831496489,33377.71447883914
4455.909004414434,33738.53376818969
4455.932177452891,33946.93867573533
4455.955350611858,33556.12988484336
4455.978523891339,32717.70351569849
4456.001697291333,30879.810777346014
4456.024870811841,28308.97780585588
4456.048044452862,25285.454576763703
4456.071218214399,21950.131596603922
4456.094392096451,19018.216234917767
4456.117566099019,17110.846491876375
4456.140740222105,16761.282148342743
4456.163914465707,17737.024174306473
4456.187088829828,19483.005287321826
4456.210263314468,21737.489106880752
4456.233437919626,24320.706479112632
4456.256612645306,25910.912658261637
4456.279787491505,26317.347592188664
4456.302962458226,25297.806620566746
4456.326137545469,23381.560930024334
4456.349312753233,20972.56121465923
4456.372488081522,18453.253568323784
4456.395663530333,16818.047768351942
4456.41883909967,17041.349551435567
4456.442014789531,18952.9107741303
4456.465190599917,22037.647873193793
4456.488366530831,25792.609509838723
4456.5115425822705,29311.965495380307
4456.5347187542375,31943.162841492347
4456.557895046733,34150.47059234813
4456.581071459757,35371.94089401731
4456.604247993311,35714.90394843342
4456.627424647395,35482.77865082042
4456.650601422009,34892.19935140104
4456.673778317154,34187.57042703615
4456.696955332832,33497.85304032928
4456.720132469041,32452.53120883036
4456.7433097257845,31093.418629774562
4456.766487103061,29174.682820091213
4456.789664600872,27608.545148306705
4456.8128422192185,26863.74071813389
4456.8360199581,26987.313717200097
4456.859197817518,28610.633642078934
4456.882375797473,30673.80277157886
4456.905553897966,32511.22529015755
4456.928732118997,33780.74434398518
4456.951910460566,34242.96524338319
4456.975088922674,34488.65519079471
4456.998267505323,34118.659251568795
4457.021446208513,33683.28904215891
4457.044625032244,32345.473420317183
4457.067803976516,30799.206673632543
4457.090983041332,28561.6276115026
4457.1141622266905,25526.130111660947
4457.1373415325925,21858.922639462184
4457.160520959039,18463.653411942247
4457.183700506031,15633.205524808274
4457.206880173568,13816.034492459914
4457.230059961651,13330.803093932567
4457.2532398702815,13406.501234273248
4457.27641989946,14176.87259460415
4457.299600049186,15510.304161878392
4457.322780319461,17560.672797404968
4457.345960710286,20686.981070461243
4457.36914122166,24064.284213064395
4457.392321853586,27759.12341534385
4457.415502606062,31098.090633581378
4457.43868347909,33407.46047055747
4457.461864472672,34262.29289054465
4457.485045586805,34669.74494719194
4457.508226821494,34104.54933354135
4457.5314081767365,33391.41834290724
4457.554589652534,33272.30643659689
4457.577771248887,33247.47284892539
4457.600952965797,33842.504122831146
4457.624134803263,34230.677477392135
4457.647316761288,33952.745213116716
4457.67049883987,33200.61501152667
4457.693681039011,31831.39701439984
4457.716863358712,30229.411500323997
4457.7400457989725,28226.497517043306
4457.763228359793,26197.70900095981
4457.7864110411765,23722.94325904391
4457.809593843121,21036.95716210959
4457.832776765628,18692.52829180912
4457.855959808699,17388.272603415833
4457.879142972333,17285.969546630986
4457.902326256532,18072.933950516224
4457.925509661296,19017.1339298394
4457.948693186626,19662.12690282926
4457.971876832522,19327.174336614924
4457.995060598985,18377.271585093964
4458.018244486016,18034.049306100827
4458.041428493615,18893.26933937521
4458.0646126217825,21152.956436811124
4458.08779687052,24251.37868959324
4458.110981239827,27209.074037576356
4458.134165729705,29648.437094048804
4458.157350340155,30837.430554734805
4458.180535071177,30602.8297876233
4458.203719922771,29563.96451495304
4458.226904894938,27303.44017339785
4458.2500899876795,24568.41240730388
4458.273275200995,22429.30659940338
4458.296460534886,21351.347138644458
4458.3196459893525,22085.193641577735
4458.342831564396,24072.489266564273
4458.366017260016,27174.97213075694
4458.389203076214,30108.678034328637
4458.4123890129895,32689.77564316167
4458.435575070344,34410.456584939064
4458.458761248279,35642.2427519741
4458.481947546794,36242.702901090786
4458.505133965889,36198.024040218894
4458.528320505566,35939.76446725614
4458.551507165825,35240.64342736961
4458.574693946666,34544.216390877205
4458.597880848091,33278.68932913889
4458.6210678701,31896.02085108066
4458.644255012693,30254.300601109975
4458.6674422758715,28224.63774357907
4458.690629659636,25720.388522078192
4458.713817163986,22661.93907059982
4458.737004788924,19223.5670915551
4458.76019253445,15932.03357505109
4458.783380400563,12771.94578812168
4458.8065683872655,10120.70544967736
4458.829756494558,8189.484146913453
4458.85294472244,7130.126415102569
4458.876133070914,6798.577051768013
4458.899321539979,7032.571605212144
4458.922510129635,7975.60556981875
4458.945698839884,9524.286207744117
4458.968887670727,11687.067895425818
4458.992076622164,14179.128746854583
4459.015265694195,16639.080579867797
4459.0384548868215,18203.79945888697
4459.061644200044,18737.222234216497
4459.084833633862,18250.355161421186
4459.108023188278,17860.79622057377
4459.131212863292,18047.041844562762
4459.154402658904,19804.02612777919
4459.177592575114,22791.882010620437
4459.200782611925,26391.324527188954
4459.223972769336,29829.391500727932
4459.247163047347,32474.7970768245
4459.27035344596,34671.28275235206
4459.293543965176,35798.12763841971
4459.316734604993,36400.4179874403
4459.339925365414,36619.50788885525
4459.363116246439,36145.13368657658
4459.386307248069,35535.581086375976
4459.409498370304,34364.233514756204
4459.432689613145,32687.605404094902
4459.455880976592,30127.71612124305
4459.479072460647,27377.477762694652
4459.502264065309,25633.859631939547
4459.52545579058,24702.48660794955
4459.5486476364595,25152.76376896336
4459.571839602949,27051.414046784583
4459.595031690048,29693.46115848642
4459.618223897759,32000.730977521656
4459.641416226081,33862.145721382796
4459.664608675014,35534.64403735585
4459.687801244561,36230.108943109204
4459.710993934721,36567.293830473245
4459.734186745496,36457.25550499089
4459.757379676885,36055.14970163682
4459.780572728889,34913.926012379925
4459.803765901509,33981.49501131337
4459.8269591947455,32624.95832362661
4459.850152608599,30711.3141330337
4459.87334614307,27958.10478081045
4459.89653979816,24773.320852073666
4459.91973357387,21309.569966467792
4459.942927470198,17999.89771356017
4459.966121487147,15125.085912966522
4459.989315624717,13144.160070673419
4460.0125098829085,12531.775640973612
4460.035704261722,12934.126454562956
4460.058898761158,14178.709442617028
4460.082093381218,16250.538619656818
4460.105288121902,18679.875403232087
4460.12848298321,21511.895219815942
4460.151677965145,24572.02887397767
4460.1748730677045,27933.35823202074
4460.198068290891,30840.967478239843
4460.221263634704,33566.79210165846
4460.244459099145,35303.55696112789
4460.267654684215,36608.575074000495
4460.290850389914,37161.86101263972
4460.314046216243,37676.24588360078
4460.337242163202,37849.78019337442
4460.360438230791,38118.20690290392
4460.383634419013,38488.9755676297
4460.406830727867,38906.10547925963
4460.430027157354,38263.56192684742
4460.453223707474,37764.4956997548
4460.476420378228,37181.015754268235
4460.499617169617,36495.94785025482
4460.522814081641,35560.50598779518
4460.5460111143,34726.74903148522
4460.569208267598,34458.31956621869
4460.592405541532,34907.146457535564
4460.615602936104,35142.33831737738
4460.638800451314,35692.577581306825
4460.661998087163,35289.63539377537
4460.685195843652,34659.142740263844
4460.708393720782,33670.94610498717
4460.731591718552,32248.64205524309
4460.754789836965,30027.143209051184
4460.777988076019,27169.279512303925
4460.801186435716,23765.786181783093
4460.824384916057,20356.500165206482
4460.847583517042,16972.909399853983
4460.870782238671,14489.658353041279
4460.893981080947,13199.145115107101
4460.917180043868,12098.660412969577
4460.940379127435,11668.098006256107
4460.963578331651,11780.84789364511
4460.986777656513,12233.6280278656
4461.009977102025,13547.264050165828
4461.033176668186,15138.049985452146
4461.056376354995,16938.859961433478
4461.079576162457,17917.612414643132
4461.102776090568,18085.874795320702
4461.125976139332,17010.925540408785
4461.149176308748,15274.937779317366
4461.172376598816,13736.68551845924
4461.195577009538,12960.505689320134
4461.218777540915,12941.16789668457
4461.241978192946,13474.95635059536
4461.265178965633,14219.306183937731
4461.2883798589755,14628.346923185058
4461.311580872974,14615.402540409486
4461.3347820076315,13411.932766645508
4461.357983262946,11615.912774656712
4461.381184638919,9852.95757722283
4461.404386135551,8377.75206591857
4461.4275877528435,7636.708166769233
4461.4507894907965,7780.9898611939325
4461.4739913494095,8828.022717629012
4461.497193328685,10899.73364931054
4461.520395428623,13972.084739078187
4461.543597649224,17295.590221838873
4461.566799990488,20407.27547269266
4461.590002452416,23020.864970885592
4461.61320503501,24508.883064781046
4461.636407738269,24870.501480865903
4461.659610562193,23494.293272562936
4461.682813506784,20670.08022918263
4461.706016572044,17644.395322490604
4461.729219757971,14909.10496908844
4461.752423064566,12929.91581714577
4461.775626491831,12287.374712439128
4461.798830039766,12999.110024073996
4461.82203370837,15072.24548889818
4461.845237497647,18099.164007486637
4461.868441407595,21035.974011573628
4461.891645438215,23716.990814934445
4461.914849589509,25555.30450480065
4461.938053861475,26216.955076916773
4461.961258254117,26673.085624166222
4461.984462767433,27154.445079964586
4462.007667401424,27903.544327853746
4462.030872156092,28885.617197768086
4462.0540770314365,29128.02138682917
4462.077282027459,28409.32275814643
4462.100487144158,26770.951397944373
4462.123692381537,24259.63756705034
4462.146897739594,21367.39782339426
4462.170103218332,18681.836837350027
4462.19330881775,16869.631690631017
4462.21651453785,16170.014706229615
4462.239720378631,17296.51864545184
4462.262926340095,19983.340212028234
4462.286132422241,23468.166757036965
4462.309338625071,27193.80234079424
4462.3325449485865,30541.34378058383
4462.355751392785,33023.21697677805
4462.3789579576705,34557.695841612986
4462.402164643242,34987.10756905951
4462.4253714495,34689.034408092186
4462.448578376446,33607.952958364265
4462.471785424079,32793.409267653995
4462.494992592401,32753.629895155824
4462.518199881412,32391.506278278473
4462.541407291114,32526.4387225118
4462.564614821506,32736.45719976032
4462.587822472589,32488.246954259645
4462.611030244365,32202.212973474823
4462.634238136832,31029.22492249817
4462.657446149992,28845.217838988312
4462.680654283847,25675.977949636752
