wave,flux
5000.025812696027,26678.128860477118
5000.051815424163,24603.75914901665
5000.0778182875265,23011.23918331002
5000.103821286119,21204.365488152027
5000.12982441994,19838.973781154556
5000.155827688991,19483.966155941016
5000.181831093272,19945.243205497114
5000.207834632784,21644.905016361903
5000.2338383075285,24268.01214603075
5000.259842117506,27045.111849291312
5000.285846062716,29559.3671892338
5000.311850143161,31693.179973646624
5000.33785435884,33325.32080300433
5000.363858709754,34054.382410101796
5000.389863195905,33781.34362206092
5000.415867817292,33134.4883523346
5000.441872573917,31886.446577166975
5000.4678774657805,29771.030831360284
5000.493882492882,27949.114117099853
5000.519887655224,26194.352429976298
5000.545892952806,25441.74091943294
5000.571898385629,25712.465414538012
5000.597903953694,26635.274876218158
5000.623909657001,27740.37457346263
5000.649915495552,28997.3456703509
5000.675921469346,29615.03618234829
5000.701927578384,29783.700954863765
5000.727933822669,29732.902958468152
5000.7539402021985,29297.505301759153
5000.779946716975,29215.017583270615
5000.805953366999,29655.403589498223
5000.831960152272,30629.335859345196
5000.857967072792,32202.56995508322
5000.883974128563,33843.16678166341
5000.9099813195835,35101.66895101945
5000.935988645855,36012.54060763319
5000.961996107378,36117.946554586924
5000.988003704153,36141.9070272127
5001.014011436181,35843.646596141916
5001.040019303464,35706.16298671325
5001.066027306,35716.566894339456
5001.092035443791,35671.74852716204
5001.118043716839,35463.399935106965
5001.1440521251425,34991.993476019576
5001.170060668704,34270.7097909621
5001.196069347523,33173.64343658277
5001.222078161601,31662.613715576183
5001.248087110937,30081.79685888693
5001.274096195534,29139.48664977481
5001.300105415392,28877.446640918035
5001.326114770512,29518.79427723728
5001.352124260892,30275.331329956243
5001.3781338865365,31396.271883909125
5001.4041436474445,31709.246219640405
5001.430153543616,31603.119551593405
5001.456163575053,30869.43296160354
5001.482173741756,29365.14732139873
5001.508184043724,27316.0064994244
5001.534194480961,24833.84433154839
5001.560205053464,22042.882426008542
5001.586215761236,19124.49453354415
5001.612226604278,16348.46131385024
5001.638237582589,14255.449855645691
5001.664248696171,13277.962086280839
5001.690259945024,13353.241593855924
5001.716271329149,14890.333425120916
5001.742282848547,17764.88269585156
5001.768294503218,21204.46116902404
5001.794306293164,24903.504128880326
5001.820318218383,28284.419252279396
5001.84633027888,31341.54953852406
5001.872342474651,33571.87596762005
5001.8983548056995,35109.23604485301
5001.924367272026,36082.23358637545
5001.9503798736305,36662.67616735962
5001.976392610514,37149.40154672202
5002.002405482678,37482.87266996376
5002.028418490122,37578.467001889396
5002.054431632847,37648.29650635246
5002.080444910854,37943.73453381001
5002.106458324142,37637.80978581402
5002.1324718727155,37236.28574448155
5002.158485556572,37193.908432019685
5002.184499375713,37002.518145384645
5002.210513330139,36465.397100175294
5002.236527419852,35819.67212424474
5002.262541644852,35333.46737475899
5002.288556005138,34989.74465804398
5002.314570500714,34510.09412547199
5002.340585131577,34080.483899683524
5002.36659989773,33370.627050204625
5002.392614799174,32583.583175215415
5002.418629835909,31828.09201425757
5002.444645007936,30462.121878056612
5002.4706603152545,28915.011478609813
5002.496675757866,27049.360563721406
5002.522691335772,24561.751541571113
5002.548707048972,22121.68113241862
5002.574722897468,20256.83168332333
5002.600738881259,19523.030854575776
5002.626755000347,20626.388584798075
5002.652771254732,22868.456913071113
5002.678787644415,25928.13682442185
5002.704804169397,29071.857256322677
5002.730820829678,32129.202931942596
5002.75683762526,34525.7711098103
5002.782854556142,36193.47976334237
5002.8088716223265,37133.48855257059
5002.834888823812,37649.72995840069
5002.860906160601,38042.04934037859
5002.886923632695,38208.84581315851
5002.912941240092,38353.47813678996
5002.938958982793,38029.666612338064
5002.9649768608015,38085.036581165004
5002.990994874116,38325.02008853932
5003.017013022737,38050.74675459299
5003.043031306666,38146.862216068745
5003.069049725905,38060.72986337247
5003.095068280452,38071.26252068691
5003.121086970309,38023.32455060523
5003.147105795477,37898.08720954329
5003.173124755956,37531.114787185325
5003.199143851748,37503.438952173055
5003.225163082852,37384.841505510405
5003.251182449269,37247.888011460316
5003.277201951001,37216.0185936329
5003.3032215880485,37015.11897638361
5003.32924136041,36909.987454173366
5003.35526126809,36795.96505759036
5003.381281311085,36731.75507022065
5003.407301489398,35921.59489971576
5003.433321803031,34956.502542198665
5003.459342251982,33646.86039822623
5003.4853628362525,31695.442453730906
5003.511383555844,30103.06749365586
5003.537404410757,29055.143170807038
5003.563425400991,28816.838465492558
5003.589446526548,29418.45709579517
5003.615467787429,30789.192533590165
5003.641489183634,32274.181464554127
5003.667510715163,33296.45731932892
5003.693532382018,33651.26646867527
5003.719554184199,33363.69490140877
5003.745576121707,32375.393337764504
5003.771598194542,30790.662540643752
5003.797620402706,29025.35096691272
5003.823642746199,27448.695134098743
5003.849665225021,26770.347423314575
5003.875687839174,27098.75914813515
5003.901710588658,28342.88052957038
5003.927733473473,30050.389986500755
5003.953756493622,31843.87900108833
5003.979779649103,32982.854418332376
5004.005802939919,33832.94158206485
5004.031826366068,34395.48824169155
5004.057849927553,34372.2813231113
5004.083873624375,34308.14667543737
5004.109897456533,34082.860794404005
5004.135921424028,33914.66711458484
5004.161945526862,33976.4853443516
5004.187969765035,34215.02491629508
5004.213994138547,34817.49327172118
5004.240018647399,35787.59951448379
5004.266043291592,36708.080100222905
5004.292068071127,37319.886673867535
5004.318092986004,37908.83233710126
5004.344118036223,37820.81714589785
5004.370143221788,38174.51575693268
5004.396168542696,37911.581676853115
5004.422193998949,38187.579581081314
5004.448219590549,38115.55242957472
5004.474245317495,38026.43574414686
5004.500271179789,37940.31467881612
5004.52629717743,37834.17659642898
5004.5523233104195,37645.558889194916
5004.578349578759,37433.47016370557
5004.604375982449,36676.383926672956
5004.630402521489,35938.17516415416
5004.656429195881,35343.25930366187
5004.682456005625,34589.291201582506
5004.708482950721,34259.35960511985
5004.734510031172,34228.19328439662
5004.760537246977,33920.60429921422
5004.7865645981365,33223.56256230089
5004.812592084652,32293.674567981554
5004.838619706525,30978.32901558445
5004.8646474637535,28974.03638806618
5004.890675356341,26299.443766330784
5004.916703384286,23653.66603650634
5004.942731547591,21548.17618534855
5004.968759846256,20595.306739979103
5004.994788280281,20708.019700521556
5005.020816849668,22387.535917938934
5005.046845554417,25197.924485593405
5005.072874394528,28335.289190103776
5005.098903370003,31054.37854479359
5005.124932480842,33107.69975158256
5005.150961727047,34342.31908942623
5005.176991108617,34783.69211645268
5005.203020625552,34791.05122202506
5005.229050277856,34257.21834291835
5005.255080065526,33223.689811373326
5005.281109988566,32203.87878090822
5005.3071400469735,30969.322574309816
5005.333170240751,29201.18657737573
5005.3592005699,27283.864496969494
5005.38523103442,25018.30512579206
5005.411261634312,22346.79156419564
5005.4372923695755,19494.23638249369
5005.463323240213,16732.176410978453
5005.489354246225,14684.835105158809
5005.515385387611,13629.063989429358
5005.541416664373,14008.111699644745
5005.567448076511,15474.454454576602
5005.593479624025,17654.789747086445
5005.619511306918,20400.756396949488
5005.645543125189,22763.8057835854
5005.671575078838,24273.441619912326
5005.697607167867,25079.769677114175
5005.723639392277,24894.239962565167
5005.749671752068,23737.955976476074
5005.77570424724,21632.573895716738
5005.8017368777955,19141.672291743667
5005.8277696437335,16554.828738653545
5005.853802545055,14284.117958383362
5005.879835581762,11994.56314159595
5005.905868753854,11050.613681953879
5005.931902061331,10739.070404711629
5005.957935504196,11724.637640115045
5005.983969082448,13930.44610602695
5006.010002796088,16744.171879061567
5006.036036645117,20307.89965328603
5006.062070629536,23987.714840916276
5006.088104749344,27405.244528069234
5006.114139004544,30568.830515961232
5006.140173395135,32937.08811510914
5006.166207921118,34580.024455468454
5006.192242582495,35770.35543825114
5006.218277379266,36466.92738791409
5006.244312311431,36929.30484303926
5006.270347378991,37149.52232919799
5006.296382581946,37356.357721395245
5006.322417920299,37116.77212564623
5006.348453394048,36730.333684091245
5006.374489003196,36860.733121810394
5006.400524747743,36887.60760089454
5006.426560627688,36700.780012191535
5006.452596643034,36867.96013014301
5006.47863279378,36650.245077811844
5006.504669079928,36622.96228358775
5006.530705501478,36517.01247965615
5006.556742058431,36424.27783341802
5006.582778750788,36510.65003629763
5006.608815578549,36300.03291936837
5006.634852541715,36096.98759364516
5006.660889640287,36095.84239103321
5006.686926874265,35842.49859681711
5006.71296424365,35301.62806454591
5006.739001748444,34603.72806398119
5006.765039388645,33700.331270715054
5006.791077164256,32584.57065124404
5006.817115075277,31158.115173382335
5006.843153121708,29478.585826590443
5006.869191303552,27306.53673316761
5006.895229620806,24655.044124199005
5006.921268073474,21755.882181600526
5006.947306661555,18552.409986735314
5006.97334538505,15711.272250278735
5006.999384243961,13408.543855637336
5007.025423238286,11999.642416002927
5007.051462368028,11700.938264773557
5007.077501633187,12488.612782618753
5007.103541033764,14502.348767110034
5007.129580569759,17440.702568306515
5007.155620241173,20884.93107489297
5007.181660048007,24566.746420908563
5007.207699990262,27989.531920692196
5007.233740067937,31022.299655510662
5007.259780281035,33420.31279612434
5007.285820629555,35058.04479138547
5007.311861113499,36201.28838036035
5007.337901732866,36778.05717456064
5007.363942487658,36980.42331056793
5007.389983377876,36668.80608092295
5007.41602440352,36492.68028833169
5007.442065564591,35081.33179409961
5007.468106861089,34372.08961721616
5007.494148293015,33282.48184337545
5007.520189860371,32600.334083696645
5007.546231563156,32444.693485883578
5007.572273401372,33137.925136666265
5007.598315375018,34464.401722885406
5007.624357484096,35897.73639682599
5007.650399728607,37216.60152924389
5007.676442108551,38116.50919737914
5007.702484623929,38808.35712250868
5007.728527274741,39260.378234101634
5007.754570060989,39237.77655966708
5007.780612982673,39149.93690681718
5007.806656039793,39131.191231619465
5007.832699232351,39024.2355958105
5007.858742560347,38945.83401851899
5007.884786023782,39055.24454872538
5007.910829622656,39293.41009943621
5007.936873356971,39289.80740983318
5007.962917226726,39597.9484822015
5007.988961231923,39735.49778664791
5008.015005372563,39534.998105634724
5008.041049648646,39615.376520464124
5008.067094060171,39894.743950939665
5008.0931386071425,39909.71360822425
5008.119183289558,39925.909013511664
5008.14522810742,39839.93849028648
5008.171273060728,39736.4748485805
5008.197318149483,39727.63633795974
5008.223363373687,39714.616331834375
5008.249408733339,39495.55951185904
5008.27545422844,39223.00374105089
5008.301499858992,39048.039998043634
5008.327545624995,38502.468742974415
5008.353591526448,37900.94603136564
5008.379637563355,37300.74910186186
5008.405683735714,36725.23439527512
5008.431730043527,36231.98811232922
5008.457776486794,35980.01631991122
5008.483823065515,36512.64462010756
5008.509869779693,37053.267265037364
5008.535916629327,37924.376879268646
5008.561963614418,38763.465660942304
5008.588010734968,39053.883806228274
5008.614057990975,39229.90699344747
5008.640105382442,39678.819309747814
5008.666152909369,39297.97421582636
5008.692200571756,39563.10299576484
5008.718248369605,39524.87781269796
5008.744296302916,39305.90461039298
5008.77034437169,39464.06091265322
5008.796392575927,39384.37745585855
5008.822440915628,39371.929280796634
5008.848489390794,39311.40175975281
5008.874538001426,39357.15982339701
5008.900586747524,39514.05895805365
5008.926635629089,39519.963398263324
5008.952684646122,39498.629973363066
5008.978733798623,39588.983812216
5009.004783086593,39554.341702194964
5009.030832510033,39443.47408336915
5009.056882068944,39492.36852097066
5009.082931763326,39530.542739039614
5009.108981593179,39462.28605043801
5009.135031558506,39417.329698223584
5009.161081659306,39261.885595525615
5009.187131895579,38780.48449048637
5009.213182267327,38465.78607938694
5009.239232774552,38057.68807227436
5009.265283417251,37667.750714623384
5009.291334195428,37471.27508799898
5009.317385109083,37066.38301161294
5009.343436158216,36588.04369863529
5009.369487342828,35760.19665287896
5009.395538662919,34735.05714921976
5009.421590118491,33726.80390358092
5009.447641709544,33034.73704075657
5009.473693436078,32968.180435514994
5009.499745298095,33777.42416369702
5009.525797295596,35015.95398659721
5009.55184942858,36048.90073453637
5009.577901697049,36711.89532888438
5009.603954101003,37088.91976021296
5009.630006640443,37040.46781618887
5009.65605931537,36692.4403090156
5009.682112125784,36048.28038994154
5009.708165071686,34950.148074256314
5009.7342181530785,33643.79010879838
5009.760271369959,31978.586138949144
5009.78632472233,30178.83104609995
5009.812378210192,28497.85092275613
5009.838431833546,27115.68259416202
5009.864485592391,26573.436442088718
5009.890539486731,26157.136039518093
5009.916593516564,25816.286387070475
5009.942647681891,24845.80258248851
5009.968701982713,23638.1885349341
5009.994756419032,22582.305173900433
5010.020810990847,22193.144041432286
5010.046865698159,23041.349850554707
5010.072920540969,24938.810473406906
5010.098975519279,27367.00174851204
5010.125030633087,30084.695262020618
5010.151085882395,32745.657474087948
5010.177141267204,34810.92784019058
5010.2031967875155,36468.878299534255
5010.229252443328,37701.74892283052
5010.255308234644,38396.56092286183
5010.281364161464,39086.30211889049
5010.307420223788,39465.72629565165
5010.333476421617,39505.47346397907
5010.359532754951,39636.44394080441
5010.3855892237925,39509.832990053335
5010.4116458281405,39455.72478348444
5010.437702567997,39400.57444161164
5010.463759443362,39159.525748230204
5010.489816454236,38927.8670152658
5010.51587360062,38477.450827014036
5010.541930882514,37630.4464645637
5010.56798829992,36799.63850239265
5010.5940458528385,35710.755508095106
5010.62010354127,34272.08500608914
5010.646161365214,32171.451455593065
5010.672219324672,30117.179926743334
5010.698277419646,28052.094686346
5010.724335650135,26823.92468981929
5010.7503940161405,26480.16678144129
5010.7764525176635,27526.213090329908
5010.802511154703,29697.781892997456
5010.828569927262,32116.39539688578
5010.85462883534,34508.71368509628
5010.880687878937,36445.26711055691
5010.906747058056,37707.61136856448
5010.932806372695,38482.85668324664
5010.958865822856,38867.33223818246
5010.98492540854,38989.13927296951
5011.0109851297475,39105.90772999005
5011.0370449864795,39346.55626416721
5011.063104978735,39529.03523735812
5011.089165106517,39413.76127254636
5011.115225369825,39388.07053610774
5011.14128576866,39683.92886804343
5011.167346303022,39707.82168055819
5011.193406972913,39741.07363861329
5011.219467778333,39690.08830383292
5011.2455287192815,39528.28703037748
5011.271589795761,39349.93818639342
5011.297651007772,39218.707006896955
5011.323712355315,38702.59073053529
5011.34977383839,38187.09029625406
5011.375835456999,37732.174908234614
5011.401897211142,36868.155357126016
5011.427959100819,35819.31866475103
5011.454021126031,34637.532731451145
5011.4800832867795,33516.48796393852
5011.506145583065,32198.209164557884
5011.532208014888,31216.052580224175
5011.558270582248,30552.246853761695
5011.584333285148,30143.867191730307
5011.610396123588,29951.264694524052
5011.636459097567,30398.852633726376
5011.662522207088,29522.905013898246
5011.68858545215,27009.17973797878
5011.714648832754,24148.902023605464
5011.740712348902,22246.44281356945
5011.766776000594,19607.004317091745
5011.79283978783,15627.113980135036
5011.818903710611,12993.264729101844
5011.844967768939,11135.42196709509
5011.871031962813,10039.383810575224
5011.897096292234,9899.46156363237
5011.923160757203,10632.945992540774
5011.949225357721,12295.869497743919
5011.975290093788,14767.281527008348
5012.001354965406,18018.543531651212
5012.027419972574,21308.980914098443
5012.053485115294,24597.61833243794
5012.079550393566,27175.99981024159
5012.105615807392,28588.91068007519
5012.13168135677,28874.47214785757
5012.157747041703,28076.17891827157
5012.183812862192,26547.498139626183
5012.209878818236,24773.359555928164
5012.235944909837,23600.151873062227
5012.262011136994,23397.605851956763
5012.28807749971,24490.661406403284
5012.3141439979845,26429.720313557253
5012.340210631818,28691.674486116644
5012.366277401212,30375.559814039723
5012.392344306166,31420.942107116563
5012.418411346682,31593.547835953643
5012.44447852276,30983.439469852103
5012.470545834401,30158.11727042851
5012.496613281605,29684.92847977493
5012.522680864374,29976.98177747903
5012.548748582707,31207.572999235737
5012.574816436606,32908.57557873958
5012.600884426071,34595.35273805308
5012.626952551104,36268.123058635
5012.653020811705,37417.00788154159
5012.679089207873,38000.40219473605
5012.705157739611,38472.88989152919
5012.73122640692,38482.937178865024
5012.757295209798,38443.8070209771
5012.7833641482475,38473.06977282649
5012.80943322227,38226.140289283234
5012.835502431864,37937.06982203863
5012.861571777033,37679.36518286124
5012.887641257775,37319.05133437688
5012.9137108740915,36660.51234218832
5012.939780625984,35653.254833685794
5012.965850513452,34117.83548922671
5012.991920536498,32341.185851310718
5013.017990695121,29907.407735257446
5013.044060989323,27249.96588165526
5013.070131419104,24817.338699046442
5013.096201984464,23186.05720546308
5013.122272685405,22580.299509721015
5013.148343521927,23454.63908271943
5013.17441449403,25027.165332331766
5013.200485601717,26911.498055335614
5013.226556844987,28871.290863415852
5013.2526282238405,30069.701505044755
5013.278699738279,30475.45755119808
5013.304771388303,30102.924143723896
5013.330843173913,28693.18255494473
5013.35691509511,26594.60004108875
5013.382987151894,24229.21061190349
5013.409059344267,21519.02457206095
5013.435131672228,18762.677460241906
5013.46120413578,16631.351994663026
5013.487276734921,15494.793589455008
5013.513349469653,15568.763064874798
5013.539422339977,17021.166085954632
5013.565495345894,19760.314226749084
5013.5915684874035,22928.986371841915
5013.617641764507,25860.893287785457
5013.643715177206,28196.849754332008
5013.6697887254995,29868.077381201256
5013.695862409389,30721.48384358192
5013.721936228875,31126.27593902395
5013.748010183958,31483.407685271584
5013.77408427464,31660.44167045972
5013.800158500921,31610.14032082888
5013.826232862801,31155.040895625403
5013.852307360281,29764.9771614252
5013.8783819933615,27849.88475731744
5013.904456762045,25091.45427801786
5013.930531666329,21810.544131771
5013.956606706218,18530.052085015384
5013.982681881709,15715.944247477531
5014.008757192805,13612.150445995803
5014.034832639507,12582.692729048356
5014.060908221814,12664.98062392014
5014.086983939728,13919.55673447481
5014.113059793249,16286.232400895931
5014.139135782378,19318.502681460443
5014.165211907116,22958.84585409042
5014.1912881674625,26602.05440340475
5014.21736456342,29870.299557858874
5014.243441094988,32351.122703801175
5014.269517762167,34025.039631254396
5014.295594564959,34895.58166052291
