wave,flux
4450.003811362098,18236.739646461505
4450.026953690486,18184.104019821632
4450.050096139227,17894.511386213704
4450.073238708321,17406.45352686758
4450.096381397769,16616.19685859023
4450.119524207569,15811.292778367533
4450.142667137726,14919.928663307912
4450.165810188237,13795.859900297743
4450.188953359103,12730.082825017103
4450.212096650326,11528.993311676046
4450.2352400619075,10429.836167003881
4450.258383593846,9120.036997879713
4450.281527246142,8003.7753916307865
4450.304671018797,6923.50791753835
4450.327814911813,6109.155602672571
4450.350958925188,5402.673601648714
4450.374103058924,4832.181357199499
4450.3972473130225,4567.417848244793
4450.420391687483,4389.90908235454
4450.443536182305,4304.953972921052
4450.466680797492,4396.057794941766
4450.489825533042,4647.450123197766
4450.512970388957,5158.2053996587665
4450.536115365237,5831.31231698695
4450.559260461882,6671.404263529515
4450.582405678895,7480.013280906017
4450.605551016274,8287.970550946533
4450.628696474022,8999.872092128595
4450.651842052138,9563.752665239866
4450.674987750623,10015.073509277856
4450.698133569476,10135.569548477692
4450.721279508702,10131.647134236857
4450.744425568297,10202.034923338684
4450.767571748264,10535.049760329337
4450.790718048604,10952.659550328657
4450.813864469315,11503.954064478074
4450.837011010401,12023.068232268468
4450.86015767186,12611.840828571305
4450.883304453694,13456.782375942195
4450.906451355903,14445.723497749364
4450.929598378489,15229.427084596195
4450.95274552145,16676.67828606322
4450.975892784789,17859.807521449853
4450.999040168505,19052.224077561397
4451.022187672601,19844.089803403927
4451.045335297074,20550.00311210859
4451.068483041929,21253.695004824374
4451.091630907163,21394.141605057655
4451.114778892777,21436.136842414788
4451.137926998774,21421.08322473823
4451.161075225153,21278.969751590743
4451.184223571914,21211.98111737699
4451.207372039059,20958.497578049362
4451.230520626587,20595.891263180747
4451.253669334501,19938.61113015038
4451.2768181628,19179.346521938434
4451.299967111485,18478.42228577773
4451.323116180556,17712.958063993592
4451.346265370014,16674.668310379286
4451.369414679861,15634.034110078957
4451.392564110095,14541.96931788327
4451.415713660719,13442.778536171061
4451.438863331732,12331.870167567595
4451.462013123136,11066.300223734024
4451.48516303493,10042.761698929873
4451.508313067117,9294.582678820112
4451.531463219695,8667.918286015549
4451.554613492666,8468.504425655958
4451.577763886031,8843.455353500462
4451.60091439979,9655.653538612958
4451.624065033943,10739.014637646036
4451.647215788492,12028.948469061434
4451.670366663436,13546.71733653598
4451.693517658777,14960.0573636699
4451.716668774516,16177.584305888588
4451.739820010652,16847.05769935015
4451.762971367186,17342.7324350265
4451.78612284412,17584.224564275006
4451.8092744414525,17479.345169693708
4451.832426159187,17257.85131689146
4451.855577997321,16636.652940744403
4451.878729955857,15977.637610622147
4451.901882034796,15084.1911152639
4451.925034234137,14721.367477960668
4451.948186553881,14019.591647992609
4451.97133899403,13959.49646300622
4451.994491554583,13921.902136680721
4452.017644235542,14250.619916409654
4452.040797036907,14984.93118698206
4452.063949958678,16054.55889733744
4452.087103000857,16973.46002548062
4452.1102561634425,18005.180230394624
4452.133409446437,18854.604113386737
4452.156562849841,19722.189409292245
4452.179716373655,20451.438384911355
4452.202870017878,20878.819225812626
4452.226023782513,21207.53837603885
4452.24917766756,21501.37843312345
4452.272331673018,21507.818383706035
4452.29548579889,21366.57980207147
4452.318640045174,21181.236349010604
4452.341794411874,20811.795960076073
4452.364948898987,20446.842773879496
4452.388103506516,20066.966742241068
4452.4112582344615,19445.087587364593
4452.434413082823,18932.50682805179
4452.457568051602,18356.412818473458
4452.480723140799,17436.14226460978
4452.503878350413,16628.42092195357
4452.527033680448,15777.55963765017
4452.550189130902,15103.670841048808
4452.5733447017765,14384.08522491279
4452.596500393071,13813.015406934956
4452.619656204789,13267.60377574199
4452.642812136928,12805.797146230132
4452.66596818949,12722.464063884281
4452.689124362475,12833.57055220768
4452.7122806558855,12736.604021996856
4452.735437069719,13065.763926803882
4452.7585936039795,13516.634057292673
4452.781750258665,14073.37142064937
4452.804907033777,14423.864952427126
4452.828063929317,15058.506579498451
4452.851220945285,15344.664071936224
4452.87437808168,15194.442010118757
4452.897535338506,15030.294720727023
4452.92069271576,14753.099171639451
4452.943850213445,14252.908683310845
4452.967007831562,14049.060785862124
4452.99016557011,13869.913064139355
4453.01332342909,13631.176905546308
4453.036481408502,13893.461217541757
4453.059639508349,14226.60427000058
4453.08279772863,14603.146142774713
4453.105956069345,14715.585170536806
4453.129114530496,14559.071217314338
4453.152273112083,14385.5189746213
4453.175431814107,13952.042855106509
4453.198590636567,13419.015293738794
4453.221749579466,12891.428723462535
4453.244908642802,12369.349912529635
4453.268067826579,12049.742846491874
4453.291227130795,12119.463784959142
4453.314386555451,12485.493907532067
4453.337546100549,13008.588509867652
4453.360705766087,13964.937684380275
4453.3838655520685,15133.73788506765
4453.407025458493,16193.09307362468
4453.430185485361,17190.004236168257
4453.453345632673,17879.669840538118
4453.476505900429,18279.11701250437
4453.4996662886315,18378.89939437101
4453.52282679728,18223.946319012215
4453.545987426375,17983.988273764884
4453.569148175917,17438.999980477023
4453.592309045907,16904.892106575047
4453.615470036346,16460.68782515829
4453.638631147233,16028.120253632063
4453.661792378571,15722.725445945885
4453.684953730359,15575.28164203907
4453.708115202598,15648.423941661953
4453.731276795288,16035.6548418621
4453.754438508431,16800.859338441405
4453.777600342027,17664.27955135312
4453.800762296077,18511.94496120144
4453.82392437058,19241.11139280591
4453.847086565538,19965.84625722118
4453.870248880952,20190.66225013863
4453.8934113168225,20484.083356203235
4453.916573873149,20817.936567023255
4453.939736549933,20821.00700691755
4453.962899347174,20900.629924288543
4453.986062264875,20839.894530280653
4454.009225303034,20646.183762330253
4454.032388461654,20274.51779323268
4454.055551740734,19756.907462099145
4454.078715140275,19080.7140392512
4454.101878660277,18235.35908691905
4454.125042300742,17426.995986839447
4454.14820606167,16600.57200088202
4454.171369943061,15476.098773808695
4454.194533944917,14291.95874277115
4454.2176980672375,13010.854668321688
4454.240862310024,11751.453417257053
4454.264026673275,10606.984254871935
4454.287191156994,9407.944826714403
4454.31035576118,8359.006421569762
4454.333520485834,7670.707875064912
4454.356685330957,7246.681749346942
4454.379850296548,7141.652463371005
4454.40301538261,7188.475977922244
4454.426180589142,7642.154199869615
4454.449345916145,8273.13663763933
4454.4725113636205,8878.097515765237
4454.495676931568,9214.82388267026
4454.5188426199875,9329.549535209551
4454.542008428882,9226.849215676006
4454.565174358249,8751.100570748278
4454.588340408092,8011.994347713577
4454.611506578411,7202.001421133695
4454.634672869205,6351.02412312535
4454.657839280476,5571.715917403559
4454.681005812225,4928.098402105583
4454.704172464451,4399.723704725677
4454.727339237156,4141.345706636024
4454.750506130341,4071.842666514683
4454.773673144005,4169.6367738031195
4454.79684027815,4535.247384469414
4454.820007532776,5074.370555164109
4454.843174907884,5671.6352159784155
4454.866342403473,6323.426642087854
4454.889510019546,7007.056497722858
4454.912677756102,7514.366145021601
4454.935845613144,7926.456861700172
4454.959013590669,8336.04320358779
4454.982181688681,8650.33218983647
4455.005349907178,8840.813224845691
4455.028518246162,9403.589284395608
4455.051686705633,9875.075173375177
4455.074855285593,10445.6212578877
4455.098023986041,11085.643176736661
4455.121192806979,11593.898312126406
4455.144361748406,11943.491421150547
4455.167530810323,11870.353000738089
4455.190699992732,11756.603578791432
4455.213869295633,11364.9505725566
4455.237038719026,10964.56273607755
4455.260208262912,10717.658346265789
4455.283377927292,10664.206005774951
4455.306547712166,10868.165468528052
4455.329717617535,11592.794582584065
4455.352887643399,12537.614994830732
4455.37605778976,13628.907227421321
4455.399228056617,14988.872402117602
4455.422398443972,16010.101377309156
4455.445568951825,16952.823119126915
4455.468739580177,17341.878726219227
4455.491910329028,17445.8885300244
4455.515081198378,17439.67387210336
4455.538252188229,16996.134162724506
4455.561423298582,16628.398002262908
4455.584594529436,15603.608752771044
4455.607765880793,14672.029121827536
4455.630937352652,13527.613682410123
4455.654108945016,12592.197634708227
4455.677280657883,11584.371718949144
4455.700452491255,10789.195313375125
4455.723624445134,9767.390031154675
4455.746796519518,8922.105418744284
4455.7699687144095,7984.638687360529
4455.793141029808,7284.400347939663
4455.816313465714,6680.06023798173
4455.83948602213,6540.17055139395
4455.862658699055,6664.511408886391
4455.885831496489,7075.910567949313
4455.909004414434,7965.786948670786
4455.932177452891,9139.60103137728
4455.955350611858,10627.800240491431
4455.978523891339,12266.785043611477
4456.001697291333,13540.93442975779
4456.024870811841,14674.978199796218
4456.048044452862,15668.14395548833
4456.071218214399,16207.73342205841
4456.094392096451,16551.016466325455
4456.117566099019,16406.215064337604
4456.140740222105,15865.57845832015
4456.163914465707,15688.319669005423
4456.187088829828,14979.608031397625
4456.210263314468,14084.247889911037
4456.233437919626,13195.178530324265
4456.256612645306,12384.481494372149
4456.279787491505,11578.68024911963
4456.302962458226,10640.874759506229
4456.326137545469,10008.714222058006
4456.349312753233,9753.25166920117
4456.372488081522,9821.353918353141
4456.395663530333,10058.495617535955
4456.41883909967,10460.599386709808
4456.442014789531,10891.288925801402
4456.465190599917,11310.067061350195
4456.488366530831,11372.506175375473
4456.5115425822705,11222.204785187741
4456.5347187542375,11221.429249436993
4456.557895046733,11087.47443791067
4456.581071459757,10925.701022390702
4456.604247993311,10942.514421383328
4456.627424647395,11263.432245019747
4456.650601422009,11754.322531338294
4456.673778317154,12942.431769169429
4456.696955332832,14285.261493311613
4456.720132469041,15170.934295963189
4456.7433097257845,16245.418262340128
4456.766487103061,17293.249437208313
4456.789664600872,18010.71093939579
4456.8128422192185,18245.990340140717
4456.8360199581,18219.562568653528
4456.859197817518,17831.64528161932
4456.882375797473,17342.29177619762
4456.905553897966,17027.30435129818
4456.928732118997,16534.089141840894
4456.951910460566,16232.363617933946
4456.975088922674,15985.607294658406
4456.998267505323,15789.223589996342
4457.021446208513,15707.167070161398
4457.044625032244,15688.967386596247
4457.067803976516,15921.255013436921
4457.090983041332,16279.461150311165
4457.1141622266905,16607.099654617592
4457.1373415325925,16881.21084219917
4457.160520959039,17088.12838617266
4457.183700506031,16753.5100782443
4457.206880173568,16219.534210859285
4457.230059961651,15593.057468116504
4457.2532398702815,14791.7081412136
4457.27641989946,13605.652801697031
4457.299600049186,12683.944654053743
4457.322780319461,11698.240008165456
4457.345960710286,10661.276279394322
4457.36914122166,9582.79625055917
4457.392321853586,8682.23781414022
4457.415502606062,8140.480780812657
4457.43868347909,7964.336800415331
4457.461864472672,8173.264324106438
4457.485045586805,8622.977702189211
4457.508226821494,9439.085214106603
4457.5314081767365,10465.6050707514
4457.554589652534,11662.01116648444
4457.577771248887,13037.745949583503
4457.600952965797,14365.843683088922
4457.624134803263,15592.41595402251
4457.647316761288,16750.824267961452
4457.67049883987,17499.032719878334
4457.693681039011,17876.033521186364
4457.716863358712,17875.75055674919
4457.7400457989725,17832.633315392603
4457.763228359793,17773.13034640567
4457.7864110411765,17569.459622302435
4457.809593843121,17134.21457086848
4457.832776765628,16883.450635105113
4457.855959808699,16515.317168117657
4457.879142972333,16030.127167773056
4457.902326256532,15249.301257643863
4457.925509661296,14457.515664592593
4457.948693186626,13513.179111588852
4457.971876832522,12538.231602971196
4457.995060598985,11604.732840445846
4458.018244486016,10613.452919324627
4458.041428493615,9969.844083622678
4458.0646126217825,9360.3034542836
4458.08779687052,9027.512818425239
4458.110981239827,8988.758310838679
4458.134165729705,9219.496359883406
4458.157350340155,9220.737568121307
4458.180535071177,9610.783956369336
4458.203719922771,9998.175696869444
4458.226904894938,10323.369579839806
4458.2500899876795,10725.708855991597
4458.273275200995,11261.424787131353
4458.296460534886,11942.571884170067
4458.3196459893525,12608.031446559384
4458.342831564396,13512.633670090967
4458.366017260016,13796.713120703362
4458.389203076214,13934.761014253274
4458.4123890129895,14048.15611468466
4458.435575070344,13754.565810554452
4458.458761248279,13528.918830727313
4458.481947546794,13234.692997458344
4458.505133965889,13187.400650902136
4458.528320505566,13553.521436740533
4458.551507165825,14210.01276314779
4458.574693946666,15067.135252521515
4458.597880848091,16130.73947006247
4458.6210678701,17443.08983082859
4458.644255012693,18118.975956637667
4458.6674422758715,18291.714060436716
4458.690629659636,18668.8174428562
4458.713817163986,18664.436254828695
4458.737004788924,18259.482221479768
4458.76019253445,17593.355613151696
4458.783380400563,16990.938358746644
4458.8065683872655,15938.244684975065
4458.829756494558,14817.8704994542
4458.85294472244,13684.550641302789
4458.876133070914,12444.606891084242
4458.899321539979,11116.349160151789
4458.922510129635,9899.571698932754
4458.945698839884,8601.156115199192
4458.968887670727,7501.686875518599
4458.992076622164,6271.708298679733
4459.015265694195,5320.6067431724705
4459.0384548868215,4715.341118226635
4459.061644200044,4253.631163269424
4459.084833633862,4229.358805958273
4459.108023188278,4388.835882195143
4459.131212863292,4662.672593246837
4459.154402658904,5135.048021091042
4459.177592575114,5965.360748106332
4459.200782611925,6614.230773477409
4459.223972769336,7459.43252793515
4459.247163047347,8261.37766438609
4459.27035344596,8984.594875178787
4459.293543965176,9675.332630265395
4459.316734604993,10310.875943343137
4459.339925365414,11037.438911595847
4459.363116246439,12136.68740203128
4459.386307248069,13096.596117917945
4459.409498370304,14211.812953220708
4459.432689613145,15388.786030332296
4459.455880976592,16526.175621657527
4459.479072460647,17626.873994096106
4459.502264065309,17864.889053672436
4459.52545579058,18230.19512828326
4459.5486476364595,18123.160839055123
4459.571839602949,17850.57730836119
4459.595031690048,17421.52603085048
4459.618223897759,17026.157194332343
4459.641416226081,16181.486463934058
4459.664608675014,15339.406570995254
4459.687801244561,15001.28370555243
4459.710993934721,14604.441695791991
4459.734186745496,14523.616764156597
4459.757379676885,14744.19859984809
4459.780572728889,15116.949933772941
4459.803765901509,15906.067103746913
4459.8269591947455,16811.456664558056
4459.850152608599,17762.560217073176
4459.87334614307,18358.561365244725
4459.89653979816,18457.84654308184
4459.91973357387,18209.322793034407
4459.942927470198,17968.586400609405
4459.966121487147,17433.66711974409
4459.989315624717,17029.709752965016
4460.0125098829085,16086.242516079345
4460.035704261722,14977.158254654996
4460.058898761158,13845.609755606345
4460.082093381218,12824.373288557916
4460.105288121902,11543.984055047657
4460.12848298321,10369.951355080062
4460.151677965145,9361.462769306645
4460.1748730677045,8542.796790325523
4460.198068290891,7985.577416973891
4460.221263634704,7870.084777082148
4460.244459099145,8152.591713965009
4460.267654684215,8648.64119050524
4460.290850389914,9691.204649669946
4460.314046216243,10877.883794074965
4460.337242163202,12244.362468434027
4460.360438230791,13738.534576247286
4460.383634419013,15162.492939822236
4460.406830727867,16317.617538649554
4460.430027157354,17625.432790048093
4460.453223707474,18672.633624945352
4460.476420378228,19398.490012367856
4460.499617169617,19853.53542939923
4460.522814081641,20154.720898711315
4460.5460111143,20704.206583853225
4460.569208267598,20620.320999462205
4460.592405541532,20292.66764456677
4460.615602936104,20431.915993813913
4460.638800451314,20586.805263515624
4460.661998087163,20353.756843317657
4460.685195843652,19952.166522158215
4460.708393720782,19722.95975518497
4460.731591718552,19515.354636365075
4460.754789836965,19213.761412515727
4460.777988076019,18773.266626960885
4460.801186435716,18525.052381445286
4460.824384916057,18207.11732845402
4460.847583517042,17742.971343885867
4460.870782238671,17233.01776836135
4460.893981080947,16766.112813924417
4460.917180043868,16006.845542818899
4460.940379127435,14902.439270029065
4460.963578331651,13583.477624202456
4460.986777656513,12413.181556508185
4461.009977102025,11394.847504759478
4461.033176668186,10028.136065458293
4461.056376354995,8862.030577071415
4461.079576162457,7904.547550918302
4461.102776090568,7256.5373186210245
4461.125976139332,6888.526571780139
4461.149176308748,6669.458426370151
4461.172376598816,6695.442369339672
4461.195577009538,6787.7734411418705
4461.218777540915,7030.584835104644
4461.241978192946,7337.374640217947
4461.265178965633,7592.336912794376
4461.2883798589755,7873.90752384304
4461.311580872974,8005.520599929122
4461.3347820076315,7826.73630941124
4461.357983262946,7680.442841695843
4461.381184638919,7373.938735399743
4461.404386135551,6966.560754512953
4461.4275877528435,6581.658416905792
4461.4507894907965,6175.8499385115965
4461.4739913494095,5927.1488346653805
4461.497193328685,5855.9766184452255
4461.520395428623,5711.787485298731
4461.543597649224,5358.417612589096
4461.566799990488,5053.593891485982
4461.590002452416,4740.3386091138655
4461.61320503501,4550.9566775347275
4461.636407738269,4547.518189818558
4461.659610562193,4807.964246520628
4461.682813506784,5334.233068763399
4461.706016572044,6028.989228076609
4461.729219757971,6888.308217363586
4461.752423064566,7802.5254345999765
4461.775626491831,8615.686290695736
4461.798830039766,9165.082625272842
4461.82203370837,9620.52534453851
4461.845237497647,9655.142832306688
4461.868441407595,9546.98916566316
4461.891645438215,9283.112735066745
4461.914849589509,8653.153392377579
4461.938053861475,8178.561400864907
4461.961258254117,7916.85273563342
4461.984462767433,7673.470987900364
4462.007667401424,7937.9881166838
4462.030872156092,8638.305729453044
4462.0540770314365,9555.739866023774
4462.077282027459,10341.897707296677
4462.100487144158,11375.948479890936
4462.123692381537,12222.934593327715
4462.146897739594,12789.649669958268
4462.170103218332,13160.737107334982
4462.19330881775,13258.651903350432
4462.21651453785,13352.646583555972
4462.239720378631,13050.649548687083
4462.262926340095,13002.224791810024
4462.286132422241,12379.103691466182
4462.309338625071,12175.548376230749
4462.3325449485865,11631.653997096473
4462.355751392785,11009.722624109267
4462.3789579576705,10600.02789533445
4462.402164643242,10400.789425224486
4462.4253714495,10539.421227095585
4462.448578376446,10920.759022676708
4462.471785424079,11711.792980142995
4462.494992592401,12948.118042824542
4462.518199881412,14116.730832541887
4462.541407291114,15498.283486258315
4462.564614821506,16538.11495024265
4462.587822472589,17234.67765612601
4462.611030244365,17857.41892436725
4462.634238136832,17849.2275637699
4462.657446149992,17740.966738509167
4462.680654283847,17618.12459042015
