wave,flux
5000.025812696027,22577.269838126642
5000.051815424163,21939.728271523672
5000.0778182875265,20954.912587020033
5000.103821286119,19883.56960429878
5000.12982441994,18919.866207651976
5000.155827688991,17954.85983465991
5000.181831093272,16670.025805568326
5000.207834632784,15622.20853383245
5000.2338383075285,14773.397280735144
5000.259842117506,14111.88265627618
5000.285846062716,13804.56556176571
5000.311850143161,13614.628195469833
5000.33785435884,13655.776498692403
5000.363858709754,14150.595193848878
5000.389863195905,14903.496349915324
5000.415867817292,15772.372336733944
5000.441872573917,16866.37687151925
5000.4678774657805,18062.977771983427
5000.493882492882,18794.730255580784
5000.519887655224,19302.524642594806
5000.545892952806,19584.394555122668
5000.571898385629,19629.905432127616
5000.597903953694,19384.40655328717
5000.623909657001,19067.845409881083
5000.649915495552,18425.069141167685
5000.675921469346,18059.416340589287
5000.701927578384,17523.95828196337
5000.727933822669,17150.358188049224
5000.7539402021985,17068.181426074694
5000.779946716975,17151.33980960934
5000.805953366999,17547.6046494027
5000.831960152272,17900.134880829897
5000.857967072792,18294.45013446096
5000.883974128563,18657.73941538825
5000.9099813195835,18765.46347938914
5000.935988645855,18882.720928856666
5000.961996107378,19309.807505595556
5000.988003704153,19583.761488770153
5001.014011436181,20066.39027488479
5001.040019303464,20588.10611522329
5001.066027306,21166.76284111458
5001.092035443791,21891.9370140999
5001.118043716839,22438.937035687308
5001.1440521251425,22534.246835991376
5001.170060668704,22549.098574601056
5001.196069347523,22492.035758858496
5001.222078161601,22224.355818964934
5001.248087110937,22070.177162679745
5001.274096195534,21843.189851477156
5001.300105415392,21787.941238636246
5001.326114770512,21437.36854872741
5001.352124260892,21128.085205491603
5001.3781338865365,20843.76496174158
5001.4041436474445,20483.496710065716
5001.430153543616,20140.144258201395
5001.456163575053,19676.554988790678
5001.482173741756,19313.009433004478
5001.508184043724,19002.346033772345
5001.534194480961,18722.297674193454
5001.560205053464,18362.296096445447
5001.586215761236,18097.20469831494
5001.612226604278,17623.659006671518
5001.638237582589,16628.92401729609
5001.664248696171,15618.225436792578
5001.690259945024,14407.211273130119
5001.716271329149,13336.000825950068
5001.742282848547,12131.397770293643
5001.768294503218,11218.632022214179
5001.794306293164,10490.16334836068
5001.820318218383,9975.098253556429
5001.84633027888,9850.918986458697
5001.872342474651,10347.551429603662
5001.8983548056995,11255.43311539244
5001.924367272026,12671.86866953356
5001.9503798736305,14346.084146640116
5001.976392610514,16111.33552229668
5002.002405482678,17984.432136711694
5002.028418490122,19507.155679845186
5002.054431632847,20651.778112901786
5002.080444910854,21771.26957591484
5002.106458324142,22558.604821992736
5002.1324718727155,23325.55277700449
5002.158485556572,23627.988159239787
5002.184499375713,23741.440070232493
5002.210513330139,23832.210305275632
5002.236527419852,23833.735564869665
5002.262541644852,23803.628128430693
5002.288556005138,23641.16734881812
5002.314570500714,23600.626646496057
5002.340585131577,23504.39152991868
5002.36659989773,23244.813537600225
5002.392614799174,22828.66475141166
5002.418629835909,22363.54475051482
5002.444645007936,21971.10955106725
5002.4706603152545,21491.065860151895
5002.496675757866,20840.817043871863
5002.522691335772,20195.033411738084
5002.548707048972,19471.883404825843
5002.574722897468,18692.225410497398
5002.600738881259,17850.149710003396
5002.626755000347,17112.30406612344
5002.652771254732,16099.851095950507
5002.678787644415,15378.830754050616
5002.704804169397,14626.941643576956
5002.730820829678,13998.225353466452
5002.75683762526,13911.971298603152
5002.782854556142,14100.938517570536
5002.8088716223265,14684.643426631532
5002.834888823812,15748.695368562485
5002.860906160601,17104.62112121975
5002.886923632695,18599.99245120019
5002.912941240092,20155.36299393583
5002.938958982793,21579.730319667895
5002.9649768608015,22537.485884566955
5002.990994874116,23152.865039427477
5003.017013022737,23756.15989200562
5003.043031306666,24140.264832949022
5003.069049725905,24256.179733377456
5003.095068280452,24368.98890220259
5003.121086970309,24512.164921871507
5003.147105795477,24449.96673733571
5003.173124755956,24334.888327613804
5003.199143851748,24243.825411363636
5003.225163082852,24182.400308161465
5003.251182449269,24414.55170803813
5003.277201951001,24354.73112623719
5003.3032215880485,24092.275737169686
5003.32924136041,24054.433419369154
5003.35526126809,23923.773522859166
5003.381281311085,23718.206660874166
5003.407301489398,23686.092315562026
5003.433321803031,23649.617408072565
5003.459342251982,23265.56961627431
5003.4853628362525,22714.963091703197
5003.511383555844,22431.466419724784
5003.537404410757,22383.00780750446
5003.563425400991,21711.13568488949
5003.589446526548,21250.029161786963
5003.615467787429,20655.132319135868
5003.641489183634,20201.61946727903
5003.667510715163,19658.98546614327
5003.693532382018,19133.3542802466
5003.719554184199,18814.264402363035
5003.745576121707,18613.13180987912
5003.771598194542,18639.34881038794
5003.797620402706,18870.02459465288
5003.823642746199,19168.44820799645
5003.849665225021,19468.164386547942
5003.875687839174,19469.081672879485
5003.901710588658,19388.88219693583
5003.927733473473,19247.563227878305
5003.953756493622,18763.83355769933
5003.979779649103,18589.010286946483
5004.005802939919,18112.204799793577
5004.031826366068,17973.23703333429
5004.057849927553,18062.46626000306
5004.083873624375,18355.026510722968
5004.109897456533,19034.239656357084
5004.135921424028,19790.172560503706
5004.161945526862,20336.09226223959
5004.187969765035,20785.36615313225
5004.213994138547,21268.483381050773
5004.240018647399,21530.30824667594
5004.266043291592,21613.205018964996
5004.292068071127,21701.304024889334
5004.318092986004,21811.918084834768
5004.344118036223,22150.706933519752
5004.370143221788,22352.59972346153
5004.396168542696,22630.840168802617
5004.422193998949,22927.50774951126
5004.448219590549,23333.850096431343
5004.474245317495,23574.244649345525
5004.500271179789,24043.261697372156
5004.52629717743,24205.342878420477
5004.5523233104195,24315.506554005966
5004.578349578759,24354.04099959218
5004.604375982449,24107.797468115612
5004.630402521489,24107.548230628385
5004.656429195881,24102.642305805482
5004.682456005625,23999.949026035447
5004.708482950721,23876.307350001414
5004.734510031172,23651.312464183462
5004.760537246977,23372.859727906613
5004.7865645981365,22926.249758417955
5004.812592084652,22375.38814554795
5004.838619706525,21963.128660840724
5004.8646474637535,21579.069425572732
5004.890675356341,20895.743659324962
5004.916703384286,20010.376572141788
5004.942731547591,19584.69379509262
5004.968759846256,18975.236551899696
5004.994788280281,18454.75930485939
5005.020816849668,17506.116697049514
5005.046845554417,16725.478724615517
5005.072874394528,15902.315891213148
5005.098903370003,15386.590197284233
5005.124932480842,15062.961093577767
5005.150961727047,14975.321401476262
5005.176991108617,15225.32777157812
5005.203020625552,15835.657424567597
5005.229050277856,16773.14787311915
5005.255080065526,17911.723388871826
5005.281109988566,19101.920606617397
5005.3071400469735,20002.568309983057
5005.333170240751,20475.35136890706
5005.3592005699,20552.95366606192
5005.38523103442,20473.25873479923
5005.411261634312,19787.08121017408
5005.4372923695755,19111.709824859015
5005.463323240213,17952.705859398855
5005.489354246225,16989.86692051526
5005.515385387611,15869.253846001557
5005.541416664373,14666.276515150783
5005.567448076511,13596.877915559311
5005.593479624025,12425.841187948938
5005.619511306918,11414.645991238875
5005.645543125189,10633.37950466109
5005.671575078838,10011.744275847957
5005.697607167867,9656.027568759107
5005.723639392277,9813.14705578824
5005.749671752068,10347.504771687853
5005.77570424724,10994.586076192785
5005.8017368777955,11713.321995762708
5005.8277696437335,12199.384921427878
5005.853802545055,12687.03333760309
5005.879835581762,12796.079603299695
5005.905868753854,12498.694814713854
5005.931902061331,11930.180353429836
5005.957935504196,11270.197324203511
5005.983969082448,10345.41414541
5006.010002796088,9510.444970724759
5006.036036645117,8702.064312274355
5006.062070629536,8197.703589118619
5006.088104749344,8034.394485203637
5006.114139004544,8354.75214671992
5006.140173395135,9151.876064455244
5006.166207921118,10452.60705205166
5006.192242582495,12009.450180135931
5006.218277379266,13761.596008305798
5006.244312311431,15616.21533642238
5006.270347378991,17395.016874614834
5006.296382581946,19089.42577283258
5006.322417920299,20470.351655480055
5006.348453394048,21592.87537759256
5006.374489003196,22342.01276039004
5006.400524747743,22706.674185503343
5006.426560627688,23161.31696088102
5006.452596643034,23364.556426210565
5006.47863279378,23446.01670434827
5006.504669079928,23754.72227574308
5006.530705501478,23555.5023026964
5006.556742058431,23568.587336145578
5006.582778750788,23450.65085616075
5006.608815578549,23509.842550516132
5006.634852541715,23481.376992906684
5006.660889640287,23350.6894246878
5006.686926874265,23283.460149697545
5006.71296424365,23412.42115764767
5006.739001748444,23441.199547968492
5006.765039388645,23277.769406353153
5006.791077164256,23082.101233738562
5006.817115075277,22743.410012332384
5006.843153121708,22244.024336376668
5006.869191303552,21644.058300682154
5006.895229620806,21047.546413279626
5006.921268073474,20227.24340488823
5006.947306661555,19300.597072599005
5006.97334538505,18346.94801508717
5006.999384243961,17274.669209915908
5007.025423238286,15861.369468328367
5007.051462368028,14467.865417921777
5007.077501633187,13059.855060154048
5007.103541033764,11867.98122009167
5007.129580569759,10684.99484804417
5007.155620241173,9796.598146323415
5007.181660048007,9139.593170529228
5007.207699990262,8883.411156169854
5007.233740067937,9153.619565477875
5007.259780281035,9845.729071897105
5007.285820629555,10861.522350830239
5007.311861113499,12355.522792548754
5007.337901732866,14163.777324026078
5007.363942487658,15839.07080613396
5007.389983377876,17503.38846185835
5007.41602440352,19145.54869606835
5007.442065564591,20415.852723856668
5007.468106861089,21466.420843401753
5007.494148293015,22022.190526821592
5007.520189860371,22267.74047052528
5007.546231563156,22462.55560102066
5007.572273401372,22207.729832206714
5007.598315375018,22550.64869424312
5007.624357484096,22091.01929567781
5007.650399728607,21780.55344378287
5007.676442108551,21779.103837500785
5007.702484623929,21812.22709514486
5007.728527274741,21737.248746103196
5007.754570060989,22199.120768178906
5007.780612982673,22582.393248872344
5007.806656039793,23085.165218253922
5007.832699232351,23670.983282079418
5007.858742560347,24088.085418980256
5007.884786023782,24619.035440221036
5007.910829622656,24822.789517394314
5007.936873356971,24775.86786445244
5007.962917226726,25071.564061286073
5007.988961231923,25119.979013884757
5008.015005372563,25058.223486270555
5008.041049648646,25170.48635186462
5008.067094060171,25154.16891101086
5008.0931386071425,25237.652174424442
5008.119183289558,25373.707011714076
5008.14522810742,25266.85200504836
5008.171273060728,25575.420852321306
5008.197318149483,25445.61377010535
5008.223363373687,25457.231914099644
5008.249408733339,25745.797303856056
5008.27545422844,25726.5141810798
5008.301499858992,25531.485356560617
5008.327545624995,25309.795977465245
5008.353591526448,25384.68131643439
5008.379637563355,25307.026796130576
5008.405683735714,25062.54312727348
5008.431730043527,24836.139712745444
5008.457776486794,24755.591424753282
5008.483823065515,24589.998467893205
5008.509869779693,24257.36645317899
5008.535916629327,24103.733791746145
5008.561963614418,23932.471708860172
5008.588010734968,23787.664029578133
5008.614057990975,23613.815136116686
5008.640105382442,23723.02290267986
5008.666152909369,23962.948456814454
5008.692200571756,24068.050170587827
5008.718248369605,24424.83099999882
5008.744296302916,24785.85549931758
5008.77034437169,24920.925073654897
5008.796392575927,25044.231666375053
5008.822440915628,25316.628754652855
5008.848489390794,25492.001650824626
5008.874538001426,25244.56411017038
5008.900586747524,25297.335203043553
5008.926635629089,25347.62164934625
5008.952684646122,25343.770373174055
5008.978733798623,25454.364031414734
5009.004783086593,25437.357945333057
5009.030832510033,25424.92612030273
5009.056882068944,25446.76624030755
5009.082931763326,25350.53125464636
5009.108981593179,25370.990046124512
5009.135031558506,25362.09245940581
5009.161081659306,25316.861085700726
5009.187131895579,25460.01385723488
5009.213182267327,25259.321876288097
5009.239232774552,25116.149866156273
5009.265283417251,24925.135712423107
5009.291334195428,24854.232771896226
5009.317385109083,24716.753430651454
5009.343436158216,24608.914262236183
5009.369487342828,24169.55270370366
5009.395538662919,23768.9535741125
5009.421590118491,23523.07248478113
5009.447641709544,23215.057247812038
5009.473693436078,22811.991532004227
5009.499745298095,22530.856859206768
5009.525797295596,22294.722416692424
5009.55184942858,21868.684470244374
5009.577901697049,21576.66321217725
5009.603954101003,21513.22366001406
5009.630006640443,21403.49603565361
5009.65605931537,21408.584693035173
5009.682112125784,21645.215954889834
5009.708165071686,21940.18374915278
5009.7342181530785,22248.372540512453
5009.760271369959,22411.39803207484
5009.78632472233,22438.10085459444
5009.812378210192,22390.91341289639
5009.838431833546,22011.760899482968
5009.864485592391,21476.851625596377
5009.890539486731,20651.955229946776
5009.916593516564,19859.17620842885
5009.942647681891,19276.53540139491
5009.968701982713,18226.65639997755
5009.994756419032,17356.84284293051
5010.020810990847,16632.147140302168
5010.046865698159,16188.979494437132
5010.072920540969,15846.540267513068
5010.098975519279,15671.0157481483
5010.125030633087,15540.623715697084
5010.151085882395,15680.289531366145
5010.177141267204,15814.284096710622
5010.2031967875155,16089.127720012075
5010.229252443328,16558.23147218264
5010.255308234644,17294.3811289166
5010.281364161464,18467.126710918128
5010.307420223788,19794.32381208598
5010.333476421617,21033.08874585994
5010.359532754951,22259.345706448632
5010.3855892237925,23223.46060069336
5010.4116458281405,23806.76006294504
5010.437702567997,24434.047599981182
5010.463759443362,24950.344918971234
5010.489816454236,25082.97829680392
5010.51587360062,25247.079511940497
5010.541930882514,25240.14289786274
5010.56798829992,25022.110253984658
5010.5940458528385,24802.161051509658
5010.62010354127,24513.019182038075
5010.646161365214,24222.228890661245
5010.672219324672,23641.787216850975
5010.698277419646,23181.39962636149
5010.724335650135,22520.871336764416
5010.7503940161405,21613.368060521316
5010.7764525176635,21102.712250190114
5010.802511154703,20337.731781727332
5010.828569927262,19460.84013089523
5010.85462883534,18835.502783209082
5010.880687878937,18472.411050489947
5010.906747058056,18306.42162538053
5010.932806372695,18499.584885526816
5010.958865822856,18937.921959101823
5010.98492540854,19711.52776821013
5011.0109851297475,20771.951005064428
5011.0370449864795,21756.606170668554
5011.063104978735,22791.398286877327
5011.089165106517,23757.967278264332
5011.115225369825,24231.215205691668
5011.14128576866,24550.20022145399
5011.167346303022,24899.523452622303
5011.193406972913,25068.10419185158
5011.219467778333,25210.04695358902
5011.2455287192815,25227.264813127862
5011.271589795761,25213.07801146644
5011.297651007772,25259.738847857257
5011.323712355315,25347.9696013917
5011.34977383839,25243.581069608997
5011.375835456999,25011.108172443986
5011.401897211142,25132.708896845805
5011.427959100819,25015.679140538927
5011.454021126031,24822.698337180722
5011.4800832867795,24475.946910817333
5011.506145583065,24180.726091520093
5011.532208014888,23642.70483363453
5011.558270582248,23227.549404177702
5011.584333285148,22856.620796305942
5011.610396123588,22284.79198207549
5011.636459097567,21642.65264896018
5011.662522207088,20948.4238868893
5011.68858545215,20011.11704317169
5011.714648832754,19093.816128149603
5011.740712348902,18362.921450079008
5011.766776000594,17513.899132609375
5011.79283978783,16579.62444134047
5011.818903710611,15708.752930209124
5011.844967768939,14678.114520696427
5011.871031962813,13528.510117624497
5011.897096292234,12450.45545335859
5011.923160757203,11265.527010316857
5011.949225357721,9904.179088838895
5011.975290093788,8732.821894365434
5012.001354965406,7895.84706508964
5012.027419972574,7203.851246202617
5012.053485115294,7140.479203995294
5012.079550393566,7393.519845235436
5012.105615807392,8063.348920510915
5012.13168135677,9111.228663296473
5012.157747041703,10210.456554218774
5012.183812862192,11366.318171098832
5012.209878818236,12880.465728292433
5012.235944909837,14064.180881268869
5012.262011136994,14936.403022586534
5012.28807749971,15663.768742350994
5012.3141439979845,16027.295716040844
5012.340210631818,15925.360924021108
5012.366277401212,15761.683948208909
5012.392344306166,15696.169885244053
5012.418411346682,15532.506585182324
5012.44447852276,15555.01319074125
5012.470545834401,15828.398149812734
5012.496613281605,16361.913340727211
5012.522680864374,17175.820839971384
5012.548748582707,18034.2775471276
5012.574816436606,18716.305420142588
5012.600884426071,19084.985872898822
5012.626952551104,19385.68914300288
5012.653020811705,19671.43096411338
5012.679089207873,19957.969078526407
5012.705157739611,20329.292780959528
5012.73122640692,20736.860744238405
5012.757295209798,21474.677348011155
5012.7833641482475,22240.350553863365
5012.80943322227,22847.49063748964
5012.835502431864,23532.628634556368
5012.861571777033,23922.367079201114
5012.887641257775,24256.267840287866
5012.9137108740915,24307.226127414044
5012.939780625984,24220.244481840433
5012.965850513452,24211.147546121774
5012.991920536498,23747.943683509387
5013.017990695121,23062.64801212792
5013.044060989323,22732.975745487238
5013.070131419104,22122.575534639393
5013.096201984464,21297.230087375458
5013.122272685405,20460.895083313182
5013.148343521927,19859.59050405934
5013.17441449403,18842.86431699278
5013.200485601717,17887.155927980275
5013.226556844987,17038.221736248193
5013.2526282238405,16380.320572064782
5013.278699738279,15762.82994981347
5013.304771388303,15526.079227588896
5013.330843173913,15581.661835612096
5013.35691509511,15866.731268260966
5013.382987151894,16196.234849345674
5013.409059344267,16560.84653333859
5013.435131672228,16788.232131942772
5013.46120413578,16563.600835348014
5013.487276734921,16080.01985080346
5013.513349469653,15424.393712369794
5013.539422339977,14639.992179340123
5013.565495345894,13689.303007577571
5013.5915684874035,12728.432336902379
5013.617641764507,12068.69935147119
5013.643715177206,11526.580827518586
5013.6697887254995,11363.241292634475
5013.695862409389,11617.786414628337
5013.721936228875,12354.265863455443
5013.748010183958,13409.539259514024
5013.77408427464,14733.538452052137
5013.800158500921,15970.446943574447
5013.826232862801,17109.232231609763
5013.852307360281,17739.385855881123
5013.8783819933615,18343.117110044877
5013.904456762045,18453.743013191823
5013.930531666329,18391.990686229823
5013.956606706218,17925.11064325102
5013.982681881709,17329.972772667355
5014.008757192805,16673.399759094093
5014.034832639507,15805.917459661698
5014.060908221814,14565.776797330309
5014.086983939728,13191.244022299183
5014.113059793249,12072.60677668721
5014.139135782378,10800.655064030407
5014.165211907116,10014.418525620198
5014.1912881674625,9466.856560711241
5014.21736456342,9224.448565333323
