wave,flux
4450.003811362098,28342.307842811475
4450.026953690486,28459.210095500566
4450.050096139227,28651.393825284944
4450.073238708321,28714.55679774501
4450.096381397769,28089.075130151658
4450.119524207569,27839.240436925204
4450.142667137726,27395.76915986747
4450.165810188237,26633.473787969015
4450.188953359103,25468.3221832858
4450.212096650326,24227.9802481678
4450.2352400619075,22947.148008631008
4450.258383593846,21676.30980844125
4450.281527246142,19863.333360668137
4450.304671018797,18305.128498575203
4450.327814911813,16976.88928408343
4450.350958925188,15598.361870853872
4450.374103058924,14075.452716692233
4450.3972473130225,12648.554602503658
4450.420391687483,11461.844412562077
4450.443536182305,10283.080796734941
4450.466680797492,9565.781122356213
4450.489825533042,9176.400429314766
4450.512970388957,8747.41241634137
4450.536115365237,8558.212010117872
4450.559260461882,8500.747690224833
4450.582405678895,8614.524799504135
4450.605551016274,8911.48361132526
4450.628696474022,9478.135317213068
4450.651842052138,10287.4917829036
4450.674987750623,11295.453000107178
4450.698133569476,12437.131214609784
4450.721279508702,13635.855444006222
4450.744425568297,14715.226541690754
4450.767571748264,15808.452242179477
4450.790718048604,17036.449253764637
4450.813864469315,17917.867378171202
4450.837011010401,18694.954814548695
4450.86015767186,19347.981633260337
4450.883304453694,20031.995215931744
4450.906451355903,20869.142870608874
4450.929598378489,21827.642219017405
4450.95274552145,22898.41368497934
4450.975892784789,24139.747980219738
4450.999040168505,25139.652874514497
4451.022187672601,26334.85303878958
4451.045335297074,27756.620907444434
4451.068483041929,28964.328763277947
4451.091630907163,30195.62476145617
4451.114778892777,31529.245063313778
4451.137926998774,32399.983661230974
4451.161075225153,32956.289579609875
4451.184223571914,33312.29009306729
4451.207372039059,33405.21668714178
4451.230520626587,33211.81639028487
4451.253669334501,32763.587820629837
4451.2768181628,32326.67303831763
4451.299967111485,31621.243963225093
4451.323116180556,30893.63923867432
4451.346265370014,30141.93544517147
4451.369414679861,28891.071228980218
4451.392564110095,27811.79053927522
4451.415713660719,26646.611052261866
4451.438863331732,25441.463885788147
4451.462013123136,24397.46031011622
4451.48516303493,23194.074678004963
4451.508313067117,22061.3623320799
4451.531463219695,20682.29800072738
4451.554613492666,19620.70960231431
4451.577763886031,18506.462047754812
4451.60091439979,17737.706654319987
4451.624065033943,17085.76381074284
4451.647215788492,16783.399482086763
4451.670366663436,16993.61377773795
4451.693517658777,17684.00968566849
4451.716668774516,18465.230029783746
4451.739820010652,19598.361734410548
4451.762971367186,21193.906144477955
4451.78612284412,22824.637318363708
4451.8092744414525,24458.247664200255
4451.832426159187,25768.87979513912
4451.855577997321,26669.9324232752
4451.878729955857,27397.021832581053
4451.901882034796,27624.460032941864
4451.925034234137,27721.928607532693
4451.948186553881,27496.591989504854
4451.97133899403,27175.23240725442
4451.994491554583,26886.25534602204
4452.017644235542,26464.691927867992
4452.040797036907,26125.393147600975
4452.063949958678,25867.78302080132
4452.087103000857,25815.457810129516
4452.1102561634425,26228.29595711132
4452.133409446437,26655.496681043358
4452.156562849841,27387.041242929947
4452.179716373655,28430.13448448897
4452.202870017878,29482.141162669126
4452.226023782513,30641.333611493774
4452.24917766756,31591.011475435975
4452.272331673018,32391.909603248954
4452.29548579889,32886.379186758655
4452.318640045174,33276.858967729386
4452.341794411874,33566.63116362843
4452.364948898987,33156.803318276216
4452.388103506516,33121.87366340254
4452.4112582344615,33396.72947703089
4452.434413082823,33042.05740328495
4452.457568051602,32223.867788284737
4452.480723140799,31478.2594856739
4452.503878350413,30853.10607610403
4452.527033680448,30123.571539878558
4452.550189130902,29630.88819968634
4452.5733447017765,28332.50812147867
4452.596500393071,27809.046500358123
4452.619656204789,26881.702606723095
4452.642812136928,25931.833020303206
4452.66596818949,25266.28180126772
4452.689124362475,24490.324050957835
4452.7122806558855,23792.716736744598
4452.735437069719,23432.96651147454
4452.7585936039795,23199.66113719242
4452.781750258665,23177.80844949644
4452.804907033777,23123.778168360266
4452.828063929317,23180.81283944316
4452.851220945285,23219.61820786186
4452.87437808168,23538.78158171671
4452.897535338506,24152.56503256122
4452.92069271576,24429.312570523536
4452.943850213445,24797.978462468516
4452.967007831562,25277.411897377384
4452.99016557011,25161.075012109894
4453.01332342909,24981.83212478134
4453.036481408502,24635.21249495547
4453.059639508349,24185.454725744494
4453.08279772863,23911.560196806127
4453.105956069345,23702.431345306108
4453.129114530496,23547.407270005497
4453.152273112083,23508.141341522405
4453.175431814107,23733.327678345504
4453.198590636567,24000.664538847952
4453.221749579466,24111.12765744088
4453.244908642802,24109.282742053096
4453.268067826579,23825.434931623982
4453.291227130795,23374.052255380626
4453.314386555451,22988.906125356094
4453.337546100549,22829.98682106236
4453.360705766087,22753.68083137269
4453.3838655520685,22560.919979316914
4453.407025458493,22694.53313562552
4453.430185485361,23035.58547868005
4453.453345632673,23742.247098304742
4453.476505900429,24951.359661259903
4453.4996662886315,26024.74861064353
4453.52282679728,27126.603431889183
4453.545987426375,28034.64567832952
4453.569148175917,28540.61391188592
4453.592309045907,29014.90901682718
4453.615470036346,29067.35848623823
4453.638631147233,29054.25919326886
4453.661792378571,29277.222300766865
4453.684953730359,28616.28683738724
4453.708115202598,28397.88858859795
4453.731276795288,28117.110084646414
4453.754438508431,28194.23835026074
4453.777600342027,27645.752248320066
4453.800762296077,27869.541817695717
4453.82392437058,28364.325099860544
4453.847086565538,28948.568205477095
4453.870248880952,29626.04246953557
4453.8934113168225,30170.42619896565
4453.916573873149,31131.28568607212
4453.939736549933,31795.257617098523
4453.962899347174,32170.170041438534
4453.986062264875,32466.100188563978
4454.009225303034,32887.575304861704
4454.032388461654,32452.345163303056
4454.055551740734,32371.321834250895
4454.078715140275,32232.19315218308
4454.101878660277,31482.467498987142
4454.125042300742,30563.780380862845
4454.14820606167,29692.268715564944
4454.171369943061,28447.265557023762
4454.194533944917,27289.135093307665
4454.2176980672375,26384.28396234376
4454.240862310024,25173.502610353396
4454.264026673275,23855.32351580083
4454.287191156994,22541.170824086726
4454.31035576118,21100.334947675023
4454.333520485834,19695.96939908711
4454.356685330957,18419.291167959855
4454.379850296548,17081.691144544275
4454.40301538261,15694.802861939701
4454.426180589142,14570.073122084706
4454.449345916145,13723.75816034583
4454.4725113636205,12949.899158563429
4454.495676931568,12564.56839380929
4454.5188426199875,12583.878359023645
4454.542008428882,12614.115771972518
4454.565174358249,12848.75265925728
4454.588340408092,13123.941382373028
4454.611506578411,13281.134489491586
4454.634672869205,13345.651426443952
4454.657839280476,13058.90005609618
4454.681005812225,12767.172218480715
4454.704172464451,12253.364463306407
4454.727339237156,11374.786346827164
4454.750506130341,10535.46782692787
4454.773673144005,9684.345638244147
4454.79684027815,9117.127975408224
4454.820007532776,8742.671136932779
4454.843174907884,8389.681094782653
4454.866342403473,8509.634198866363
4454.889510019546,8750.844261624674
4454.912677756102,9125.3844386037
4454.935845613144,9719.194650900283
4454.959013590669,10384.99230597755
4454.982181688681,11294.070809908744
4455.005349907178,12195.308811070774
4455.028518246162,13166.25681319067
4455.051686705633,14104.01607277878
4455.074855285593,14810.204137378176
4455.098023986041,15332.720017615764
4455.121192806979,15876.089116459249
4455.144361748406,16696.46242862569
4455.167530810323,17138.210600877435
4455.190699992732,18100.780767183463
4455.213869295633,18635.60471400439
4455.237038719026,19209.79138467053
4455.260208262912,19528.657612261683
4455.283377927292,19920.649902932175
4455.306547712166,19928.48129046826
4455.329717617535,19705.89726918183
4455.352887643399,19875.33931099736
4455.37605778976,19953.909826828432
4455.399228056617,20025.995246503982
4455.422398443972,20762.036167888855
4455.445568951825,21314.474405364275
4455.468739580177,22293.356405019582
4455.491910329028,23497.56865840308
4455.515081198378,24903.10885754265
4455.538252188229,25663.77470189907
4455.561423298582,26273.08622333423
4455.584594529436,26492.40633689863
4455.607765880793,26234.650783892128
4455.630937352652,25868.32865731626
4455.654108945016,25257.649369115457
4455.677280657883,23923.793176473857
4455.700452491255,22961.618733735293
4455.723624445134,21719.640393687023
4455.746796519518,20308.218750979835
4455.7699687144095,19135.6810058945
4455.793141029808,17951.045129772894
4455.816313465714,16827.109866961928
4455.83948602213,15846.739502969374
4455.862658699055,14831.161251860689
4455.885831496489,14070.601851545902
4455.909004414434,13614.609418505093
4455.932177452891,13537.338996816063
4455.955350611858,13590.94831621847
4455.978523891339,13884.942905594145
4456.001697291333,14671.056017004119
4456.024870811841,15817.99817171281
4456.048044452862,17168.421299873367
4456.071218214399,18724.856561923738
4456.094392096451,20295.80706780212
4456.117566099019,21803.357927445664
4456.140740222105,23154.60634687269
4456.163914465707,24217.43668483165
4456.187088829828,24844.192210692523
4456.210263314468,25100.07783547895
4456.233437919626,25159.539569684774
4456.256612645306,24929.695600050927
4456.279787491505,24323.92464051565
4456.302962458226,23490.19875324435
4456.326137545469,22462.732672222628
4456.349312753233,21299.74931457611
4456.372488081522,20415.21140984992
4456.395663530333,19695.482857517927
4456.41883909967,18815.891365694217
4456.442014789531,18014.959261659813
4456.465190599917,17771.374613666605
4456.488366530831,17854.089924064054
4456.5115425822705,18090.013049355875
4456.5347187542375,18482.478757581033
4456.557895046733,18859.69470737143
4456.581071459757,19255.22405730956
4456.604247993311,19474.36679521929
4456.627424647395,19663.926413905643
4456.650601422009,19792.059405955253
4456.673778317154,19920.154423191816
4456.696955332832,20050.495715400437
4456.720132469041,20598.4216046244
4456.7433097257845,21274.57985871517
4456.766487103061,22051.67678423585
4456.789664600872,23040.32927415922
4456.8128422192185,24316.76527203209
4456.8360199581,25543.362869713863
4456.859197817518,26802.69341393391
4456.882375797473,27791.05934332176
4456.905553897966,28407.225966022965
4456.928732118997,28500.72047051589
4456.951910460566,28487.117013288924
4456.975088922674,28765.30283653768
4456.998267505323,28305.389796007898
4457.021446208513,28111.467639335
4457.044625032244,27800.732939072055
4457.067803976516,27542.923413662822
4457.090983041332,27069.296545652436
4457.1141622266905,26588.421056012696
4457.1373415325925,26465.10783949951
4457.160520959039,26330.35894818493
4457.183700506031,26140.923554610144
4457.206880173568,26193.411730369033
4457.230059961651,26333.878422582977
4457.2532398702815,26255.172150555565
4457.27641989946,25615.815764122806
4457.299600049186,25028.950375884597
4457.322780319461,24436.74326167142
4457.345960710286,23546.96708521432
4457.36914122166,22291.803385350595
4457.392321853586,21238.15597569713
4457.415502606062,20089.0406236291
4457.43868347909,18927.764910426562
4457.461864472672,17896.703684457647
4457.485045586805,17134.998749778573
4457.508226821494,16555.057263081224
4457.5314081767365,16198.851457294366
4457.554589652534,16157.413045212457
4457.577771248887,17065.135800262233
4457.600952965797,17783.638861194744
4457.624134803263,19129.858303147004
4457.647316761288,20440.132800892712
4457.67049883987,22071.338987865267
4457.693681039011,23682.565475548643
4457.716863358712,24959.518355988057
4457.7400457989725,26323.888563429264
4457.763228359793,27121.044405708268
4457.7864110411765,27703.088421432516
4457.809593843121,28307.70483673646
4457.832776765628,28364.59171165197
4457.855959808699,27983.099421883235
4457.879142972333,27666.37704773564
4457.902326256532,27298.032651579717
4457.925509661296,26800.512210571418
4457.948693186626,25984.69309596145
4457.971876832522,25446.04921768402
4457.995060598985,24355.18045281562
4458.018244486016,23449.120777897446
4458.041428493615,22442.084019184716
4458.0646126217825,21010.51469826302
4458.08779687052,19907.894460358853
4458.110981239827,19094.482665646818
4458.134165729705,18138.309190946566
4458.157350340155,17497.31382081664
4458.180535071177,16969.17900883231
4458.203719922771,16810.65685353182
4458.226904894938,16810.12446861252
4458.2500899876795,16877.479100401695
4458.273275200995,17365.02493871175
4458.296460534886,17960.911578631738
4458.3196459893525,18495.99352719043
4458.342831564396,18986.238027128467
4458.366017260016,19565.551626568984
4458.389203076214,20468.662274031485
4458.4123890129895,20984.913744486978
4458.435575070344,21873.60050264707
4458.458761248279,22595.984846300733
4458.481947546794,23129.673753363688
4458.505133965889,23676.642973225782
4458.528320505566,23862.124061978127
4458.551507165825,23987.43686947164
4458.574693946666,23641.91095667395
4458.597880848091,23594.233911515767
4458.6210678701,24213.895193292487
4458.644255012693,24312.52816155485
4458.6674422758715,25092.18696016016
4458.690629659636,25807.255263439383
4458.713817163986,26656.507378285853
4458.737004788924,27173.36097864509
4458.76019253445,27467.80695980839
4458.783380400563,27510.18989206766
4458.8065683872655,27227.36993187596
4458.829756494558,26822.410760734496
4458.85294472244,25742.930379696794
4458.876133070914,24965.684676269764
4458.899321539979,23759.303791063037
4458.922510129635,22554.38303758659
4458.945698839884,20995.167321002955
4458.968887670727,19376.351256914524
4458.992076622164,17975.19204163954
4459.015265694195,16392.445495121323
4459.0384548868215,14874.080693851733
4459.061644200044,13376.866313096403
4459.084833633862,12065.416567929173
4459.108023188278,10773.50702440811
4459.131212863292,10015.221181710347
4459.154402658904,9141.348227339933
4459.177592575114,8862.878584586475
4459.200782611925,8775.762774411418
4459.223972769336,9297.187518658766
4459.247163047347,9894.615048210611
4459.27035344596,10621.477081339071
4459.293543965176,11501.900760563785
4459.316734604993,13129.094666425046
4459.339925365414,14227.962692047138
4459.363116246439,15516.430699722412
4459.386307248069,16888.88990288414
4459.409498370304,18314.979669326876
4459.432689613145,19583.119341105263
4459.455880976592,21035.8816688467
4459.479072460647,22065.961155129586
4459.502264065309,23464.624988465304
4459.52545579058,24858.042378212598
4459.5486476364595,25823.90316019858
4459.571839602949,26930.867421993353
4459.595031690048,27929.690662449535
4459.618223897759,28240.982468571976
4459.641416226081,28623.526468691936
4459.664608675014,28702.53249724403
4459.687801244561,28862.6308838998
4459.710993934721,28692.8647390022
4459.734186745496,27863.453097347
4459.757379676885,27355.807618551757
4459.780572728889,26952.254683994706
4459.803765901509,26691.863053897774
4459.8269591947455,26467.518584239304
4459.850152608599,26650.56916083843
4459.87334614307,26625.914346727892
4459.89653979816,27126.275173883667
4459.91973357387,27482.73492823922
4459.942927470198,27939.831609671262
4459.966121487147,27944.07619041777
4459.989315624717,28220.809066615897
4460.0125098829085,27994.039311791887
4460.035704261722,27417.83553528558
4460.058898761158,26897.09874024288
4460.082093381218,26191.641860753894
4460.105288121902,25034.154489326527
4460.12848298321,23966.927578084502
4460.151677965145,22589.75411619415
4460.1748730677045,21324.550376527124
4460.198068290891,20253.49908541019
4460.221263634704,19043.748235401705
4460.244459099145,17966.673777747845
4460.267654684215,17098.220401437142
4460.290850389914,16504.622423057604
4460.314046216243,16367.430039798648
4460.337242163202,16587.393726558937
4460.360438230791,17309.993364418882
4460.383634419013,18330.327498239443
4460.406830727867,19841.514759012905
4460.430027157354,21529.736285856045
4460.453223707474,23306.967379228336
4460.476420378228,25203.603586718753
4460.499617169617,26681.786562380883
4460.522814081641,28410.715088172892
4460.5460111143,29833.309084521577
4460.569208267598,30886.168696606455
4460.592405541532,31593.584964502148
4460.615602936104,32308.9621617388
4460.638800451314,32762.64270387488
4460.661998087163,32777.21893894543
4460.685195843652,32778.55070796169
4460.708393720782,32814.942009341314
4460.731591718552,32745.77876727655
4460.754789836965,32378.40044816786
4460.777988076019,32075.56368567199
4460.801186435716,31692.699192842672
4460.824384916057,31176.817214351264
4460.847583517042,30448.219646377827
4460.870782238671,29863.219804105527
4460.893981080947,29112.333385528018
4460.917180043868,28286.534608902763
4460.940379127435,27563.756679632424
4460.963578331651,26524.752124382205
4460.986777656513,25550.702079341616
4461.009977102025,24600.831071964458
4461.033176668186,23297.653362376783
4461.056376354995,21942.26766519935
4461.079576162457,20556.1211532294
4461.102776090568,19026.57857178097
4461.125976139332,17589.361358138493
4461.149176308748,16180.042970443428
4461.172376598816,14887.00285470448
4461.195577009538,13954.419983767224
4461.218777540915,13055.57641647764
4461.241978192946,12502.120773544242
4461.265178965633,12263.358834637887
4461.2883798589755,12082.561873010407
4461.311580872974,12151.202377715877
4461.3347820076315,12333.053993555903
4461.357983262946,12378.24082225397
4461.381184638919,12441.370764795247
4461.404386135551,12528.351957434485
4461.4275877528435,12565.155546721537
4461.4507894907965,12297.829091396314
4461.4739913494095,12096.219132571523
4461.497193328685,11798.054041624517
4461.520395428623,11309.938559947415
4461.543597649224,10879.994023958106
4461.566799990488,10544.702550827189
4461.590002452416,10313.05270856326
4461.61320503501,10074.609367051225
4461.636407738269,10011.542753312437
4461.659610562193,9833.532522292153
4461.682813506784,9676.367619884011
4461.706016572044,9618.289667106734
4461.729219757971,9459.676455362693
4461.752423064566,9461.9361506188
4461.775626491831,9734.702829586375
4461.798830039766,10166.860479276114
4461.82203370837,10879.709815921497
4461.845237497647,11746.294940486945
4461.868441407595,12634.585435156458
4461.891645438215,13501.962509787787
4461.914849589509,14172.44347077296
4461.938053861475,14869.031498282764
4461.961258254117,15351.80350065597
4461.984462767433,15450.949991017014
4462.007667401424,15431.22279687059
4462.030872156092,15369.123514887398
4462.0540770314365,15110.51342787349
4462.077282027459,15063.870498257636
4462.100487144158,15281.269009478148
4462.123692381537,15856.90966522617
4462.146897739594,16513.497236953393
4462.170103218332,17502.815252310855
4462.19330881775,18759.92594338573
4462.21651453785,19634.57902100015
4462.239720378631,20375.844063817458
4462.262926340095,20812.52139624388
4462.286132422241,21404.211790778965
4462.309338625071,21850.007706722296
4462.3325449485865,21746.4505776162
4462.355751392785,21656.421379116342
4462.3789579576705,21501.285164284847
4462.402164643242,21294.572481624236
4462.4253714495,20755.96395788965
4462.448578376446,20554.83116855407
4462.471785424079,20232.838519301444
4462.494992592401,19897.207339525103
4462.518199881412,19777.814667514605
4462.541407291114,20453.112242416217
4462.564614821506,20906.212993041834
4462.587822472589,22181.264020742554
4462.611030244365,23254.040451041146
4462.634238136832,24641.16744662513
