wave,flux
5000.025812696027,77856.37119416193
5000.051815424163,76432.63340100738
5000.0778182875265,74678.33515154943
5000.103821286119,73379.99771194716
5000.12982441994,72714.18725624817
5000.155827688991,72609.72318328272
5000.181831093272,72845.78353131388
5000.207834632784,73925.65433293582
5000.2338383075285,75338.45097522861
5000.259842117506,76223.41748312263
5000.285846062716,77202.5207835
5000.311850143161,78285.37781786393
5000.33785435884,79595.27127010445
5000.363858709754,80704.0596580169
5000.389863195905,81350.34193254338
5000.415867817292,82565.09689212604
5000.441872573917,83769.55510918408
5000.4678774657805,84629.50495831209
5000.493882492882,85109.58811646028
5000.519887655224,85562.19233641564
5000.545892952806,85486.47317403501
5000.571898385629,85736.44130775543
5000.597903953694,85904.0739708024
5000.623909657001,85187.93825078956
5000.649915495552,84755.01167233482
5000.675921469346,84100.39559004724
5000.701927578384,83026.08912819524
5000.727933822669,81306.90164523938
5000.7539402021985,78881.95756788026
5000.779946716975,76079.28540702391
5000.805953366999,73049.92170642497
5000.831960152272,70326.75401094608
5000.857967072792,67987.04834945386
5000.883974128563,66682.20902094421
5000.9099813195835,66310.792741577
5000.935988645855,66852.2903350088
5000.961996107378,67500.17634136252
5000.988003704153,68244.33118008639
5001.014011436181,68913.7288787674
5001.040019303464,69066.9085557338
5001.066027306,68478.05297238352
5001.092035443791,67357.92420901434
5001.118043716839,64983.613584009334
5001.1440521251425,61855.68865567936
5001.170060668704,58656.51604862682
5001.196069347523,55320.80354844699
5001.222078161601,52397.30505319185
5001.248087110937,50132.1386703921
5001.274096195534,49422.81899279163
5001.300105415392,49812.289973857856
5001.326114770512,51421.55419584267
5001.352124260892,53802.9556304249
5001.3781338865365,57195.699946157394
5001.4041436474445,60946.021516922345
5001.430153543616,64946.11457825874
5001.456163575053,68749.35321801205
5001.482173741756,72467.39560290807
5001.508184043724,75330.35346985399
5001.534194480961,78104.45396266959
5001.560205053464,80855.42361354818
5001.586215761236,82968.1916193521
5001.612226604278,84643.91181445673
5001.638237582589,85849.38805213838
5001.664248696171,87107.16343114873
5001.690259945024,88056.56654587336
5001.716271329149,88719.33968465416
5001.742282848547,88508.07505220613
5001.768294503218,89040.66883153407
5001.794306293164,89196.16997034906
5001.820318218383,89104.27983275377
5001.84633027888,89155.90071684575
5001.872342474651,89017.34672099135
5001.8983548056995,88546.68570772151
5001.924367272026,88263.15878822311
5001.9503798736305,87765.32357571487
5001.976392610514,86772.73724391838
5002.002405482678,85772.60000684852
5002.028418490122,84690.65801590441
5002.054431632847,83019.98399081916
5002.080444910854,80735.14002734545
5002.106458324142,78230.36111944514
5002.1324718727155,75984.18537289163
5002.158485556572,74101.50870137154
5002.184499375713,72895.30896671092
5002.210513330139,72980.69410363682
5002.236527419852,73314.7836764255
5002.262541644852,74438.1369860284
5002.288556005138,76004.03992264243
5002.314570500714,78162.52563373145
5002.340585131577,80135.32739693305
5002.36659989773,81386.60515487866
5002.392614799174,83037.76289476259
5002.418629835909,84767.02711438056
5002.444645007936,85691.59855517151
5002.4706603152545,86622.7544539074
5002.496675757866,87673.33137462636
5002.522691335772,88439.26230776604
5002.548707048972,88991.52734327523
5002.574722897468,89190.95425285124
5002.600738881259,89647.21304676612
5002.626755000347,90035.3116211009
5002.652771254732,89719.06743804163
5002.678787644415,89899.54375808504
5002.704804169397,89964.23302382987
5002.730820829678,90120.74842311662
5002.75683762526,90147.1299561421
5002.782854556142,90136.95948437994
5002.8088716223265,89890.22646223294
5002.834888823812,89923.06253597414
5002.860906160601,90218.0819510423
5002.886923632695,90180.27078592085
5002.912941240092,90036.86947520293
5002.938958982793,89952.26485158644
5002.9649768608015,90027.42120453964
5002.990994874116,89664.46711222395
5003.017013022737,89496.7810158758
5003.043031306666,88925.53616184661
5003.069049725905,88571.20839838574
5003.095068280452,88257.36685684582
5003.121086970309,87800.35804283463
5003.147105795477,87479.2249961565
5003.173124755956,87457.43031044255
5003.199143851748,87294.18566826677
5003.225163082852,87106.44016549604
5003.251182449269,87012.03076812926
5003.277201951001,86403.28960533673
5003.3032215880485,85463.64288563571
5003.32924136041,84790.3611613928
5003.35526126809,84039.23765762597
5003.381281311085,82796.8497057557
5003.407301489398,81371.26705442133
5003.433321803031,80639.28517456264
5003.459342251982,80233.10203905453
5003.4853628362525,79904.6806664603
5003.511383555844,80008.45630183995
5003.537404410757,80088.73990285244
5003.563425400991,80069.28286681612
5003.589446526548,80241.25855780607
5003.615467787429,81117.36547837865
5003.641489183634,81911.04900862531
5003.667510715163,83023.59333841332
5003.693532382018,83914.98529394259
5003.719554184199,84583.5698140755
5003.745576121707,85665.15099787997
5003.771598194542,86551.55783383762
5003.797620402706,86823.00177385008
5003.823642746199,87372.04743913445
5003.849665225021,88112.70365798274
5003.875687839174,88326.35661360445
5003.901710588658,89352.92950140453
5003.927733473473,89402.0621422277
5003.953756493622,89553.89403565058
5003.979779649103,89877.07437790268
5004.005802939919,90192.43120352743
5004.031826366068,90379.8540896611
5004.057849927553,90331.93807330268
5004.083873624375,89959.83443882193
5004.109897456533,90096.05939294411
5004.135921424028,90287.9638115836
5004.161945526862,90026.25148248575
5004.187969765035,89680.3830032183
5004.213994138547,89328.71376088579
5004.240018647399,88807.93682456976
5004.266043291592,88237.70716025589
5004.292068071127,87688.36347231672
5004.318092986004,87164.67275895546
5004.344118036223,86318.30706238082
5004.370143221788,84726.771923151
5004.396168542696,83456.37999261655
5004.422193998949,81184.3523778643
5004.448219590549,77611.57327740283
5004.474245317495,74631.0391554343
5004.500271179789,71520.27644651571
5004.52629717743,68892.22675739032
5004.5523233104195,67116.54987342103
5004.578349578759,66618.2870851995
5004.604375982449,67438.73775369853
5004.630402521489,68863.08667712587
5004.656429195881,70638.38623414922
5004.682456005625,72909.99610570734
5004.708482950721,74935.939682156
5004.734510031172,76537.45698568731
5004.760537246977,78224.98699123204
5004.7865645981365,79386.79486288429
5004.812592084652,80070.60436812394
5004.838619706525,80738.37598771442
5004.8646474637535,80518.89083749807
5004.890675356341,79147.8361831871
5004.916703384286,77837.3028510751
5004.942731547591,75698.84993885802
5004.968759846256,72257.5462143642
5004.994788280281,68388.63619534188
5005.020816849668,63978.673921888396
5005.046845554417,59781.35575140618
5005.072874394528,56435.721747826086
5005.098903370003,54241.359874981026
5005.124932480842,53540.44159123432
5005.150961727047,53926.2457278336
5005.176991108617,54999.30217305702
5005.203020625552,56684.05679208486
5005.229050277856,58504.299570631156
5005.255080065526,59905.80683540384
5005.281109988566,60615.83904814238
5005.3071400469735,60776.725974671484
5005.333170240751,60354.19858764255
5005.3592005699,58310.137085930015
5005.38523103442,55639.5099203212
5005.411261634312,53010.43027256531
5005.4372923695755,50150.23132355371
5005.463323240213,47573.32042508245
5005.489354246225,45930.06990316285
5005.515385387611,45336.097498149495
5005.541416664373,46054.77876562337
5005.567448076511,47906.8020491222
5005.593479624025,51213.88428069337
5005.619511306918,54904.26322521799
5005.645543125189,58658.51942371538
5005.671575078838,63008.34249846556
5005.697607167867,67048.83966263982
5005.723639392277,70433.22149534717
5005.749671752068,73722.3077244383
5005.77570424724,76686.55776264086
5005.8017368777955,79460.9168632492
5005.8277696437335,81644.99358580995
5005.853802545055,83426.06420344904
5005.879835581762,84602.1437430929
5005.905868753854,85938.34167284913
5005.931902061331,86964.30993121494
5005.957935504196,87528.50620772832
5005.983969082448,87864.45185574502
5006.010002796088,88479.43786819617
5006.036036645117,88711.72486765996
5006.062070629536,88663.01824355786
5006.088104749344,88527.24569356296
5006.114139004544,88323.36123567085
5006.140173395135,88466.69338129443
5006.166207921118,88506.02510673837
5006.192242582495,88095.97866860204
5006.218277379266,87715.83630473731
5006.244312311431,87584.84074235172
5006.270347378991,87469.65198506667
5006.296382581946,87099.86906508861
5006.322417920299,86627.0127056502
5006.348453394048,85963.83661926773
5006.374489003196,84675.54133668283
5006.400524747743,83304.5072261543
5006.426560627688,81925.98775224066
5006.452596643034,79307.25961556107
5006.47863279378,76204.73395116221
5006.504669079928,72577.03020877267
5006.530705501478,67995.4377744305
5006.556742058431,63720.491279432
5006.582778750788,59650.891556827955
5006.608815578549,56012.34382784766
5006.634852541715,53653.19654071515
5006.660889640287,53009.10433600207
5006.686926874265,53621.74892019985
5006.71296424365,55370.80346887451
5006.739001748444,57906.64507957544
5006.765039388645,61020.15620538213
5006.791077164256,64623.89578032117
5006.817115075277,68039.98107668624
5006.843153121708,71367.6548921698
5006.869191303552,74327.27858054003
5006.895229620806,77105.85569226272
5006.921268073474,79826.38069601971
5006.947306661555,81849.92838086016
5006.97334538505,83436.34121399526
5006.999384243961,84763.44131376012
5007.025423238286,85429.28280760034
5007.051462368028,85596.64462814265
5007.077501633187,85681.57405702128
5007.103541033764,85581.01802997754
5007.129580569759,85772.86026472092
5007.155620241173,86416.21259303868
5007.181660048007,87121.11506443037
5007.207699990262,87532.02872800159
5007.233740067937,87562.22831053437
5007.259780281035,87865.87490329013
5007.285820629555,88580.32579338632
5007.311861113499,89394.48293762068
5007.337901732866,89990.44998934718
5007.363942487658,90038.54874281696
5007.389983377876,90135.65729406982
5007.41602440352,90401.166378555
5007.442065564591,90717.72267562394
5007.468106861089,90547.72897954358
5007.494148293015,91007.73982660036
5007.520189860371,91001.23628475955
5007.546231563156,91545.35368993791
5007.572273401372,91141.67043197576
5007.598315375018,91067.51968958529
5007.624357484096,91516.80346529781
5007.650399728607,91647.18768268723
5007.676442108551,91818.4751178383
5007.702484623929,91574.15000949922
5007.728527274741,91249.04184007904
5007.754570060989,91429.3029474341
5007.780612982673,91736.57397464967
5007.806656039793,91567.7712419975
5007.832699232351,91448.48040274976
5007.858742560347,91627.80656857311
5007.884786023782,91609.22553556676
5007.910829622656,91409.44610258745
5007.936873356971,90986.77725219338
5007.962917226726,90438.97146679231
5007.988961231923,90172.78792647447
5008.015005372563,89908.60161165097
5008.041049648646,90008.12207905675
5008.067094060171,89981.46160466311
5008.0931386071425,89906.55863560268
5008.119183289558,90372.87472208768
5008.14522810742,90271.07899458917
5008.171273060728,90004.94117656084
5008.197318149483,90219.44198262664
5008.223363373687,90461.99190707327
5008.249408733339,90670.85812825787
5008.27545422844,90664.1823111203
5008.301499858992,90610.99536696944
5008.327545624995,90526.83812101341
5008.353591526448,90927.89091130615
5008.379637563355,91014.4162863907
5008.405683735714,90774.67857958334
5008.431730043527,91032.98549009208
5008.457776486794,91288.34091061709
5008.483823065515,91188.24828218823
5008.509869779693,91089.48155510655
5008.535916629327,91056.54509084696
5008.561963614418,91236.67749806156
5008.588010734968,91558.46113716444
5008.614057990975,91333.73786558429
5008.640105382442,91558.63902566
5008.666152909369,91711.88092590662
5008.692200571756,91631.38409583691
5008.718248369605,91696.50461738143
5008.744296302916,91322.38031054774
5008.77034437169,91432.97065972866
5008.796392575927,91329.92475536007
5008.822440915628,91387.59597152239
5008.848489390794,91066.0405212494
5008.874538001426,90994.02545698182
5008.900586747524,90826.97717900158
5008.926635629089,90999.23644267768
5008.952684646122,90801.36224520863
5008.978733798623,90342.59183246168
5009.004783086593,90231.6666303891
5009.030832510033,90529.46219192138
5009.056882068944,90483.06781067738
5009.082931763326,90245.62606255515
5009.108981593179,90134.22364202232
5009.135031558506,89855.20498409557
5009.161081659306,90299.65528212712
5009.187131895579,90193.6586445754
5009.213182267327,89676.05603730523
5009.239232774552,89343.74650131124
5009.265283417251,88923.44715524606
5009.291334195428,87643.45046914708
5009.317385109083,86671.80792803611
5009.343436158216,85638.6732851692
5009.369487342828,83829.99366588441
5009.395538662919,82499.49814511594
5009.421590118491,80507.360528986
5009.447641709544,78426.96352003326
5009.473693436078,75865.36922180405
5009.499745298095,73001.25090370727
5009.525797295596,70030.17882189428
5009.55184942858,67067.10207647532
5009.577901697049,65050.10693338147
5009.603954101003,64158.972111300354
5009.630006640443,64373.07641353167
5009.65605931537,65679.82508037418
5009.682112125784,67652.52481136374
5009.708165071686,69810.45351256206
5009.7342181530785,72309.3255155618
5009.760271369959,75275.36769459912
5009.78632472233,77906.73615286514
5009.812378210192,80075.1241629691
5009.838431833546,82191.04890372608
5009.864485592391,84245.48900347234
5009.890539486731,85912.4547975553
5009.916593516564,87302.08869185876
5009.942647681891,88223.84240366297
5009.968701982713,89131.85621629043
5009.994756419032,89595.57993553665
5010.020810990847,90329.85504874717
5010.046865698159,90585.30991348322
5010.072920540969,90317.97886436111
5010.098975519279,90542.68637279872
5010.125030633087,90332.15878818162
5010.151085882395,90038.84028854394
5010.177141267204,89753.00185409987
5010.2031967875155,88535.6225931637
5010.229252443328,87434.28660767352
5010.255308234644,85894.34402100572
5010.281364161464,84267.3741906492
5010.307420223788,83286.72152599081
5010.333476421617,82537.46095471573
5010.359532754951,82434.52178182773
5010.3855892237925,82996.34088442013
5010.4116458281405,83606.50574807245
5010.437702567997,84560.55145542689
5010.463759443362,85573.02756269393
5010.489816454236,86071.41946935156
5010.51587360062,86809.9199232688
5010.541930882514,87791.38233196412
5010.56798829992,88468.43775717565
5010.5940458528385,89454.56489562646
5010.62010354127,90235.73818775531
5010.646161365214,90115.16146616364
5010.672219324672,90744.15613908834
5010.698277419646,91067.69749241426
5010.724335650135,91262.22601212817
5010.7503940161405,91436.84785674287
5010.7764525176635,91409.0038064728
5010.802511154703,91478.06863072101
5010.828569927262,91079.19011998903
5010.85462883534,91510.16488339688
5010.880687878937,91776.52347721669
5010.906747058056,91479.76498891458
5010.932806372695,91102.20583472883
5010.958865822856,90920.0382723998
5010.98492540854,90771.07373508892
5011.0109851297475,90357.92910026778
5011.0370449864795,89506.85091286589
5011.063104978735,88590.00102709598
5011.089165106517,87920.52756303592
5011.115225369825,87185.8914610239
5011.14128576866,86134.58407248232
5011.167346303022,84967.29569186376
5011.193406972913,83850.65085055106
5011.219467778333,82266.53659543063
5011.2455287192815,80059.87344777262
5011.271589795761,76899.85059990034
5011.297651007772,73440.52428636246
5011.323712355315,69733.60543756922
5011.34977383839,64836.95598494248
5011.375835456999,60114.513012880314
5011.401897211142,55822.01484413489
5011.427959100819,52043.885981223546
5011.454021126031,49061.49416981148
5011.4800832867795,47805.32124229904
5011.506145583065,47866.753879074626
5011.532208014888,49194.51542635409
5011.558270582248,51339.91683393697
5011.584333285148,54187.772664941294
5011.610396123588,57873.19973308859
5011.636459097567,61497.89037096481
5011.662522207088,64597.44710942367
5011.68858545215,67355.79689874062
5011.714648832754,69128.24720223615
5011.740712348902,70260.93395897528
5011.766776000594,71167.04912223735
5011.79283978783,71607.5151305661
5011.818903710611,72068.51756929154
5011.844967768939,72898.86299268952
5011.871031962813,74354.66571721381
5011.897096292234,76054.05577738331
5011.923160757203,77294.44431314291
5011.949225357721,78650.48839862675
5011.975290093788,79448.3098010119
5012.001354965406,80077.88953320251
5012.027419972574,80616.79436271524
5012.053485115294,80703.78660041661
5012.079550393566,81562.56790817433
5012.105615807392,82185.62421660815
5012.13168135677,83073.3753205512
5012.157747041703,83988.8704890395
5012.183812862192,84839.04785170709
5012.209878818236,85447.7632282814
5012.235944909837,86261.33362271728
5012.262011136994,86786.93463964389
5012.28807749971,87554.1965911165
5012.3141439979845,88017.27004274403
5012.340210631818,88634.50484317298
5012.366277401212,88796.80252872819
5012.392344306166,89061.01060848097
5012.418411346682,89118.02467431522
5012.44447852276,89061.24647941343
5012.470545834401,88995.13009936149
5012.496613281605,88867.93545954359
5012.522680864374,88522.29988191501
5012.548748582707,87274.82007898459
5012.574816436606,85579.70698765246
5012.600884426071,83916.70820511662
5012.626952551104,81753.90637533161
5012.653020811705,79173.49572640723
5012.679089207873,77038.15821522413
5012.705157739611,75596.7813061032
5012.73122640692,74647.13308072941
5012.757295209798,74519.84716906723
5012.7833641482475,74566.96433225246
5012.80943322227,74669.76680436586
5012.835502431864,74463.90555757763
5012.861571777033,73689.43146979796
5012.887641257775,72436.33348897524
5012.9137108740915,70486.9271278268
5012.939780625984,67826.30008494353
5012.965850513452,64227.33477590152
5012.991920536498,60232.96514108299
5013.017990695121,56789.41589802558
5013.044060989323,54036.39620707139
5013.070131419104,52636.918785200694
5013.096201984464,52412.668231031705
5013.122272685405,53634.96262737061
5013.148343521927,55686.0220983198
5013.17441449403,58691.85416399331
5013.200485601717,62010.6352201954
5013.226556844987,65164.27691461032
5013.2526282238405,68058.98540157714
5013.278699738279,71130.12751977587
5013.304771388303,73782.84602355646
5013.330843173913,76013.41857673146
5013.35691509511,78053.41595356005
5013.382987151894,79673.64430720122
5013.409059344267,80572.21566015805
5013.435131672228,80740.59454597133
5013.46120413578,80443.22202694706
5013.487276734921,79173.01344473397
5013.513349469653,77135.11494224296
5013.539422339977,74730.74868737941
5013.565495345894,71693.0190130545
5013.5915684874035,69038.8611365678
5013.617641764507,66879.32490483482
5013.643715177206,65347.148497228896
5013.6697887254995,65183.101238948584
5013.695862409389,65952.22433783085
5013.721936228875,67942.3699941951
5013.748010183958,70071.27847155351
5013.77408427464,72484.15841122257
5013.800158500921,74686.99361515023
5013.826232862801,76802.89447269145
5013.852307360281,79001.40981490829
5013.8783819933615,81329.79668043852
5013.904456762045,82289.66326951713
5013.930531666329,83804.81570990296
5013.956606706218,84798.53839241003
5013.982681881709,85183.02780172451
5014.008757192805,85426.73404877662
5014.034832639507,85669.73560367014
5014.060908221814,85224.15645560458
5014.086983939728,84094.4060481643
5014.113059793249,83097.91414412539
5014.139135782378,81318.87778025892
5014.165211907116,78865.59750531444
5014.1912881674625,75857.93147229253
5014.21736456342,71681.2894857623
5014.243441094988,67273.51974640897
5014.269517762167,63470.623860469386
5014.295594564959,60036.66937308777
5014.321671503363,57487.473635973736
5014.347748577381,56634.267719489806
5014.373825787014,57447.4676857723
5014.399903132261,59460.38500233499
5014.425980613125,62166.36187364364
5014.4520582296045,65305.02526482693
5014.478135981701,68497.85521173394
5014.504213869415,71577.86166667976
