wave,flux
4450.003811362098,18170.420998325855
4450.026953690486,17259.40854274241
4450.050096139227,16947.858351737777
4450.073238708321,17954.082181348236
4450.096381397769,19671.456842341107
4450.119524207569,22079.695586966245
4450.142667137726,25473.054117722077
4450.165810188237,28203.9611570216
4450.188953359103,31444.767681018406
4450.212096650326,34171.19329346082
4450.2352400619075,36318.973195750244
4450.258383593846,38099.29609804647
4450.281527246142,39840.32733257288
4450.304671018797,41371.91040384915
4450.327814911813,42863.1590777864
4450.350958925188,44705.246409440726
4450.374103058924,46029.77025088213
4450.3972473130225,47376.72423046284
4450.420391687483,48628.719549558096
4450.443536182305,49877.2250220013
4450.466680797492,51926.361531978255
4450.489825533042,54225.495384505084
4450.512970388957,56513.41321625825
4450.536115365237,59009.322418277465
4450.559260461882,61630.223216413244
4450.582405678895,63715.96839110702
4450.605551016274,65420.430344696855
4450.628696474022,66832.53147679773
4450.651842052138,67671.42273261707
4450.674987750623,68107.46807610219
4450.698133569476,68452.96175529546
4450.721279508702,68868.31783523608
4450.744425568297,68896.39191417258
4450.767571748264,68500.59602999256
4450.790718048604,68205.6593153141
4450.813864469315,67528.0553476619
4450.837011010401,66625.08484855849
4450.86015767186,66418.07041840331
4450.883304453694,65165.83636153779
4450.906451355903,63641.592284675746
4450.929598378489,61792.16139937466
4450.95274552145,59669.51268325393
4450.975892784789,57055.40635232324
4450.999040168505,53498.970188283936
4451.022187672601,49097.47331953954
4451.045335297074,44651.30475689313
4451.068483041929,40748.883919455395
4451.091630907163,37165.360382759805
4451.114778892777,34993.93288184983
4451.137926998774,34543.83175982707
4451.161075225153,35638.6922901856
4451.184223571914,38151.97501051401
4451.207372039059,41820.04307894552
4451.230520626587,46024.28660365332
4451.253669334501,50046.57118984679
4451.2768181628,53827.545572098774
4451.299967111485,56984.66635778944
4451.323116180556,59829.168976043016
4451.346265370014,62044.744244055626
4451.369414679861,63118.77463108777
4451.392564110095,63348.79861438471
4451.415713660719,63044.946379764064
4451.438863331732,61790.65481683793
4451.462013123136,60461.59898716903
4451.48516303493,59445.39650707992
4451.508313067117,57860.599886039905
4451.531463219695,56353.44451443844
4451.554613492666,55767.53189392678
4451.577763886031,55873.3431778439
4451.60091439979,56397.82239982665
4451.624065033943,57520.80389939674
4451.647215788492,58868.094423242
4451.670366663436,60207.62118189729
4451.693517658777,62019.14789416073
4451.716668774516,63687.39261386737
4451.739820010652,65118.924320348815
4451.762971367186,66304.83088957945
4451.78612284412,67388.12264301389
4451.8092744414525,68029.83485185262
4451.832426159187,68487.2791049539
4451.855577997321,68711.7621594293
4451.878729955857,68980.49297700908
4451.901882034796,68852.81371756
4451.925034234137,69422.31377146185
4451.948186553881,69023.72363622818
4451.97133899403,68591.81357201068
4451.994491554583,67379.78590257153
4452.017644235542,66454.64766938944
4452.040797036907,65316.16055162831
4452.063949958678,63966.97505529352
4452.087103000857,62434.097496485025
4452.1102561634425,60682.616908485616
4452.133409446437,58969.84188476109
4452.156562849841,57294.828648997995
4452.179716373655,55885.78331806913
4452.202870017878,55046.3246507184
4452.226023782513,53947.02908131584
4452.24917766756,53016.481817061875
4452.272331673018,52703.57806391243
4452.29548579889,53039.55320760476
4452.318640045174,53757.595935101606
4452.341794411874,54517.9877440081
4452.364948898987,55949.19313561952
4452.388103506516,57964.691618192155
4452.4112582344615,59046.36496717198
4452.434413082823,59204.5392040876
4452.457568051602,59205.118746180066
4452.480723140799,58252.50525661999
4452.503878350413,56963.547797909385
4452.527033680448,56255.96777927146
4452.550189130902,55343.67734089661
4452.5733447017765,55063.694383483635
4452.596500393071,55675.34016198338
4452.619656204789,56700.009004948966
4452.642812136928,57586.57547553641
4452.66596818949,58399.39601663832
4452.689124362475,58989.94003066964
4452.7122806558855,58522.16036335374
4452.735437069719,57773.58532225817
4452.7585936039795,56016.363031609006
4452.781750258665,54473.386100130236
4452.804907033777,52293.41581635345
4452.828063929317,50263.64566200162
4452.851220945285,48693.16253071347
4452.87437808168,48592.13134663151
4452.897535338506,49177.69775300535
4452.92069271576,50990.415703748644
4452.943850213445,53426.58251850003
4452.967007831562,55975.81302540911
4452.99016557011,58528.50069653141
4453.01332342909,60684.45131361961
4453.036481408502,62184.78327470494
4453.059639508349,63827.2911040756
4453.08279772863,64486.36472171408
4453.105956069345,64536.32303107968
4453.129114530496,64465.7302062105
4453.152273112083,63646.913912188174
4453.175431814107,62541.81804366647
4453.198590636567,61403.259654329704
4453.221749579466,60089.02957553141
4453.244908642802,59175.15275732125
4453.268067826579,59378.38602400021
4453.291227130795,59812.80506956445
4453.314386555451,60394.39264676188
4453.337546100549,61693.21522081246
4453.360705766087,63068.264011433064
4453.3838655520685,63993.233578246356
4453.407025458493,65079.05835452431
4453.430185485361,65912.73827219174
4453.453345632673,66501.66476679977
4453.476505900429,67333.44224993416
4453.4996662886315,67777.74827899631
4453.52282679728,67867.37177313115
4453.545987426375,68092.97272413781
4453.569148175917,68038.96283120537
4453.592309045907,67709.64838512929
4453.615470036346,67683.20704869997
4453.638631147233,67238.73796612244
4453.661792378571,66354.25170838957
4453.684953730359,65571.10077170643
4453.708115202598,64513.16206312777
4453.731276795288,63015.6450392143
4453.754438508431,60651.52726152882
4453.777600342027,58127.4961231526
4453.800762296077,55118.1800840881
4453.82392437058,51002.00375797381
4453.847086565538,46271.8957498758
4453.870248880952,41936.09455953408
4453.8934113168225,37913.08442616114
4453.916573873149,34694.52900143908
4453.939736549933,33253.51471188997
4453.962899347174,32987.262766755164
4453.986062264875,34192.249186531124
4454.009225303034,36230.28124522353
4454.032388461654,38483.36110270851
4454.055551740734,40823.293771646284
4454.078715140275,42167.478870461164
4454.101878660277,41722.327177152096
4454.125042300742,41179.576864123825
4454.14820606167,39103.532724432465
4454.171369943061,36621.06273534884
4454.194533944917,32784.16663661895
4454.2176980672375,29453.075549571724
4454.240862310024,26118.37773780786
4454.264026673275,23171.73052948402
4454.287191156994,21193.75162411869
4454.31035576118,19603.242313809496
4454.333520485834,19109.479180107708
4454.356685330957,19688.413161760524
4454.379850296548,21208.505718637094
4454.40301538261,23512.02618187626
4454.426180589142,25829.047860428
4454.449345916145,28071.146867055893
4454.4725113636205,30052.076525592303
4454.495676931568,31403.325814190524
4454.5188426199875,32467.18907179302
4454.542008428882,33553.29365250384
4454.565174358249,34702.50990146813
4454.588340408092,36920.84362334129
4454.611506578411,39285.50841029629
4454.634672869205,42070.78460603548
4454.657839280476,44728.3735875635
4454.681005812225,46961.2657186771
4454.704172464451,48273.27956421787
4454.727339237156,48244.73908911932
4454.750506130341,47352.191346394364
4454.773673144005,45689.7790669618
4454.79684027815,43517.26112044056
4454.820007532776,41531.45795355878
4454.843174907884,40605.108226910896
4454.866342403473,40830.83673788517
4454.889510019546,42326.50066058512
4454.912677756102,44931.731135266295
4454.935845613144,48010.98459502305
4454.959013590669,51415.19555742443
4454.982181688681,54773.1420534612
4455.005349907178,57661.274561329235
4455.028518246162,59618.007690579376
4455.051686705633,61029.386350910936
4455.074855285593,62042.63997676469
4455.098023986041,62217.94221486495
4455.121192806979,61719.860275084546
4455.144361748406,60978.71693551149
4455.167530810323,59374.63215724603
4455.190699992732,57803.57384966859
4455.213869295633,56007.16497966497
4455.237038719026,53445.762202210964
4455.260208262912,50465.715217700796
4455.283377927292,47456.55733464461
4455.306547712166,43598.613660349234
4455.329717617535,39730.58819418208
4455.352887643399,35648.75870915443
4455.37605778976,32051.619472736948
4455.399228056617,29379.028684569224
4455.422398443972,27769.979046759014
4455.445568951825,27679.93013577992
4455.468739580177,29262.047449717567
4455.491910329028,31847.268068258072
4455.515081198378,35742.94083921761
4455.538252188229,40423.40100811576
4455.561423298582,45027.14515519002
4455.584594529436,48564.0832143821
4455.607765880793,52628.932128998524
4455.630937352652,55443.93677372647
4455.654108945016,57527.84626944887
4455.677280657883,59336.7993086308
4455.700452491255,60063.89299145907
4455.723624445134,60429.515300831175
4455.746796519518,60340.92241493829
4455.7699687144095,58982.57928806214
4455.793141029808,57124.872541356264
4455.816313465714,54532.494260616775
4455.83948602213,51606.36051660307
4455.862658699055,48785.433974735584
4455.885831496489,46927.48486947512
4455.909004414434,45493.294501466415
4455.932177452891,45395.41908984242
4455.955350611858,45787.23499340966
4455.978523891339,46701.10081886153
4456.001697291333,47834.98145115588
4456.024870811841,48731.19002912375
4456.048044452862,49203.15309340578
4456.071218214399,48490.76920883554
4456.094392096451,46958.85263437317
4456.117566099019,44870.300309903396
4456.140740222105,42591.634708005586
4456.163914465707,40795.58815753858
4456.187088829828,39783.33626241012
4456.210263314468,40579.313731039525
4456.233437919626,42321.66942436272
4456.256612645306,45103.02690453861
4456.279787491505,48625.23028214693
4456.302962458226,51925.21882520812
4456.326137545469,54689.85777406497
4456.349312753233,57471.19333649563
4456.372488081522,59541.73447557199
4456.395663530333,60652.66593542764
4456.41883909967,61418.16915900526
4456.442014789531,61686.522326462546
4456.465190599917,61700.626013895395
4456.488366530831,61170.78249386255
4456.5115425822705,60101.020475641206
4456.5347187542375,59332.96540639896
4456.557895046733,58587.38877854252
4456.581071459757,58097.05284164699
4456.604247993311,57884.45689348453
4456.627424647395,58395.70485338208
4456.650601422009,59423.478347198856
4456.673778317154,60593.10943927775
4456.696955332832,61455.64724005982
4456.720132469041,62364.511285328335
4456.7433097257845,62604.2351492793
4456.766487103061,62155.03354647284
4456.789664600872,61517.650702432125
4456.8128422192185,59990.667163339844
4456.8360199581,58056.33930842663
4456.859197817518,55191.05715032242
4456.882375797473,51377.98974902834
4456.905553897966,47350.441621035294
4456.928732118997,43105.36405945627
4456.951910460566,39342.04700812705
4456.975088922674,36966.37845630518
4456.998267505323,35555.65495959454
4457.021446208513,34601.88787759116
4457.044625032244,35031.32242061472
4457.067803976516,36470.21153929314
4457.090983041332,38692.306000496545
4457.1141622266905,41845.70255772199
4457.1373415325925,45622.51439987564
4457.160520959039,49453.60368484271
4457.183700506031,52921.67009530172
4457.206880173568,56248.40290698234
4457.230059961651,58581.96330021383
4457.2532398702815,60444.37975329633
4457.27641989946,61730.57986827606
4457.299600049186,62508.87655195564
4457.322780319461,62743.58655205688
4457.345960710286,62890.019706365165
4457.36914122166,63103.00178355161
4457.392321853586,63059.14149248492
4457.415502606062,62725.825956103916
4457.43868347909,61756.81237922361
4457.461864472672,60584.6262781885
4457.485045586805,59381.83114984485
4457.508226821494,57313.39669975121
4457.5314081767365,54496.560384119985
4457.554589652534,51565.76089036014
4457.577771248887,48562.403010541326
4457.600952965797,45749.621233257254
4457.624134803263,43541.56471539978
4457.647316761288,41837.35702288023
4457.67049883987,41253.08667328705
4457.693681039011,41191.47670359493
4457.716863358712,41192.28948857822
4457.7400457989725,41355.028088326806
4457.763228359793,41213.64354542103
4457.7864110411765,41688.26262830736
4457.809593843121,42424.6900899997
4457.832776765628,44474.666252892464
4457.855959808699,47081.05326815668
4457.879142972333,49814.04225497746
4457.902326256532,52099.28625496462
4457.925509661296,53707.50594177839
4457.948693186626,54968.986109689824
4457.971876832522,55016.05173278686
4457.995060598985,54061.78898040193
4458.018244486016,52830.289366754514
4458.041428493615,51524.618233895926
4458.0646126217825,50746.936976490695
4458.08779687052,50673.772975478554
4458.110981239827,51536.964345568595
4458.134165729705,53470.973658294984
4458.157350340155,55721.850026993394
4458.180535071177,58030.09218827651
4458.203719922771,59984.84729014285
4458.226904894938,61572.981676191535
4458.2500899876795,62908.8144740266
4458.273275200995,63681.11556399328
4458.296460534886,64132.87411550267
4458.3196459893525,64040.23639016468
4458.342831564396,63155.34508832982
4458.366017260016,61739.93434794468
4458.389203076214,59991.225230167256
4458.4123890129895,58118.85630378893
4458.435575070344,55005.63453845967
4458.458761248279,51680.95239406467
4458.481947546794,47871.54102477225
4458.505133965889,43156.19475987652
4458.528320505566,38403.971434901505
4458.551507165825,33316.133522714976
4458.574693946666,28887.688055181567
4458.597880848091,25061.56040635781
4458.6210678701,22253.997302387495
4458.644255012693,20864.381947448663
4458.6674422758715,20593.43056741372
4458.690629659636,21371.18890844894
4458.713817163986,23146.939998777438
4458.737004788924,25493.89939390387
4458.76019253445,28196.111497892754
4458.783380400563,30968.78541529239
4458.8065683872655,33456.925231053436
4458.829756494558,35266.68831873536
4458.85294472244,36886.97662097334
4458.876133070914,37819.76030156505
4458.899321539979,39624.44748934984
4458.922510129635,41690.82236876617
4458.945698839884,45040.25059545196
4458.968887670727,48433.2976049948
4458.992076622164,52002.99411997308
4459.015265694195,55211.30978547127
4459.0384548868215,58135.47560025441
4459.061644200044,60874.68723854589
4459.084833633862,62429.2362889825
4459.108023188278,63391.27063188899
4459.131212863292,64121.87424579029
4459.154402658904,64235.225114305176
4459.177592575114,63514.150374224475
4459.200782611925,62912.2748038161
4459.223972769336,61412.68413244908
4459.247163047347,60300.3463163735
4459.27035344596,59396.52367447155
4459.293543965176,58365.64915522724
4459.316734604993,58235.7804943108
4459.339925365414,58673.786065066575
4459.363116246439,60075.33428956656
4459.386307248069,61113.56624001876
4459.409498370304,62258.30212883163
4459.432689613145,63255.36910484021
4459.455880976592,63985.917349832394
4459.479072460647,64479.66954035973
4459.502264065309,64694.988738957174
4459.52545579058,64826.816180808346
4459.5486476364595,64032.20531949851
4459.571839602949,62775.64814723428
4459.595031690048,61077.66645619799
4459.618223897759,58833.093785510064
4459.641416226081,55743.039186411064
4459.664608675014,52196.58315081952
4459.687801244561,47899.5699747788
4459.710993934721,43425.085538715786
4459.734186745496,40106.361548441644
4459.757379676885,37280.96609139672
4459.780572728889,35839.25956080913
4459.803765901509,35548.766489756046
4459.8269591947455,36861.298689824675
4459.850152608599,39198.20298385183
4459.87334614307,41927.866462585065
4459.89653979816,45425.44514242599
4459.91973357387,49087.22884468255
4459.942927470198,52515.55262300031
4459.966121487147,55819.9013845797
4459.989315624717,58549.186169749526
4460.0125098829085,61126.68079790213
4460.035704261722,62946.30896193934
4460.058898761158,64613.207446807755
4460.082093381218,65836.81593589066
4460.105288121902,66358.38869542455
4460.12848298321,66979.00461509492
4460.151677965145,67722.41623836229
4460.1748730677045,68106.06004738987
4460.198068290891,67545.3636319124
4460.221263634704,67541.66658733244
4460.244459099145,67043.71736647087
4460.267654684215,66749.02428472153
4460.290850389914,66355.75018512926
4460.314046216243,65824.76457738336
4460.337242163202,65262.646747179475
4460.360438230791,65016.08867348902
4460.383634419013,64719.40013662007
4460.406830727867,64732.98211135246
4460.430027157354,64539.66519709847
4460.453223707474,63324.879871165744
4460.476420378228,62007.6223970498
4460.499617169617,60342.10448942821
4460.522814081641,58061.25903737413
4460.5460111143,55205.90726106133
4460.569208267598,51446.22619718085
4460.592405541532,47246.81960459723
4460.615602936104,42750.015504364615
4460.638800451314,39088.984113128885
4460.661998087163,35838.0450442848
4460.685195843652,33098.8215938809
4460.708393720782,31313.979875606434
4460.731591718552,30387.371595688142
4460.754789836965,29920.362757483923
4460.777988076019,30234.874780196304
4460.801186435716,31335.90004471499
4460.824384916057,32530.71264037074
4460.847583517042,32963.58424787369
4460.870782238671,33000.0040145044
4460.893981080947,32661.119769166788
4460.917180043868,31657.798975131864
4460.940379127435,30497.791722907885
4460.963578331651,29246.842334249766
4460.986777656513,28573.240253708656
4461.009977102025,28234.316005304398
4461.033176668186,28141.013869436723
4461.056376354995,28486.927735342062
4461.079576162457,28206.28662771687
4461.102776090568,27149.032569934356
4461.125976139332,25764.80530023201
4461.149176308748,24397.35217330102
4461.172376598816,22923.955477558913
4461.195577009538,22029.164596124116
4461.218777540915,22411.95478529127
4461.241978192946,23924.226552607128
4461.265178965633,26218.49798858082
4461.2883798589755,29458.193888318783
4461.311580872974,33154.67871445852
4461.3347820076315,36823.123279186395
4461.357983262946,39794.58412112292
4461.381184638919,42093.15793051727
4461.404386135551,43059.36403554527
4461.4275877528435,42994.97139516285
4461.4507894907965,41458.602898275036
4461.4739913494095,39178.815785276754
4461.497193328685,36717.111200298146
4461.520395428623,34426.14498803217
4461.543597649224,33392.32779256246
4461.566799990488,33373.554549971486
4461.590002452416,35220.235677092714
4461.61320503501,37889.711046452154
4461.636407738269,40869.03526346831
4461.659610562193,44063.62133282736
4461.682813506784,47073.933226561225
4461.706016572044,49912.18647037652
4461.729219757971,51902.79847996421
4461.752423064566,53373.953896750645
4461.775626491831,54747.3532397269
4461.798830039766,55682.8028011334
4461.82203370837,55668.65204357418
4461.845237497647,55311.58865915443
4461.868441407595,53992.55939374384
4461.891645438215,51856.499334119384
4461.914849589509,49347.61087777747
4461.938053861475,46774.29549436199
4461.961258254117,44328.25659857475
4461.984462767433,43105.787731217555
4462.007667401424,43003.44025048548
4462.030872156092,44229.93985120927
4462.0540770314365,47001.857234261755
4462.077282027459,49583.957131532334
4462.100487144158,53189.6926787811
4462.123692381537,55639.056481784624
4462.146897739594,57957.277246542246
4462.170103218332,60224.86617333359
4462.19330881775,61104.790917849095
4462.21651453785,62093.40838454999
4462.239720378631,62436.705060055916
4462.262926340095,62468.29369435998
4462.286132422241,62666.44923217781
4462.309338625071,62367.713236830954
4462.3325449485865,62131.13289049257
4462.355751392785,61727.05805420645
4462.3789579576705,60593.02342263641
4462.402164643242,59419.82097311916
4462.4253714495,57259.77670097484
4462.448578376446,54097.70383643359
4462.471785424079,51249.917078181585
4462.494992592401,48377.53272026067
4462.518199881412,46190.493323905284
4462.541407291114,45054.505153094884
4462.564614821506,45207.733623654516
4462.587822472589,46137.41662667492
4462.611030244365,48092.65741895358
4462.634238136832,50082.737977499106
4462.657446149992,52209.669847048186
4462.680654283847,54359.57923612984
4462.703862538396,56427.36591033231
4462.727070913639,57942.33424514559
4462.750279409578,59135.43032813421
