wave,flux
4450.003811362098,2483.0052799513082
4450.026953690486,2476.8545555097235
4450.050096139227,2485.1972323314594
4450.073238708321,2388.463993793564
4450.096381397769,2284.3478930378856
4450.119524207569,2216.3782622251542
4450.142667137726,2104.391079212559
4450.165810188237,2003.4159771588102
4450.188953359103,1827.3735046511242
4450.212096650326,1636.23921967805
4450.2352400619075,1530.1162678276055
4450.258383593846,1352.9153723612833
4450.281527246142,1171.2385831607871
4450.304671018797,1038.2005062444175
4450.327814911813,939.0684786234491
4450.350958925188,798.5106972525164
4450.374103058924,722.3394542989486
4450.3972473130225,643.2945713659469
4450.420391687483,619.8199217531354
4450.443536182305,604.1290522290843
4450.466680797492,573.738540065535
4450.489825533042,608.4652737706839
4450.512970388957,686.7325377636095
4450.536115365237,757.2101667458011
4450.559260461882,837.329945162101
4450.582405678895,933.9412648989685
4450.605551016274,1023.3551066612725
4450.628696474022,1127.9689154662724
4450.651842052138,1219.02099635622
4450.674987750623,1292.9682954879975
4450.698133569476,1360.5636867801454
4450.721279508702,1378.4348707818904
4450.744425568297,1380.5351067578345
4450.767571748264,1394.4448987010662
4450.790718048604,1456.6637308963568
4450.813864469315,1547.5520956533526
4450.837011010401,1642.0186660586305
4450.86015767186,1758.8508875698212
4450.883304453694,1830.156713141214
4450.906451355903,1907.8412432413882
4450.929598378489,1990.6667275579441
4450.95274552145,2142.912933662456
4450.975892784789,2378.8175504929336
4450.999040168505,2394.4992346372437
4451.022187672601,2653.0818245712126
4451.045335297074,2707.7273009724636
4451.068483041929,2804.1833264513984
4451.091630907163,2890.447864919972
4451.114778892777,2840.074074457071
4451.137926998774,2920.3643692836667
4451.161075225153,2920.4117808061083
4451.184223571914,2927.3898694957934
4451.207372039059,2884.1435672689586
4451.230520626587,2782.829582889468
4451.253669334501,2742.6511614929996
4451.2768181628,2702.453036070663
4451.299967111485,2546.205193965134
4451.323116180556,2398.8182411931816
4451.346265370014,2349.4901922823406
4451.369414679861,2185.0091671281352
4451.392564110095,2064.8619836349785
4451.415713660719,1927.604766486705
4451.438863331732,1791.4345394850527
4451.462013123136,1630.1676127549588
4451.48516303493,1467.9826826278565
4451.508313067117,1387.2213997840718
4451.531463219695,1257.3116300168715
4451.554613492666,1168.3805894437896
4451.577763886031,1169.9602246084216
4451.60091439979,1234.43173909795
4451.624065033943,1351.5693699039464
4451.647215788492,1518.094005592137
4451.670366663436,1725.1959455587648
4451.693517658777,1832.2686805448066
4451.716668774516,2005.8648945175808
4451.739820010652,2166.023447306348
4451.762971367186,2321.7556116971195
4451.78612284412,2374.6580089536906
4451.8092744414525,2347.3809869513407
4451.832426159187,2312.763430526493
4451.855577997321,2299.597830636795
4451.878729955857,2240.324308985521
4451.901882034796,2090.0633174690493
4451.925034234137,2034.8788631254413
4451.948186553881,1957.700755622873
4451.97133899403,1914.4275145393633
4451.994491554583,1850.322169409427
4452.017644235542,1908.092775789048
4452.040797036907,2024.8181439748591
4452.063949958678,2091.142412697904
4452.087103000857,2235.4585795174953
4452.1102561634425,2388.0109543835515
4452.133409446437,2429.321788386456
4452.156562849841,2644.168202289631
4452.179716373655,2650.914205307719
4452.202870017878,2689.4610444080713
4452.226023782513,2876.356256811065
4452.24917766756,2913.037300595481
4452.272331673018,2876.1029314468587
4452.29548579889,2883.033013536988
4452.318640045174,2865.5590445055896
4452.341794411874,2812.812620140303
4452.364948898987,2800.1533959074554
4452.388103506516,2821.6860591764375
4452.4112582344615,2700.7411994017707
4452.434413082823,2643.042333238143
4452.457568051602,2614.9189971777487
4452.480723140799,2469.174509943336
4452.503878350413,2363.366060979129
4452.527033680448,2271.6538548562007
4452.550189130902,2156.02571946691
4452.5733447017765,2026.1878617140528
4452.596500393071,1957.7226350230994
4452.619656204789,1882.0288321970472
4452.642812136928,1792.3554336762147
4452.66596818949,1729.6497994841961
4452.689124362475,1769.8612869801673
4452.7122806558855,1744.353227059691
4452.735437069719,1728.7582011519246
4452.7585936039795,1789.1346385794568
4452.781750258665,1873.2500986830403
4452.804907033777,1882.9578822500596
4452.828063929317,1993.0446302639327
4452.851220945285,2028.4725651580213
4452.87437808168,2094.9873054894897
4452.897535338506,1971.8069632555976
4452.92069271576,2046.9131782068441
4452.943850213445,1966.3437474554294
4452.967007831562,2031.3413618908428
4452.99016557011,1941.1951089577765
4453.01332342909,1853.052423855491
4453.036481408502,1894.4342859920084
4453.059639508349,1957.8527596685594
4453.08279772863,1985.2809256647472
4453.105956069345,1985.4569784298528
4453.129114530496,1980.0946614907932
4453.152273112083,1970.816106246565
4453.175431814107,1922.3601961534537
4453.198590636567,1897.444502317115
4453.221749579466,1757.506008697422
4453.244908642802,1700.6515821442824
4453.268067826579,1694.5857252095464
4453.291227130795,1646.5685523179707
4453.314386555451,1645.120918358881
4453.337546100549,1731.9745580094745
4453.360705766087,1777.8791796405712
4453.3838655520685,1911.5939943355588
4453.407025458493,2118.076772200878
4453.430185485361,2197.0352274891534
4453.453345632673,2320.3735916625114
4453.476505900429,2471.600056496227
4453.4996662886315,2525.308859850624
4453.52282679728,2442.074703075974
4453.545987426375,2394.247559970374
4453.569148175917,2429.334937443436
4453.592309045907,2376.425945991526
4453.615470036346,2257.1246746627485
4453.638631147233,2199.034045881029
4453.661792378571,2159.4433050769317
4453.684953730359,2124.368145913337
4453.708115202598,2169.320443264941
4453.731276795288,2210.4319565689866
4453.754438508431,2256.130580527294
4453.777600342027,2324.8298108282847
4453.800762296077,2457.4234774674424
4453.82392437058,2573.739384393282
4453.847086565538,2677.8686873328343
4453.870248880952,2746.7438513794086
4453.8934113168225,2764.065384001103
4453.916573873149,2813.586880432554
4453.939736549933,2845.37997402616
4453.962899347174,2875.740603538798
4453.986062264875,2840.5149752321468
4454.009225303034,2818.9418154057444
4454.032388461654,2832.712613720468
4454.055551740734,2744.9258103220527
4454.078715140275,2659.7735082962854
4454.101878660277,2535.28525438499
4454.125042300742,2365.2892150449384
4454.14820606167,2289.339307471437
4454.171369943061,2146.1512454638273
4454.194533944917,2013.8873287328088
4454.2176980672375,1882.4608401872622
4454.240862310024,1638.6884215127338
4454.264026673275,1554.0599395264467
4454.287191156994,1388.6392825881028
4454.31035576118,1272.234752594205
4454.333520485834,1188.7231444973297
4454.356685330957,1032.6880418927262
4454.379850296548,1002.4608578243505
4454.40301538261,1000.6360614230874
4454.426180589142,996.0064972098584
4454.449345916145,1035.990937251085
4454.4725113636205,1120.9729469296374
4454.495676931568,1144.5198715647257
4454.5188426199875,1178.668274462957
4454.542008428882,1240.840773871063
4454.565174358249,1169.0883684324249
4454.588340408092,1114.7095523730034
4454.611506578411,1011.7184780355934
4454.634672869205,919.721142650981
4454.657839280476,844.0672833594954
4454.681005812225,755.3445009975633
4454.704172464451,636.7258000830868
4454.727339237156,600.8639404448146
4454.750506130341,596.3736901063397
4454.773673144005,576.612609581181
4454.79684027815,608.5199682159531
4454.820007532776,668.5634951961414
4454.843174907884,705.9156197271706
4454.866342403473,766.1873962832615
4454.889510019546,841.401218336328
4454.912677756102,973.2602949294019
4454.935845613144,1043.6227942844296
4454.959013590669,1087.8190752985417
4454.982181688681,1144.4344999448824
4455.005349907178,1233.2881591478008
4455.028518246162,1243.2319315768784
4455.051686705633,1283.7082499487044
4455.074855285593,1399.4203314608067
4455.098023986041,1455.061582555878
4455.121192806979,1508.7680146013317
4455.144361748406,1522.6936905021303
4455.167530810323,1575.5768814459454
4455.190699992732,1598.6470852646291
4455.213869295633,1546.4622633694619
4455.237038719026,1485.646946675523
4455.260208262912,1467.1838943196615
4455.283377927292,1446.8532417862646
4455.306547712166,1426.5985361370492
4455.329717617535,1527.8630836327611
4455.352887643399,1578.6696607726742
4455.37605778976,1736.8841541906816
4455.399228056617,1926.3160772672989
4455.422398443972,2096.4730891305894
4455.445568951825,2211.4570852037928
4455.468739580177,2280.123798147604
4455.491910329028,2362.1493309804678
4455.515081198378,2365.5249905910377
4455.538252188229,2313.0581848260845
4455.561423298582,2239.480645647116
4455.584594529436,2287.885870684782
4455.607765880793,2098.7953821569445
4455.630937352652,1922.6283466457946
4455.654108945016,1760.7420528560083
4455.677280657883,1624.9129963551832
4455.700452491255,1555.7023855025327
4455.723624445134,1425.111400476786
4455.746796519518,1222.174203595179
4455.7699687144095,1147.954322100258
4455.793141029808,1056.2957537798206
4455.816313465714,980.2355309144739
4455.83948602213,884.0024767382399
4455.862658699055,876.4554566819247
4455.885831496489,942.363098179608
4455.909004414434,1003.679636076012
4455.932177452891,1175.6296572441322
4455.955350611858,1314.875945166369
4455.978523891339,1430.6588601086128
4456.001697291333,1688.6538296847277
4456.024870811841,1890.5290621902752
4456.048044452862,1936.5396809411568
4456.071218214399,2128.881227223677
4456.094392096451,2146.053390748955
4456.117566099019,2236.3374609429925
4456.140740222105,2225.3002509238695
4456.163914465707,2170.16340002791
4456.187088829828,2075.371325577397
4456.210263314468,2020.068285102555
4456.233437919626,1876.5484667273295
4456.256612645306,1785.1666663979945
4456.279787491505,1685.3404625571127
4456.302962458226,1534.0179362571423
4456.326137545469,1486.0391735002324
4456.349312753233,1347.8088729490523
4456.372488081522,1344.8478983146883
4456.395663530333,1390.962439058006
4456.41883909967,1407.038739811981
4456.442014789531,1424.50204801631
4456.465190599917,1479.8145733496792
4456.488366530831,1494.2700791229317
4456.5115425822705,1511.8149808197995
4456.5347187542375,1557.3247870147638
4456.557895046733,1513.381949115236
4456.581071459757,1512.3050689492181
4456.604247993311,1482.1563032039812
4456.627424647395,1573.489949742749
4456.650601422009,1558.1583925502746
4456.673778317154,1642.0144532221182
4456.696955332832,1721.2474573122145
4456.720132469041,1988.412268948096
4456.7433097257845,2134.0755950018565
4456.766487103061,2284.5264798456974
4456.789664600872,2381.160261883912
4456.8128422192185,2422.112777097739
4456.8360199581,2392.22385019125
4456.859197817518,2391.5797851128
4456.882375797473,2342.7009008786085
4456.905553897966,2335.952888466345
4456.928732118997,2340.602681143832
4456.951910460566,2271.9639720123446
4456.975088922674,2231.266364767403
4456.998267505323,2171.1391173092347
4457.021446208513,2151.4462633463254
4457.044625032244,2147.5039818180376
4457.067803976516,2118.0079866350648
4457.090983041332,2162.3114585559856
4457.1141622266905,2227.200899462253
4457.1373415325925,2240.3243274217452
4457.160520959039,2289.3029701852556
4457.183700506031,2295.315562378622
4457.206880173568,2272.0061002791895
4457.230059961651,2154.848698794262
4457.2532398702815,2035.1108058329157
4457.27641989946,1978.3870030359426
4457.299600049186,1863.3447723662882
4457.322780319461,1693.7748247561153
4457.345960710286,1530.8091432982935
4457.36914122166,1410.6987174481208
4457.392321853586,1307.7903670766275
4457.415502606062,1180.8949575707022
4457.43868347909,1107.6127944247598
4457.461864472672,1098.6668712264786
4457.485045586805,1155.718927650325
4457.508226821494,1207.0927540479693
4457.5314081767365,1329.891673995744
4457.554589652534,1451.0541643563997
4457.577771248887,1684.586789402798
4457.600952965797,1855.4687002115436
4457.624134803263,1979.0785635748211
4457.647316761288,2126.422728902925
4457.67049883987,2235.6246547709657
4457.693681039011,2328.059026874289
4457.716863358712,2413.063183425585
4457.7400457989725,2423.0843492689373
4457.763228359793,2431.558961300969
4457.7864110411765,2464.9717481116645
4457.809593843121,2408.7642877959233
4457.832776765628,2294.3478861993926
4457.855959808699,2249.3971269079875
4457.879142972333,2204.477121898021
4457.902326256532,2144.3254128755707
4457.925509661296,2004.9869908369014
4457.948693186626,1883.5153514896226
4457.971876832522,1821.1697416467064
4457.995060598985,1711.018003600051
4458.018244486016,1548.8409478533904
4458.041428493615,1412.624639097829
4458.0646126217825,1339.200493303041
4458.08779687052,1266.284576981972
4458.110981239827,1224.0991734017116
4458.134165729705,1209.575018288723
4458.157350340155,1260.799117570294
4458.180535071177,1301.6583753330383
4458.203719922771,1358.8630317564705
4458.226904894938,1436.3048811338056
4458.2500899876795,1483.0837702934245
4458.273275200995,1553.8553111498445
4458.296460534886,1600.944463323422
4458.3196459893525,1642.1520721956686
4458.342831564396,1710.5561491363894
4458.366017260016,1804.0911089803583
4458.389203076214,1856.7098702801711
4458.4123890129895,1886.9647530019822
4458.435575070344,1889.6327838019274
4458.458761248279,1828.7971806038136
4458.481947546794,1773.6228216707639
4458.505133965889,1761.6112899054922
4458.528320505566,1805.63065761637
4458.551507165825,1842.8135674562861
4458.574693946666,1925.3032616139878
4458.597880848091,2097.7247645063458
4458.6210678701,2235.087205554386
4458.644255012693,2365.459021392566
4458.6674422758715,2455.3466212242743
4458.690629659636,2509.4480448692557
4458.713817163986,2556.3818671460126
4458.737004788924,2501.156876340601
4458.76019253445,2421.0801755884504
4458.783380400563,2312.413240134279
4458.8065683872655,2225.688633611669
4458.829756494558,2095.889162132761
4458.85294472244,1902.8122626070149
4458.876133070914,1787.5014776288588
4458.899321539979,1628.3225445686037
4458.922510129635,1427.1109824223654
4458.945698839884,1274.3023832627503
4458.968887670727,1106.5530051094267
4458.992076622164,965.7374884615572
4459.015265694195,867.248907432033
4459.0384548868215,727.9737415407905
4459.061644200044,634.2765992206596
4459.084833633862,594.6976623285022
4459.108023188278,591.3645645322363
4459.131212863292,620.9284998634565
4459.154402658904,682.8378266494366
4459.177592575114,777.9646161756941
4459.200782611925,846.9483484650542
4459.223972769336,938.6557060678117
4459.247163047347,1045.3576380938096
4459.27035344596,1172.487456371769
4459.293543965176,1269.098368985719
4459.316734604993,1317.6214532561542
4459.339925365414,1443.4344889924578
4459.363116246439,1609.969288267406
4459.386307248069,1681.959129349195
4459.409498370304,1791.9386133064884
4459.432689613145,1988.1403113435626
4459.455880976592,2168.3300413499014
4459.479072460647,2323.118904066871
4459.502264065309,2416.326778884764
4459.52545579058,2459.1792826501837
4459.5486476364595,2472.8837413078522
4459.571839602949,2409.2764476407615
4459.595031690048,2408.2198704722805
4459.618223897759,2351.072922126907
4459.641416226081,2277.42841947497
4459.664608675014,2190.393196187888
4459.687801244561,2083.9394527826908
4459.710993934721,2076.0111547047172
4459.734186745496,2024.2700274554802
4459.757379676885,2032.9040468944002
4459.780572728889,2091.2840743414768
4459.803765901509,2112.313509466789
4459.8269591947455,2263.4692682183863
4459.850152608599,2346.3138258899085
4459.87334614307,2414.301109984888
4459.89653979816,2492.7703833752557
4459.91973357387,2527.8497095716666
4459.942927470198,2443.393711712257
4459.966121487147,2386.122358147802
4459.989315624717,2396.8698278590787
4460.0125098829085,2276.8751284839855
4460.035704261722,2163.413850578673
4460.058898761158,2006.852515514484
4460.082093381218,1794.4114284940476
4460.105288121902,1631.1928301580126
4460.12848298321,1551.153560850146
4460.151677965145,1386.4001912976655
4460.1748730677045,1206.1764753592824
4460.198068290891,1145.4941042594621
4460.221263634704,1135.565313566759
4460.244459099145,1073.5732565180535
4460.267654684215,1123.6720563400047
4460.290850389914,1239.8493168038933
4460.314046216243,1354.158553382335
4460.337242163202,1535.2861177660704
4460.360438230791,1734.7600448922037
4460.383634419013,1922.3907350132554
4460.406830727867,2102.6962904869
4460.430027157354,2308.818712637557
4460.453223707474,2412.277618253424
4460.476420378228,2618.203951747409
4460.499617169617,2621.6368142417705
4460.522814081641,2697.3561418218
4460.5460111143,2789.9314949741984
4460.569208267598,2820.5969987077233
4460.592405541532,2791.726622589486
4460.615602936104,2817.7830597676075
4460.638800451314,2782.578690509972
4460.661998087163,2882.6711722453797
4460.685195843652,2770.713178148716
4460.708393720782,2745.95801412736
4460.731591718552,2684.9195030153314
4460.754789836965,2664.344160261357
4460.777988076019,2543.728300178938
4460.801186435716,2604.851287934323
4460.824384916057,2592.127555622018
4460.847583517042,2471.220940745209
4460.870782238671,2387.8228400114394
4460.893981080947,2314.333558579819
4460.917180043868,2215.6874293514984
4460.940379127435,2105.446576020623
4460.963578331651,1910.8390034176005
4460.986777656513,1813.6491581819034
4461.009977102025,1656.5676678036589
4461.033176668186,1556.9382347500793
4461.056376354995,1355.922214850931
4461.079576162457,1115.940669902191
4461.102776090568,1091.8804731605842
4461.125976139332,956.4096241324752
4461.149176308748,919.8838049554596
4461.172376598816,895.3842022431943
4461.195577009538,865.1895114039894
4461.218777540915,952.5394733691833
4461.241978192946,1017.7705488917464
4461.265178965633,1018.3061385073759
4461.2883798589755,1041.345989194494
4461.311580872974,1103.514772267137
4461.3347820076315,1052.2913538500147
4461.357983262946,1090.3465881282664
4461.381184638919,961.8990870923658
4461.404386135551,1006.1921868224464
4461.4275877528435,889.4504716085611
4461.4507894907965,887.4516857838687
4461.4739913494095,852.6070869150382
4461.497193328685,779.0720677708568
4461.520395428623,711.1122252708549
4461.543597649224,704.0731624938129
4461.566799990488,689.9236233393792
4461.590002452416,671.179772589257
4461.61320503501,618.8186540046164
4461.636407738269,599.1049124012625
4461.659610562193,619.9636698167927
4461.682813506784,670.5631232013428
4461.706016572044,774.157401574092
4461.729219757971,938.563811087526
4461.752423064566,997.1931076262605
4461.775626491831,1050.1724691547315
4461.798830039766,1169.5957191068126
4461.82203370837,1221.3414323714037
4461.845237497647,1274.3643321557774
4461.868441407595,1321.8276658392529
4461.891645438215,1285.841528228034
4461.914849589509,1218.0365081048496
4461.938053861475,1148.2588275930138
4461.961258254117,1112.8202225338966
4461.984462767433,1100.4987992940214
4462.007667401424,1070.8323779247037
4462.030872156092,1126.0820678985383
4462.0540770314365,1200.6780787085968
4462.077282027459,1332.0294162167802
4462.100487144158,1479.8687273728317
4462.123692381537,1597.1388545915738
4462.146897739594,1726.0504411622526
4462.170103218332,1747.394675017498
4462.19330881775,1774.527886176729
4462.21651453785,1851.598298812383
4462.239720378631,1794.1495426008744
4462.262926340095,1786.7762452349707
4462.286132422241,1778.9284278265093
4462.309338625071,1660.7650408510676
4462.3325449485865,1618.4191959793131
4462.355751392785,1544.0419852067394
4462.3789579576705,1484.2815108924954
4462.402164643242,1441.9925583142272
4462.4253714495,1420.6401454120787
4462.448578376446,1419.6965535563297
4462.471785424079,1571.7059776698763
4462.494992592401,1753.756546885289
4462.518199881412,1828.9446023727417
4462.541407291114,2061.9029334652587
4462.564614821506,2117.0002063961574
4462.587822472589,2226.134922882472
4462.611030244365,2364.83809881218
4462.634238136832,2422.621685045402
4462.657446149992,2420.172559302581
