wave,flux
5000.025812696027,21032.553559518066
5000.051815424163,20610.334065606537
5000.0778182875265,20173.349354673643
5000.103821286119,19761.39036602081
5000.12982441994,19269.114217151062
5000.155827688991,18589.496185277378
5000.181831093272,17873.2844224281
5000.207834632784,17193.146309554868
5000.2338383075285,16513.030503297938
5000.259842117506,15924.005901032568
5000.285846062716,15115.022823384195
5000.311850143161,14623.102765680447
5000.33785435884,14053.768008659808
5000.363858709754,13606.518048845615
5000.389863195905,13285.681122194854
5000.415867817292,13185.277110238003
5000.441872573917,13124.23247217621
5000.4678774657805,13318.594929979325
5000.493882492882,13802.397933337877
5000.519887655224,14473.492488030703
5000.545892952806,15053.448142387528
5000.571898385629,15599.533397407842
5000.597903953694,16196.97228152365
5000.623909657001,16610.673315530006
5000.649915495552,16921.006652237367
5000.675921469346,17136.301251103618
5000.701927578384,17048.762482945014
5000.727933822669,16824.807236781624
5000.7539402021985,16381.453405149676
5000.779946716975,16472.91750102368
5000.805953366999,15997.49409751916
5000.831960152272,15768.882062167784
5000.857967072792,15635.726952137478
5000.883974128563,15690.018062232528
5000.9099813195835,16013.61606290779
5000.935988645855,16344.194707066192
5000.961996107378,16710.689552257023
5000.988003704153,17152.718493937955
5001.014011436181,17346.180374382653
5001.040019303464,17440.211805353843
5001.066027306,17788.633473368005
5001.092035443791,18000.639187955712
5001.118043716839,18364.342177664814
5001.1440521251425,18558.871925098236
5001.170060668704,18948.6616234454
5001.196069347523,19328.06603996703
5001.222078161601,19584.70478112152
5001.248087110937,19535.651759511697
5001.274096195534,19515.64386159012
5001.300105415392,19507.924115004538
5001.326114770512,19268.67726336379
5001.352124260892,19046.84777020625
5001.3781338865365,19033.003126368636
5001.4041436474445,18930.642839965003
5001.430153543616,18619.408148256625
5001.456163575053,18378.331803320612
5001.482173741756,18185.391227962868
5001.508184043724,17692.796524814676
5001.534194480961,17197.871045001506
5001.560205053464,16678.906457548856
5001.586215761236,16316.737860491776
5001.612226604278,15760.383436447877
5001.638237582589,15539.21617159077
5001.664248696171,15242.102151792165
5001.690259945024,14932.039633262426
5001.716271329149,14487.818112627217
5001.742282848547,13915.372862849697
5001.768294503218,13230.651430018028
5001.794306293164,12504.493997329104
5001.820318218383,11944.833010914137
5001.84633027888,11411.194638152247
5001.872342474651,10778.089880688045
5001.8983548056995,10413.68962595477
5001.924367272026,10292.248507289218
5001.9503798736305,10333.107517649067
5001.976392610514,10535.360924880702
5002.002405482678,11276.268979407954
5002.028418490122,12268.796312383603
5002.054431632847,13437.261095017016
5002.080444910854,14840.495008979256
5002.106458324142,16138.983886401465
5002.1324718727155,17387.06944792533
5002.158485556572,18574.30164941683
5002.184499375713,19425.010616446314
5002.210513330139,19899.109373978783
5002.236527419852,20338.609481929376
5002.262541644852,20779.72611009877
5002.288556005138,21014.23748620851
5002.314570500714,21091.54433103654
5002.340585131577,21080.36059273366
5002.36659989773,21212.066592210012
5002.392614799174,20956.66546308887
5002.418629835909,20549.85146146824
5002.444645007936,20535.757795825946
5002.4706603152545,20176.77172638224
5002.496675757866,19593.057016005016
5002.522691335772,19260.026381048414
5002.548707048972,19016.057153737227
5002.574722897468,18473.778307932418
5002.600738881259,17967.44626286947
5002.626755000347,17328.84851352668
5002.652771254732,16627.647437325013
5002.678787644415,16155.805309882475
5002.704804169397,15731.924632634571
5002.730820829678,15298.969240066981
5002.75683762526,14860.237693859737
5002.782854556142,14445.518829962375
5002.8088716223265,14138.018250630064
5002.834888823812,13894.143286770863
5002.860906160601,13943.05525571185
5002.886923632695,13974.443063750512
5002.912941240092,14308.531197117014
5002.938958982793,14956.383567995246
5002.9649768608015,15881.532487739994
5002.990994874116,16900.357358128538
5003.017013022737,17900.753156267958
5003.043031306666,19005.70301075037
5003.069049725905,19887.419090597887
5003.095068280452,20414.64634812813
5003.121086970309,20989.464042678057
5003.147105795477,21424.192094128925
5003.173124755956,21498.01928765002
5003.199143851748,21574.842988057662
5003.225163082852,21464.21657922821
5003.251182449269,21505.11846765694
5003.277201951001,21645.715770013656
5003.3032215880485,21488.93668364454
5003.32924136041,21533.060846813838
5003.35526126809,21638.49305887585
5003.381281311085,21516.014056194133
5003.407301489398,21480.627834686195
5003.433321803031,21053.89041601188
5003.459342251982,20993.400871522084
5003.4853628362525,20928.07802153449
5003.511383555844,20697.28881091997
5003.537404410757,20574.565804631242
5003.563425400991,20344.454566132903
5003.589446526548,20141.117066566898
5003.615467787429,20011.357713747715
5003.641489183634,19625.52443730972
5003.667510715163,19386.74623995117
5003.693532382018,19131.805566538176
5003.719554184199,18629.00476286382
5003.745576121707,18386.778144792243
5003.771598194542,18050.532909164154
5003.797620402706,17648.687687043886
5003.823642746199,17387.447755606354
5003.849665225021,17133.93218880881
5003.875687839174,16994.062898572305
5003.901710588658,16982.46288061779
5003.927733473473,17017.20519236343
5003.953756493622,17281.968710099645
5003.979779649103,17440.09736278058
5004.005802939919,17437.129726805608
5004.031826366068,17398.014548180778
5004.057849927553,17173.403804892936
5004.083873624375,16985.05780772161
5004.109897456533,16903.567352107682
5004.135921424028,16725.749532525417
5004.161945526862,16884.350826323956
5004.187969765035,17194.905835618232
5004.213994138547,17543.183539394395
5004.240018647399,17906.34800503592
5004.266043291592,18429.881597306292
5004.292068071127,18923.28774242067
5004.318092986004,19281.016247731524
5004.344118036223,19562.782539815336
5004.370143221788,19771.752294258662
5004.396168542696,19896.10705050738
5004.422193998949,19950.510204581857
5004.448219590549,20034.03868625599
5004.474245317495,20242.999121146146
5004.500271179789,20445.191120210933
5004.52629717743,20614.655467417368
5004.5523233104195,20812.25923614085
5004.578349578759,20965.315340272355
5004.604375982449,21180.69682384328
5004.630402521489,21442.758772718822
5004.656429195881,21635.81755717653
5004.682456005625,21466.758605814794
5004.708482950721,21452.096443701077
5004.734510031172,21532.227364883005
5004.760537246977,21188.40835537959
5004.7865645981365,21005.308258590656
5004.812592084652,20745.521000935707
5004.838619706525,20517.630761871536
5004.8646474637535,20246.32583043286
5004.890675356341,19830.028748635745
5004.916703384286,19380.64406764302
5004.942731547591,18829.122173778393
5004.968759846256,18300.39471239839
5004.994788280281,17751.09033638914
5005.020816849668,17285.120010120423
5005.046845554417,16927.81832786429
5005.072874394528,16343.245280535484
5005.098903370003,15959.438664154139
5005.124932480842,15491.616055839884
5005.150961727047,15169.451571867843
5005.176991108617,14790.428510781876
5005.203020625552,14463.891785068501
5005.229050277856,14441.93587252807
5005.255080065526,14036.02623215956
5005.281109988566,14267.550838122386
5005.3071400469735,14480.256045795426
5005.333170240751,15024.276650166516
5005.3592005699,15696.327254576909
5005.38523103442,16357.893115279252
5005.411261634312,16798.61150424875
5005.4372923695755,16970.88677833574
5005.463323240213,16939.851620379683
5005.489354246225,16715.148243266587
5005.515385387611,16266.249138040544
5005.541416664373,15642.128064321125
5005.567448076511,14947.337872201482
5005.593479624025,14252.826412899316
5005.619511306918,13703.607699828379
5005.645543125189,12841.925885388095
5005.671575078838,11975.916020520122
5005.697607167867,11366.687497705374
5005.723639392277,10803.030879054264
5005.749671752068,10144.907569370827
5005.77570424724,9492.093500462297
5005.8017368777955,9197.11609677204
5005.8277696437335,9131.797497396661
5005.853802545055,9216.970722061054
5005.879835581762,9416.481645995349
5005.905868753854,9761.027492619934
5005.931902061331,10086.162030685471
5005.957935504196,10312.500068139792
5005.983969082448,10544.415037216944
5006.010002796088,10554.59826319567
5006.036036645117,10322.999125726608
5006.062070629536,9997.361862816259
5006.088104749344,9538.357195766066
5006.114139004544,9212.969597320132
5006.140173395135,8765.213296164431
5006.166207921118,8677.277999942597
5006.192242582495,8636.21552842159
5006.218277379266,9028.88134553154
5006.244312311431,9666.92934289539
5006.270347378991,10386.43157119886
5006.296382581946,11505.552442272012
5006.322417920299,12902.343617852122
5006.348453394048,14154.810478444017
5006.374489003196,15661.861726188701
5006.400524747743,17070.280209340366
5006.426560627688,18116.380411900867
5006.452596643034,19043.22591647581
5006.47863279378,19735.656367302567
5006.504669079928,20152.832372507677
5006.530705501478,20547.5518482915
5006.556742058431,20786.07760912907
5006.582778750788,20848.116537139762
5006.608815578549,20949.48562383333
5006.634852541715,20979.39837578937
5006.660889640287,21040.355820598954
5006.686926874265,20908.6543321382
5006.71296424365,20824.694762952917
5006.739001748444,20528.672218047694
5006.765039388645,20673.567324348754
5006.791077164256,20513.543942172295
5006.817115075277,20388.720627920917
5006.843153121708,20435.16686978013
5006.869191303552,20109.90441001924
5006.895229620806,19748.242079691816
5006.921268073474,19305.145591642788
5006.947306661555,18820.893151907127
5006.97334538505,18195.841798857702
5006.999384243961,17434.243765192798
5007.025423238286,16750.072031413623
5007.051462368028,16006.333895146476
5007.077501633187,15178.24786116229
5007.103541033764,14411.722981927709
5007.129580569759,13613.8001366878
5007.155620241173,12752.900198979682
5007.181660048007,11945.042382064787
5007.207699990262,11257.851012616045
5007.233740067937,10326.8291234076
5007.259780281035,9872.283179955715
5007.285820629555,9613.897233921545
5007.311861113499,9461.92579079019
5007.337901732866,9621.0634290033
5007.363942487658,10130.269751195694
5007.389983377876,11032.455173675618
5007.41602440352,11925.257632385685
5007.442065564591,13212.825372030047
5007.468106861089,14444.558754645686
5007.494148293015,15726.825586018535
5007.520189860371,16884.01772052859
5007.546231563156,17822.122965185157
5007.572273401372,18699.729845314232
5007.598315375018,19380.853294402572
5007.624357484096,19741.132622262798
5007.650399728607,19901.11647232722
5007.676442108551,20038.461336949706
5007.702484623929,20099.1623075087
5007.728527274741,20019.88040954697
5007.754570060989,20049.101289068036
5007.780612982673,19990.63959953191
5007.806656039793,19991.99277700488
5007.832699232351,20078.407417741088
5007.858742560347,20070.29260801697
5007.884786023782,20589.77068788184
5007.910829622656,20877.606056163193
5007.936873356971,21245.24871259624
5007.962917226726,21424.294733682353
5007.988961231923,21720.382561254355
5008.015005372563,22037.56858265175
5008.041049648646,22178.214282797737
5008.067094060171,22302.42669525053
5008.0931386071425,22446.205681093357
5008.119183289558,22575.65304648279
5008.14522810742,22449.273017764826
5008.171273060728,22293.475570485
5008.197318149483,22328.959458212546
5008.223363373687,22422.599717677047
5008.249408733339,22529.081340084063
5008.27545422844,22580.15657126583
5008.301499858992,22571.474139010432
5008.327545624995,22553.03634730707
5008.353591526448,22510.981232423906
5008.379637563355,22583.11143825172
5008.405683735714,22665.31685909952
5008.431730043527,22393.90514324798
5008.457776486794,22385.922757312495
5008.483823065515,22212.907052188533
5008.509869779693,22041.74365220179
5008.535916629327,21861.45544869437
5008.561963614418,21844.539183818917
5008.588010734968,21727.76647586477
5008.614057990975,21600.92720974168
5008.640105382442,21605.51676131019
5008.666152909369,21632.70305938873
5008.692200571756,21548.67431434459
5008.718248369605,21432.340568494605
5008.744296302916,21372.96496114698
5008.77034437169,21468.949603265595
5008.796392575927,21605.512331602295
5008.822440915628,21781.347431075472
5008.848489390794,21982.533454902954
5008.874538001426,22157.791790961634
5008.900586747524,22336.783729532493
5008.926635629089,22354.07069517834
5008.952684646122,22378.867203370402
5008.978733798623,22394.44620768781
5009.004783086593,22584.629238896396
5009.030832510033,22476.427300308504
5009.056882068944,22263.783402210094
5009.082931763326,22449.41922713983
5009.108981593179,22461.142432883098
5009.135031558506,22395.35463756999
5009.161081659306,22444.661121533278
5009.187131895579,22312.599908488926
5009.213182267327,22521.251028769795
5009.239232774552,22579.043484733804
5009.265283417251,22378.000773707605
5009.291334195428,22302.153086589675
5009.317385109083,22234.88893359422
5009.343436158216,22041.176970130316
5009.369487342828,21911.322971714686
5009.395538662919,21915.485077012367
5009.421590118491,21823.505927418453
5009.447641709544,21582.870624932453
5009.473693436078,21365.192122339253
5009.499745298095,21171.48363907621
5009.525797295596,20997.708242293014
5009.55184942858,20808.654311412578
5009.577901697049,20522.662924249817
5009.603954101003,20384.34155176592
5009.630006640443,20211.372927273074
5009.65605931537,19946.229748294343
5009.682112125784,19910.35207696403
5009.708165071686,19914.02672746412
5009.7342181530785,19669.141665059196
5009.760271369959,19611.623165909503
5009.78632472233,19505.04241112754
5009.812378210192,19349.72238494519
5009.838431833546,19425.56828540822
5009.864485592391,19414.386731197646
5009.890539486731,19476.689741720802
5009.916593516564,19173.77752271897
5009.942647681891,18700.838484093707
5009.968701982713,18284.567433929533
5009.994756419032,17824.926013870754
5010.020810990847,17271.830840799794
5010.046865698159,16669.150560263766
5010.072920540969,16092.173228090172
5010.098975519279,15570.181413896713
5010.125030633087,15131.392002312374
5010.151085882395,14800.679368919296
5010.177141267204,14629.217662167806
5010.2031967875155,14626.820605246057
5010.229252443328,14653.576438538452
5010.255308234644,14749.476246302827
5010.281364161464,14927.030852576236
5010.307420223788,15186.06237882769
5010.333476421617,15645.70607096011
5010.359532754951,16363.995622052518
5010.3855892237925,17143.107359149235
5010.4116458281405,18151.24032652356
5010.437702567997,18875.628416540232
5010.463759443362,19937.225820943568
5010.489816454236,20385.202323995713
5010.51587360062,21036.53484088426
5010.541930882514,21490.093558337536
5010.56798829992,21767.921120286937
5010.5940458528385,21771.09586684753
5010.62010354127,21838.2351842776
5010.646161365214,21829.093429040604
5010.672219324672,21565.08735602951
5010.698277419646,21411.72876933056
5010.724335650135,21146.138740096903
5010.7503940161405,20742.848962161934
5010.7764525176635,20460.691447627512
5010.802511154703,20011.76201473504
5010.828569927262,19461.396051637592
5010.85462883534,19019.133354134956
5010.880687878937,18638.96994897275
5010.906747058056,18373.858877976836
5010.932806372695,18028.774126352117
5010.958865822856,17739.9291542344
5010.98492540854,17485.703496563532
5011.0109851297475,17468.031627767046
5011.0370449864795,17576.30904436493
5011.063104978735,17955.83144259585
5011.089165106517,18326.797928588312
5011.115225369825,18925.02957143908
5011.14128576866,19699.872355511852
5011.167346303022,20657.767718286876
5011.193406972913,21026.905879928614
5011.219467778333,21362.608358259346
5011.2455287192815,21748.044098485752
5011.271589795761,22193.265977617277
5011.297651007772,22338.73557117106
5011.323712355315,22346.86477957987
5011.34977383839,22436.180845397128
5011.375835456999,22347.337330094368
5011.401897211142,22306.334650413424
5011.427959100819,22210.722479598044
5011.454021126031,22141.709314516254
5011.4800832867795,21957.211008592727
5011.506145583065,21743.64737822987
5011.532208014888,21674.434205144455
5011.558270582248,21491.59538923135
5011.584333285148,21332.18653272692
5011.610396123588,21052.997291388445
5011.636459097567,20558.667451867732
5011.662522207088,20206.788779278297
5011.68858545215,19720.934561456525
5011.714648832754,19314.88654419505
5011.740712348902,18572.44739441267
5011.766776000594,17852.89281886504
5011.79283978783,17071.8540452851
5011.818903710611,16239.975258189785
5011.844967768939,15543.965023791685
5011.871031962813,14579.598993109208
5011.897096292234,13869.19122418859
5011.923160757203,13256.914276340898
5011.949225357721,12483.898303475027
5011.975290093788,11811.513167859166
5012.001354965406,10955.140378274777
5012.027419972574,10331.945458039922
5012.053485115294,9454.152213641006
5012.079550393566,8733.832071121993
5012.105615807392,8121.6915205087835
5012.13168135677,7755.793625859433
5012.157747041703,7598.283502263595
5012.183812862192,7690.072371651118
5012.209878818236,8109.880032585409
5012.235944909837,8729.807958815943
5012.262011136994,9515.77839749514
5012.28807749971,10414.065342813617
5012.3141439979845,11428.366371854007
5012.340210631818,12356.453092749549
5012.366277401212,13113.50374060368
5012.392344306166,13811.767886873595
5012.418411346682,14244.202489915946
5012.44447852276,14594.308643280117
5012.470545834401,14857.325999826819
5012.496613281605,14698.126986706673
5012.522680864374,14586.495893208405
5012.548748582707,14652.617404541743
5012.574816436606,14816.909238033279
5012.600884426071,15211.304249627623
5012.626952551104,15811.496756419494
5012.653020811705,16390.892309204806
5012.679089207873,17158.42346118212
5012.705157739611,17659.12386174037
5012.73122640692,17932.083298381855
5012.757295209798,18267.725231528344
5012.7833641482475,18416.781528712778
5012.80943322227,18622.533865656653
5012.835502431864,19035.515262731224
5012.861571777033,19536.322425551123
5012.887641257775,20042.409078783876
5012.9137108740915,20320.63859229502
5012.939780625984,20717.203375768502
5012.965850513452,20929.676634567673
5012.991920536498,20957.306847815606
5013.017990695121,20871.795268779188
5013.044060989323,20770.598972077976
5013.070131419104,20700.557372030802
5013.096201984464,20430.76295622532
5013.122272685405,19939.33493655735
5013.148343521927,19471.790139571425
5013.17441449403,18950.027740739835
5013.200485601717,18544.748912454965
5013.226556844987,18050.58492393733
5013.2526282238405,17357.611860596662
5013.278699738279,16848.917025681545
5013.304771388303,16166.790439272283
5013.330843173913,15564.567903695226
5013.35691509511,14979.241267436799
5013.382987151894,14556.962726936259
5013.409059344267,14190.353010884099
5013.435131672228,13887.109816169057
5013.46120413578,13766.31546251798
5013.487276734921,13750.517397512975
5013.513349469653,13899.45884536782
5013.539422339977,13932.042854247233
5013.565495345894,13903.889206882286
5013.5915684874035,13601.169673055334
5013.617641764507,13164.751975150073
5013.643715177206,12773.894950805045
5013.6697887254995,12384.291567907565
5013.695862409389,11995.458653237383
5013.721936228875,11587.772267805758
5013.748010183958,11154.109873813231
5013.77408427464,11024.512426035028
5013.800158500921,11162.28311436415
5013.826232862801,11583.315185676649
5013.852307360281,12172.39994671161
5013.8783819933615,12994.171398690605
5013.904456762045,13895.51479973462
5013.930531666329,14630.407483562709
5013.956606706218,15094.529687249855
5013.982681881709,15553.719287078056
5014.008757192805,15673.456792417754
5014.034832639507,15503.634906630965
5014.060908221814,15103.375555271816
5014.086983939728,14712.586016149857
5014.113059793249,14298.393516672011
5014.139135782378,13627.778433922109
5014.165211907116,13014.375019940058
5014.1912881674625,12303.61184612951
