wave,flux
4450.003811362098,16197.832296596609
4450.026953690486,16381.202370755378
4450.050096139227,16278.288509654518
4450.073238708321,16395.681630298248
4450.096381397769,16208.760271212303
4450.119524207569,15876.65792293453
4450.142667137726,15650.663991324462
4450.165810188237,15136.844459388136
4450.188953359103,14426.094763083373
4450.212096650326,13508.66454244961
4450.2352400619075,12635.929383645787
4450.258383593846,11986.408359568306
4450.281527246142,11313.416107135938
4450.304671018797,10358.804380246744
4450.327814911813,9250.551604518267
4450.350958925188,8228.594882167812
4450.374103058924,7340.686674192167
4450.3972473130225,6541.720875020077
4450.420391687483,5884.592289073185
4450.443536182305,5360.127875177024
4450.466680797492,4938.981480389173
4450.489825533042,4761.311213121832
4450.512970388957,4598.622471694997
4450.536115365237,4541.86139811385
4450.559260461882,4683.801765183251
4450.582405678895,4817.923259698482
4450.605551016274,5013.113526138096
4450.628696474022,5625.464699571948
4450.651842052138,6155.114831531517
4450.674987750623,6824.034343561815
4450.698133569476,7687.439483239695
4450.721279508702,8481.736061853762
4450.744425568297,8965.21948295102
4450.767571748264,9440.223577293455
4450.790718048604,9960.88053670495
4450.813864469315,10236.274862502898
4450.837011010401,10422.460902302311
4450.86015767186,10790.216863014373
4450.883304453694,11136.990177005513
4450.906451355903,11772.871602760593
4450.929598378489,12465.055357569787
4450.95274552145,13068.221978820748
4450.975892784789,13815.535570097856
4450.999040168505,14349.344675045468
4451.022187672601,15066.73232486136
4451.045335297074,15941.570253819444
4451.068483041929,16862.276339430733
4451.091630907163,17707.145524498355
4451.114778892777,18351.33044969565
4451.137926998774,18792.228210832098
4451.161075225153,19043.189677640443
4451.184223571914,19288.97331528907
4451.207372039059,19265.19630203432
4451.230520626587,19156.80349171284
4451.253669334501,19108.27076899644
4451.2768181628,18695.543789588126
4451.299967111485,18367.8837625997
4451.323116180556,17715.74915466968
4451.346265370014,17102.634581936014
4451.369414679861,16528.302021394164
4451.392564110095,15816.169682336094
4451.415713660719,15201.711611957116
4451.438863331732,14286.91831122777
4451.462013123136,13580.67408251532
4451.48516303493,12632.885178304132
4451.508313067117,12037.777519985906
4451.531463219695,11365.098914752129
4451.554613492666,10637.975681263246
4451.577763886031,9976.751669727835
4451.60091439979,9447.097880505025
4451.624065033943,9282.169708305208
4451.647215788492,9187.391226396947
4451.670366663436,9296.65799444587
4451.693517658777,9892.284843601448
4451.716668774516,10530.880405688982
4451.739820010652,11618.552567097118
4451.762971367186,12601.88607182454
4451.78612284412,13543.221122826113
4451.8092744414525,14416.308363122092
4451.832426159187,15075.685840062293
4451.855577997321,15454.688989104405
4451.878729955857,15877.103561603826
4451.901882034796,15833.114542047475
4451.925034234137,15602.996213090186
4451.948186553881,15389.56678782695
4451.97133899403,15164.391331196286
4451.994491554583,14840.530309952796
4452.017644235542,14387.385063226582
4452.040797036907,14116.216324523346
4452.063949958678,14044.678010905282
4452.087103000857,14085.099129881632
4452.1102561634425,14387.10052697904
4452.133409446437,15067.483290260105
4452.156562849841,15701.1043455844
4452.179716373655,16307.614574558202
4452.202870017878,17185.171590943697
4452.226023782513,17733.91605885221
4452.24917766756,18347.009795315527
4452.272331673018,18841.539995655687
4452.29548579889,19161.0118205152
4452.318640045174,19371.533095464732
4452.341794411874,19230.232495010547
4452.364948898987,19229.854000236723
4452.388103506516,19137.173772416307
4452.4112582344615,18957.89195378497
4452.434413082823,18702.917346626324
4452.457568051602,18598.35650807336
4452.480723140799,17903.398539140395
4452.503878350413,17436.049540640743
4452.527033680448,16963.437196788862
4452.550189130902,16419.881784092893
4452.5733447017765,15802.51238397009
4452.596500393071,15356.782650026249
4452.619656204789,14635.63911289424
4452.642812136928,14263.564084389702
4452.66596818949,13791.861804135388
4452.689124362475,13466.152925010832
4452.7122806558855,13151.462753391124
4452.735437069719,12903.945711157607
4452.7585936039795,12633.73865976563
4452.781750258665,12695.981300058056
4452.804907033777,12729.430490419029
4452.828063929317,12765.354555190992
4452.851220945285,12872.145064014045
4452.87437808168,13024.393142651728
4452.897535338506,13441.332492526508
4452.92069271576,13836.759710860395
4452.943850213445,14032.330926140377
4452.967007831562,14014.943360582307
4452.99016557011,14112.197617453558
4453.01332342909,14012.657610935079
4453.036481408502,13655.523274219531
4453.059639508349,13385.681219361679
4453.08279772863,13147.233261196814
4453.105956069345,13031.04765745437
4453.129114530496,12978.054676389089
4453.152273112083,13038.618151565608
4453.175431814107,13269.979987592493
4453.198590636567,13443.730377601032
4453.221749579466,13396.310434567591
4453.244908642802,13311.042955773215
4453.268067826579,13213.079570057851
4453.291227130795,13017.243902094564
4453.314386555451,12698.80059658004
4453.337546100549,12520.920347053796
4453.360705766087,12468.237402165241
4453.3838655520685,12383.460428992028
4453.407025458493,12506.561724011894
4453.430185485361,12949.598498473455
4453.453345632673,13503.831014408855
4453.476505900429,14292.09484496684
4453.4996662886315,15030.751138654243
4453.52282679728,15569.527218567811
4453.545987426375,16080.68640192908
4453.569148175917,16484.26820249597
4453.592309045907,16802.029803259735
4453.615470036346,16521.75340909739
4453.638631147233,16376.594190453456
4453.661792378571,16217.63405791006
4453.684953730359,16065.552252976633
4453.708115202598,15968.174677774006
4453.731276795288,16006.793874067109
4453.754438508431,15455.03659995516
4453.777600342027,15431.641670919826
4453.800762296077,15746.983064526969
4453.82392437058,15816.704892793956
4453.847086565538,16289.693140861378
4453.870248880952,16881.543889222863
4453.8934113168225,17477.507138125016
4453.916573873149,17995.45679280879
4453.939736549933,18296.311886658226
4453.962899347174,18711.174460027793
4453.986062264875,18848.27085404086
4454.009225303034,18857.079715995507
4454.032388461654,18928.898125051055
4454.055551740734,18806.390321539388
4454.078715140275,18408.779262722175
4454.101878660277,17986.35807437948
4454.125042300742,17563.328874894705
4454.14820606167,17075.68113748024
4454.171369943061,16381.287536852355
4454.194533944917,15634.311643825878
4454.2176980672375,14859.307666515882
4454.240862310024,14096.245433264792
4454.264026673275,13329.644611813246
4454.287191156994,12450.608151532475
4454.31035576118,11537.05797729989
4454.333520485834,10632.293070365735
4454.356685330957,9830.165157423515
4454.379850296548,9084.283042003137
4454.40301538261,8321.235984039677
4454.426180589142,7725.017375741084
4454.449345916145,7381.870235144615
4454.4725113636205,7114.277126359355
4454.495676931568,6930.207767829289
4454.5188426199875,6907.178197342431
4454.542008428882,7182.049392373539
4454.565174358249,7505.461271337765
4454.588340408092,7632.613408669473
4454.611506578411,7673.211941855208
4454.634672869205,7751.528338806732
4454.657839280476,7574.409118355408
4454.681005812225,7139.3719656959065
4454.704172464451,6679.245980831212
4454.727339237156,6104.847424083793
4454.750506130341,5522.472311769173
4454.773673144005,5143.93279676756
4454.79684027815,4759.382233320141
4454.820007532776,4528.997955852412
4454.843174907884,4569.076017251503
4454.866342403473,4485.6556251861375
4454.889510019546,4702.862059941962
4454.912677756102,5067.7043441011965
4454.935845613144,5479.918049879202
4454.959013590669,6111.583664914292
4454.982181688681,6628.596671117274
4455.005349907178,7158.1986627137585
4455.028518246162,7713.769879426513
4455.051686705633,8159.239367002904
4455.074855285593,8679.490015207473
4455.098023986041,8766.090495383403
4455.121192806979,9114.020850522025
4455.144361748406,9447.665267448681
4455.167530810323,9599.380133265975
4455.190699992732,10126.455174509345
4455.213869295633,10655.272567958606
4455.237038719026,10913.56232095885
4455.260208262912,11181.740535837203
4455.283377927292,11072.711447874775
4455.306547712166,11047.656073106615
4455.329717617535,11064.085382288295
4455.352887643399,10986.24971187442
4455.37605778976,10843.72673115604
4455.399228056617,11059.140607194517
4455.422398443972,11513.619331554773
4455.445568951825,12244.368460039756
4455.468739580177,12965.811771957196
4455.491910329028,13630.473597738335
4455.515081198378,14305.328540389582
4455.538252188229,14938.084816718037
4455.561423298582,15392.59752356697
4455.584594529436,15478.092361939793
4455.607765880793,15171.442110880507
4455.630937352652,14732.19385871501
4455.654108945016,14133.53049346218
4455.677280657883,13655.399776627077
4455.700452491255,12840.165912896275
4455.723624445134,12041.991379110012
4455.746796519518,11172.621992132737
4455.7699687144095,10360.912855892744
4455.793141029808,9657.430701494788
4455.816313465714,9091.05899613917
4455.83948602213,8524.056416221549
4455.862658699055,7977.32980708232
4455.885831496489,7612.9441800747745
4455.909004414434,7363.187090841916
4455.932177452891,7316.655589590029
4455.955350611858,7347.9861361774565
4455.978523891339,7695.014889036243
4456.001697291333,8362.124191520958
4456.024870811841,9271.970525671088
4456.048044452862,10293.207958733286
4456.071218214399,11265.099935368367
4456.094392096451,12155.963421082215
4456.117566099019,12971.18399538495
4456.140740222105,13830.46216755817
4456.163914465707,14398.518610144327
4456.187088829828,14519.583460859661
4456.210263314468,14318.714450349002
4456.233437919626,14280.462352405766
4456.256612645306,14023.32205540596
4456.279787491505,13523.437868636374
4456.302962458226,12994.882930340904
4456.326137545469,12368.88013380494
4456.349312753233,11698.60297966382
4456.372488081522,10968.598360711649
4456.395663530333,10476.721060480852
4456.41883909967,10030.348810442514
4456.442014789531,9605.512361872128
4456.465190599917,9587.357781754306
4456.488366530831,9674.04929694663
4456.5115425822705,9828.786845642382
4456.5347187542375,10157.906494521445
4456.557895046733,10528.386163970532
4456.581071459757,10776.286584642929
4456.604247993311,11008.29618127222
4456.627424647395,11117.737938947039
4456.650601422009,11086.568057009044
4456.673778317154,11080.353474121403
4456.696955332832,11075.675187813968
4456.720132469041,11453.32082595731
4456.7433097257845,12019.37828384874
4456.766487103061,12712.490739188013
4456.789664600872,13401.57124507602
4456.8128422192185,14274.65604153034
4456.8360199581,15085.07500088565
4456.859197817518,15599.902324367054
4456.882375797473,16062.73437676757
4456.905553897966,16396.9965969643
4456.928732118997,16365.947562470781
4456.951910460566,16297.77996923252
4456.975088922674,16332.176447980648
4456.998267505323,15966.360513010259
4457.021446208513,15755.666339219053
4457.044625032244,15528.943174698423
4457.067803976516,15286.725116449834
4457.090983041332,15187.480657210932
4457.1141622266905,15036.311809801366
4457.1373415325925,14662.369802643048
4457.160520959039,14785.506045107291
4457.183700506031,14840.221281152899
4457.206880173568,14988.883513024255
4457.230059961651,14935.15898897093
4457.2532398702815,14861.249722910632
4457.27641989946,14498.76606676767
4457.299600049186,14253.897368829985
4457.322780319461,13577.455402496733
4457.345960710286,12951.42745284322
4457.36914122166,12359.728975842172
4457.392321853586,11589.557080291734
4457.415502606062,10930.266569971654
4457.43868347909,10103.51237211852
4457.461864472672,9553.011231158865
4457.485045586805,9165.636584309445
4457.508226821494,8701.593780390722
4457.5314081767365,8615.901800531354
4457.554589652534,8909.584504393317
4457.577771248887,9336.32993375748
4457.600952965797,9956.759540285684
4457.624134803263,10786.170938364272
4457.647316761288,11845.881541355171
4457.67049883987,12466.260582873136
4457.693681039011,13564.417592118038
4457.716863358712,14709.536034556815
4457.7400457989725,15284.681364465507
4457.763228359793,15778.653553285372
4457.7864110411765,16137.92500995717
4457.809593843121,16149.320608948434
4457.832776765628,16228.462690862189
4457.855959808699,15903.004892190278
4457.879142972333,15766.275310488678
4457.902326256532,15422.425958321517
4457.925509661296,14935.934439571236
4457.948693186626,14602.10565550557
4457.971876832522,14075.494482297003
4457.995060598985,13551.086019677708
4458.018244486016,12933.206972789902
4458.041428493615,12174.117400882495
4458.0646126217825,11477.897877799123
4458.08779687052,10886.850329129284
4458.110981239827,10332.991658845714
4458.134165729705,9882.36447716863
4458.157350340155,9406.177552572899
4458.180535071177,9080.191185896187
4458.203719922771,9015.53431844774
4458.226904894938,9113.873219907178
4458.2500899876795,9516.1893314249
4458.273275200995,9705.21095211256
4458.296460534886,10124.629822709658
4458.3196459893525,10177.471835800294
4458.342831564396,10541.247186397435
4458.366017260016,10877.024338608117
4458.389203076214,11335.876152097668
4458.4123890129895,11844.950115839381
4458.435575070344,12433.181390413785
4458.458761248279,12904.96983178986
4458.481947546794,13195.1840178485
4458.505133965889,13173.131377202912
4458.528320505566,13202.067455891893
4458.551507165825,13185.01604574419
4458.574693946666,13195.452016402598
4458.597880848091,13079.080475552159
4458.6210678701,13470.905664312162
4458.644255012693,13728.329108865344
4458.6674422758715,14297.634534551737
4458.690629659636,14962.429185931458
4458.713817163986,15440.33537916528
4458.737004788924,15945.717935095096
4458.76019253445,16069.715701647627
4458.783380400563,16268.364904285523
4458.8065683872655,15869.662465160009
4458.829756494558,15412.52140733129
4458.85294472244,14832.0644042962
4458.876133070914,14109.76865237455
4458.899321539979,13345.130457448375
4458.922510129635,12639.21752727867
4458.945698839884,11770.932923577366
4458.968887670727,10639.555003819185
4458.992076622164,9830.01854300806
4459.015265694195,8881.523802341519
4459.0384548868215,7839.404763375756
4459.061644200044,7005.009977555202
4459.084833633862,6233.512847336906
4459.108023188278,5598.360884800859
4459.131212863292,5057.43508161357
4459.154402658904,4707.363877293865
4459.177592575114,4543.355084180049
4459.200782611925,4796.874925138986
4459.223972769336,4982.708667007061
4459.247163047347,5486.005774438537
4459.27035344596,6094.048961329363
4459.293543965176,6698.10131785729
4459.316734604993,7454.4434424299625
4459.339925365414,8289.981383551936
4459.363116246439,9087.44307629717
4459.386307248069,9746.842744229989
4459.409498370304,10736.018600351787
4459.432689613145,11338.016592905627
4459.455880976592,12121.123907383477
4459.479072460647,12826.281895950455
4459.502264065309,13478.779842680906
4459.52545579058,14408.106240360637
4459.5486476364595,15127.351070252671
4459.571839602949,15797.539071815503
4459.595031690048,16088.232093865907
4459.618223897759,16319.45094805112
4459.641416226081,16192.06239455808
4459.664608675014,16295.389672369942
4459.687801244561,15935.443166535995
4459.710993934721,15835.988039433681
4459.734186745496,15305.180336013887
4459.757379676885,15047.669275786162
4459.780572728889,14920.569575475081
4459.803765901509,14626.873833883894
4459.8269591947455,14489.297094001327
4459.850152608599,14752.124555396782
4459.87334614307,14819.11288530549
4459.89653979816,15081.234732631588
4459.91973357387,15652.529453385387
4459.942927470198,16098.49586017683
4459.966121487147,16274.694189637923
4459.989315624717,16270.032808690996
4460.0125098829085,16013.042372966112
4460.035704261722,15643.89718538711
4460.058898761158,15194.3246633549
4460.082093381218,14693.746520513343
4460.105288121902,14010.789087914156
4460.12848298321,13186.690831695767
4460.151677965145,12435.55256130569
4460.1748730677045,11703.532942156107
4460.198068290891,10860.126575344235
4460.221263634704,10154.021777757976
4460.244459099145,9629.013264857704
4460.267654684215,8959.995578125905
4460.290850389914,8646.217905922744
4460.314046216243,8676.79899216622
4460.337242163202,8956.616658678824
4460.360438230791,9550.585900600616
4460.383634419013,10298.97280578852
4460.406830727867,11182.18063207519
4460.430027157354,12311.841019053845
4460.453223707474,13526.431165759861
4460.476420378228,14582.126746230604
4460.499617169617,15663.148051663384
4460.522814081641,16709.368107244398
4460.5460111143,17485.836387507676
4460.569208267598,18076.272260504407
4460.592405541532,18321.371841064567
4460.615602936104,18547.349588134275
4460.638800451314,18761.813686384525
4460.661998087163,19044.62597046072
4460.685195843652,18984.161821078767
4460.708393720782,18803.981014263718
4460.731591718552,18637.783314868408
4460.754789836965,18451.735974964427
4460.777988076019,18382.674661833247
4460.801186435716,18046.4546102151
4460.824384916057,17736.084490012454
4460.847583517042,17313.858602100456
4460.870782238671,16911.853143313754
4460.893981080947,16410.342900329808
4460.917180043868,16118.883571922266
4460.940379127435,15567.363872732523
4460.963578331651,15151.93672555132
4460.986777656513,14422.810522184207
4461.009977102025,13765.09862965202
4461.033176668186,12969.936569135516
4461.056376354995,12089.815675109645
4461.079576162457,11019.389199579695
4461.102776090568,10150.838372237524
4461.125976139332,9450.703072970235
4461.149176308748,8644.305764309103
4461.172376598816,7951.7107825753665
4461.195577009538,7409.079417856545
4461.218777540915,6938.782461849119
4461.241978192946,6649.897792204936
4461.265178965633,6554.9987415115065
4461.2883798589755,6557.789656508581
4461.311580872974,6561.939727401987
4461.3347820076315,6654.2010202794945
4461.357983262946,6792.76234236492
4461.381184638919,6934.78957441464
4461.404386135551,7106.922932277068
4461.4275877528435,7055.562845936572
4461.4507894907965,6876.474100613928
4461.4739913494095,6624.536749434934
4461.497193328685,6303.598819331494
4461.520395428623,6033.6915916451635
4461.543597649224,5789.742407771119
4461.566799990488,5602.915636504874
4461.590002452416,5487.301958478515
4461.61320503501,5443.42745422397
4461.636407738269,5320.474006266433
4461.659610562193,5123.796989231745
4461.682813506784,5006.557579233744
4461.706016572044,4904.58591960244
4461.729219757971,4874.531653180223
4461.752423064566,5033.0469729996485
4461.775626491831,5316.9741988608885
4461.798830039766,5714.249058188037
4461.82203370837,6302.171582977688
4461.845237497647,6950.191544359117
4461.868441407595,7615.527188196116
4461.891645438215,8068.690114838721
4461.914849589509,8523.525309376075
4461.938053861475,8826.153104871404
4461.961258254117,8961.115170506482
4461.984462767433,8820.565089885178
4462.007667401424,8472.528912618382
4462.030872156092,8358.373626326136
4462.0540770314365,8159.04122153424
4462.077282027459,8238.0963109362
4462.100487144158,8401.408946155136
4462.123692381537,8777.228188898534
4462.146897739594,9337.368324022978
4462.170103218332,10025.937587479506
4462.19330881775,10527.948919987739
4462.21651453785,11381.643272068304
4462.239720378631,11745.980789743171
4462.262926340095,11951.955602290487
4462.286132422241,12235.459130976085
4462.309338625071,12072.800579834415
4462.3325449485865,12061.023534389651
4462.355751392785,11973.413834133918
4462.3789579576705,11871.102830744603
4462.402164643242,11617.175762581805
4462.4253714495,11452.137476098162
4462.448578376446,11105.713300888376
4462.471785424079,10906.355892960328
4462.494992592401,10802.12415139502
4462.518199881412,10918.794086965405
4462.541407291114,11176.765446876181
4462.564614821506,11736.376999332955
4462.587822472589,12562.628695799687
4462.611030244365,13418.379983560819
4462.634238136832,14231.468365269118
4462.657446149992,14936.403047125803
