wave,flux
5000.025812696027,22901.353656270556
5000.051815424163,21992.66527302377
5000.0778182875265,21397.247126957183
5000.103821286119,20537.36744221698
5000.12982441994,19400.961724747784
5000.155827688991,18513.42805570542
5000.181831093272,17485.45423585511
5000.207834632784,16335.623604082264
5000.2338383075285,15422.54234330906
5000.259842117506,14695.195765587343
5000.285846062716,14169.386865912651
5000.311850143161,13830.481735106297
5000.33785435884,13634.280528238474
5000.363858709754,13897.116408075774
5000.389863195905,14363.269788741085
5000.415867817292,15129.627484448352
5000.441872573917,15975.569050482887
5000.4678774657805,17007.684521731506
5000.493882492882,17792.552998440464
5000.519887655224,18610.08487601828
5000.545892952806,19204.28569256527
5000.571898385629,19296.932114605002
5000.597903953694,19291.70327173549
5000.623909657001,19069.344859505178
5000.649915495552,18654.43265946637
5000.675921469346,18258.40038597751
5000.701927578384,17721.479570613894
5000.727933822669,17444.665181418724
5000.7539402021985,17214.32074075635
5000.779946716975,17300.190331540183
5000.805953366999,17463.97671176372
5000.831960152272,17500.632605653245
5000.857967072792,17943.653302988037
5000.883974128563,18284.439316527227
5000.9099813195835,18431.223025703388
5000.935988645855,18691.887325856118
5000.961996107378,19018.548715905294
5000.988003704153,19391.180101671052
5001.014011436181,19873.06786169194
5001.040019303464,20266.777547824175
5001.066027306,20684.514185634678
5001.092035443791,21286.547396616566
5001.118043716839,21730.557432156365
5001.1440521251425,22072.634318179058
5001.170060668704,22329.404911594484
5001.196069347523,22386.940734606287
5001.222078161601,22211.559071160045
5001.248087110937,22199.61419185945
5001.274096195534,21720.026153007988
5001.300105415392,21681.111108667796
5001.326114770512,21444.518702734946
5001.352124260892,21205.089244119707
5001.3781338865365,20909.28143093964
5001.4041436474445,20364.209029306872
5001.430153543616,20102.712513420913
5001.456163575053,19790.838399805838
5001.482173741756,19165.642826828
5001.508184043724,18941.481850603286
5001.534194480961,18784.568819304597
5001.560205053464,18334.427289102463
5001.586215761236,17927.381711250182
5001.612226604278,17423.50032310442
5001.638237582589,16777.923652482594
5001.664248696171,15989.479699334166
5001.690259945024,14924.726445536377
5001.716271329149,13897.591267270813
5001.742282848547,12931.24099534845
5001.768294503218,11760.604645620491
5001.794306293164,10950.060604257593
5001.820318218383,10422.741705251683
5001.84633027888,10220.042339586951
5001.872342474651,10330.10918742567
5001.8983548056995,10745.895514761247
5001.924367272026,11739.52024340783
5001.9503798736305,13202.10336487716
5001.976392610514,15048.353423398847
5002.002405482678,16741.10848533968
5002.028418490122,18421.460460082188
5002.054431632847,19891.35499425238
5002.080444910854,21104.36672924069
5002.106458324142,21787.22215282646
5002.1324718727155,22590.460470957078
5002.158485556572,22962.170287020588
5002.184499375713,23420.25644698289
5002.210513330139,23635.342197899827
5002.236527419852,23737.437689586695
5002.262541644852,23809.684211307576
5002.288556005138,23789.316435270295
5002.314570500714,23578.555861418332
5002.340585131577,23265.560550534447
5002.36659989773,23117.93951409332
5002.392614799174,22815.636223195223
5002.418629835909,22456.787705771923
5002.444645007936,22328.859733673482
5002.4706603152545,21646.58592568974
5002.496675757866,20986.945162187643
5002.522691335772,20351.47973382857
5002.548707048972,19765.716149651533
5002.574722897468,18875.925858081544
5002.600738881259,18122.23390979593
5002.626755000347,17457.59241373827
5002.652771254732,16586.746234358066
5002.678787644415,15700.060491830549
5002.704804169397,15091.714751570273
5002.730820829678,14587.441961518756
5002.75683762526,14254.777968888571
5002.782854556142,14234.485111880118
5002.8088716223265,14425.77635683465
5002.834888823812,15135.430065378849
5002.860906160601,16186.740716657789
5002.886923632695,17465.561663373766
5002.912941240092,18907.28320292666
5002.938958982793,20244.088063796044
5002.9649768608015,21522.239668199723
5002.990994874116,22329.36374365246
5003.017013022737,23011.293184480997
5003.043031306666,23702.916362487
5003.069049725905,23976.979474134212
5003.095068280452,24196.397329209296
5003.121086970309,24285.753923042772
5003.147105795477,24146.191951563665
5003.173124755956,24189.169770888082
5003.199143851748,24306.707666808412
5003.225163082852,24284.298020465965
5003.251182449269,24286.91536542436
5003.277201951001,24196.124345857606
5003.3032215880485,24081.663339475737
5003.32924136041,23802.230703033107
5003.35526126809,23958.213994024
5003.381281311085,23866.971207121984
5003.407301489398,23679.501471841606
5003.433321803031,23387.820298651903
5003.459342251982,23081.082556378624
5003.4853628362525,22977.826194172478
5003.511383555844,22716.52245197832
5003.537404410757,22356.555069522885
5003.563425400991,21829.86265829484
5003.589446526548,21355.0300857413
5003.615467787429,20978.189924230144
5003.641489183634,20515.06477656434
5003.667510715163,19979.12871439959
5003.693532382018,19443.18635124292
5003.719554184199,19018.038735799528
5003.745576121707,18720.914787643986
5003.771598194542,18588.98731421623
5003.797620402706,18699.393386477645
5003.823642746199,18765.245712039086
5003.849665225021,19078.44979021699
5003.875687839174,19347.58035110465
5003.901710588658,19362.56715710379
5003.927733473473,19161.43168063345
5003.953756493622,18909.756566363343
5003.979779649103,18584.73874564716
5004.005802939919,18205.03452923883
5004.031826366068,18068.370364942275
5004.057849927553,18134.389536522296
5004.083873624375,18336.786137697607
5004.109897456533,18644.656733570537
5004.135921424028,19095.505674798955
5004.161945526862,19835.614276246575
5004.187969765035,20516.970969670096
5004.213994138547,20934.575189017418
5004.240018647399,21361.561992289375
5004.266043291592,21399.370394958903
5004.292068071127,21708.745475941094
5004.318092986004,21746.499805825726
5004.344118036223,21956.20790131407
5004.370143221788,22069.123412119494
5004.396168542696,22284.713580006464
5004.422193998949,22606.785266748866
5004.448219590549,23097.424715808662
5004.474245317495,23500.10105573447
5004.500271179789,23660.146317362512
5004.52629717743,23859.120349440658
5004.5523233104195,23966.91055703105
5004.578349578759,23992.614204393023
5004.604375982449,24200.439997280155
5004.630402521489,24254.284680494333
5004.656429195881,24111.892557746683
5004.682456005625,24051.339711170313
5004.708482950721,23688.075330230364
5004.734510031172,23549.70537410278
5004.760537246977,23416.855037646903
5004.7865645981365,23085.67973538156
5004.812592084652,22672.97486638233
5004.838619706525,22141.949352404255
5004.8646474637535,21497.399059874122
5004.890675356341,20823.533513586543
5004.916703384286,20388.593095159446
5004.942731547591,19816.16227200433
5004.968759846256,19152.832073934347
5004.994788280281,18444.326025868875
5005.020816849668,17782.864721541435
5005.046845554417,17221.290631799613
5005.072874394528,16505.781753263895
5005.098903370003,15804.757773682102
5005.124932480842,15348.032064024837
5005.150961727047,14981.225947250952
5005.176991108617,15017.803366813094
5005.203020625552,15415.576869415652
5005.229050277856,16192.290689313884
5005.255080065526,16948.501434701062
5005.281109988566,18019.86883050256
5005.3071400469735,19221.069668022847
5005.333170240751,19814.422771811845
5005.3592005699,20093.167819115883
5005.38523103442,20232.459111314172
5005.411261634312,19845.626365303782
5005.4372923695755,19290.512764034276
5005.463323240213,18428.376552040918
5005.489354246225,17575.633086257036
5005.515385387611,16462.14161211045
5005.541416664373,15319.823365210228
5005.567448076511,14259.84463136649
5005.593479624025,13069.646713536698
5005.619511306918,12069.956191661428
5005.645543125189,11146.5251299082
5005.671575078838,10393.967741937286
5005.697607167867,9895.416546954133
5005.723639392277,9785.21568417951
5005.749671752068,9810.82584709201
5005.77570424724,10351.582354086688
5005.8017368777955,10981.606522850796
5005.8277696437335,11583.000956401687
5005.853802545055,12066.431213046046
5005.879835581762,12399.974991998648
5005.905868753854,12310.446242431304
5005.931902061331,12107.186210545573
5005.957935504196,11578.103031751425
5005.983969082448,10889.438362064473
5006.010002796088,10157.488411106558
5006.036036645117,9273.725314706942
5006.062070629536,8598.941129610595
5006.088104749344,8319.57323259625
5006.114139004544,8344.519460305182
5006.140173395135,8813.23159387316
5006.166207921118,9700.301335904682
5006.192242582495,10991.71724908791
5006.218277379266,12645.583374523641
5006.244312311431,14432.409292818296
5006.270347378991,16157.828866468984
5006.296382581946,17922.36784537382
5006.322417920299,19412.666870096262
5006.348453394048,20639.717604669953
5006.374489003196,21576.091153879453
5006.400524747743,22210.288938426285
5006.426560627688,22762.801599492203
5006.452596643034,23041.731407281834
5006.47863279378,23310.996875181863
5006.504669079928,23411.336984701495
5006.530705501478,23403.162346431636
5006.556742058431,23460.499060679744
5006.582778750788,23433.255300539557
5006.608815578549,23328.421853868207
5006.634852541715,23367.14564117391
5006.660889640287,23372.5485859795
5006.686926874265,23164.95428491655
5006.71296424365,23161.24561204495
5006.739001748444,23316.063085709437
5006.765039388645,23128.476021437506
5006.791077164256,22907.292274495692
5006.817115075277,22654.28984644036
5006.843153121708,22193.533082979047
5006.869191303552,21879.090006845792
5006.895229620806,21365.42762205748
5006.921268073474,20574.691606695607
5006.947306661555,19774.3360228619
5006.97334538505,18576.136769057877
5006.999384243961,17513.20985942894
5007.025423238286,16382.058040199845
5007.051462368028,15252.124266432662
5007.077501633187,13986.67474614979
5007.103541033764,12711.567032102526
5007.129580569759,11560.756559516589
5007.155620241173,10516.325333629613
5007.181660048007,9675.02087172635
5007.207699990262,9133.657149689923
5007.233740067937,9120.341990203777
5007.259780281035,9521.033293324335
5007.285820629555,10233.213329452408
5007.311861113499,11559.184552318284
5007.337901732866,12916.407244143991
5007.363942487658,14549.511180582045
5007.389983377876,16176.29800449375
5007.41602440352,17935.927661206526
5007.442065564591,19465.324455745198
5007.468106861089,20473.25237022344
5007.494148293015,21403.040448042833
5007.520189860371,21822.34248017504
5007.546231563156,22237.96653840891
5007.572273401372,22307.800828756626
5007.598315375018,22243.751296568695
5007.624357484096,22316.135951191896
5007.650399728607,22125.064643534883
5007.676442108551,21874.003355864435
5007.702484623929,21779.531926563355
5007.728527274741,21772.791636446178
5007.754570060989,21893.622794804967
5007.780612982673,22101.630015998682
5007.806656039793,22561.829912256133
5007.832699232351,23174.435612446447
5007.858742560347,23660.91261283769
5007.884786023782,24104.532848540875
5007.910829622656,24597.693538840093
5007.936873356971,24813.331854905424
5007.962917226726,24926.485243978346
5007.988961231923,25086.54382541582
5008.015005372563,25058.532078913053
5008.041049648646,25096.73155644494
5008.067094060171,25043.53864201897
5008.0931386071425,25239.569918025227
5008.119183289558,25216.534861569813
5008.14522810742,25306.434094990753
5008.171273060728,25258.070600765546
5008.197318149483,25392.080403914264
5008.223363373687,25585.111413099487
5008.249408733339,25584.969612460558
5008.27545422844,25483.98523048228
5008.301499858992,25485.51660683695
5008.327545624995,25511.389055203377
5008.353591526448,25275.447169509727
5008.379637563355,25002.320541150475
5008.405683735714,24914.200061506188
5008.431730043527,24916.368466970154
5008.457776486794,24864.39734621165
5008.483823065515,24596.44449225716
5008.509869779693,24458.905465954093
5008.535916629327,24164.424887701178
5008.561963614418,24052.568030960363
5008.588010734968,23896.794266286885
5008.614057990975,23788.178293900113
5008.640105382442,23430.98882387797
5008.666152909369,23754.04320658645
5008.692200571756,23942.41218464921
5008.718248369605,24098.67273580944
5008.744296302916,24308.30620309421
5008.77034437169,24664.173572888416
5008.796392575927,24739.83188722585
5008.822440915628,24823.55815535177
5008.848489390794,25076.919313137267
5008.874538001426,25176.015896611225
5008.900586747524,25188.497323679043
5008.926635629089,25238.4063042946
5008.952684646122,25246.22615753847
5008.978733798623,25221.661577304738
5009.004783086593,25194.12490536127
5009.030832510033,25130.274078306596
5009.056882068944,25095.38663923022
5009.082931763326,25151.26333438661
5009.108981593179,25004.722576313437
5009.135031558506,25355.65614046499
5009.161081659306,25150.237592555444
5009.187131895579,25315.52589916001
5009.213182267327,24999.264923565574
5009.239232774552,25230.2816500685
5009.265283417251,25129.80061907676
5009.291334195428,24998.287230737253
5009.317385109083,24705.12738936309
5009.343436158216,24429.730110201624
5009.369487342828,24132.92034613655
5009.395538662919,23987.344525366152
5009.421590118491,23846.45449986874
5009.447641709544,23556.76980170038
5009.473693436078,23064.434040459153
5009.499745298095,22641.897695932163
5009.525797295596,22438.197106139396
5009.55184942858,22177.20230726587
5009.577901697049,21870.00618579293
5009.603954101003,21613.499741015094
5009.630006640443,21421.809981796316
5009.65605931537,21445.87927226349
5009.682112125784,21494.462188479287
5009.708165071686,21701.615159381432
5009.7342181530785,21966.255573558064
5009.760271369959,21902.038520320748
5009.78632472233,22048.002340939813
5009.812378210192,22087.24001104648
5009.838431833546,21762.167414391246
5009.864485592391,21472.20845750681
5009.890539486731,20783.033244703285
5009.916593516564,20129.90311705592
5009.942647681891,19440.214009611456
5009.968701982713,18647.21797187005
5009.994756419032,17890.350452495477
5010.020810990847,17061.090443035588
5010.046865698159,16421.183129967347
5010.072920540969,16011.319862292286
5010.098975519279,15575.209142823458
5010.125030633087,15541.438788387855
5010.151085882395,15626.770365571738
5010.177141267204,15597.850221869641
5010.2031967875155,15803.647006338515
5010.229252443328,16213.984075106075
5010.255308234644,16798.4474490081
5010.281364161464,17736.31656891757
5010.307420223788,18921.61917613648
5010.333476421617,20045.90983895018
5010.359532754951,21224.098998007947
5010.3855892237925,22272.401152175567
5010.4116458281405,23160.779450070753
5010.437702567997,23842.376209233564
5010.463759443362,24620.199625247256
5010.489816454236,24738.317471344035
5010.51587360062,24886.445903245956
5010.541930882514,24962.736587208157
5010.56798829992,24948.68592170784
5010.5940458528385,24679.237565672705
5010.62010354127,24544.361489475607
5010.646161365214,24235.73303027361
5010.672219324672,23829.168300002024
5010.698277419646,23292.909183627617
5010.724335650135,22731.48856540294
5010.7503940161405,22046.686040381475
5010.7764525176635,21263.627574625865
5010.802511154703,20648.056238920602
5010.828569927262,20017.655884436102
5010.85462883534,19403.831837655496
5010.880687878937,18901.15108572283
5010.906747058056,18513.93555485942
5010.932806372695,18440.605134681184
5010.958865822856,18629.491426413242
5010.98492540854,19011.226992471686
5011.0109851297475,19895.162242121864
5011.0370449864795,21058.539795846624
5011.063104978735,21882.55704133837
5011.089165106517,22864.99422829759
5011.115225369825,23684.833135000223
5011.14128576866,24355.10414104844
5011.167346303022,24546.31700872178
5011.193406972913,24836.84545278049
5011.219467778333,25075.59981600082
5011.2455287192815,25228.137479765985
5011.271589795761,25173.888837016
5011.297651007772,25129.141187627283
5011.323712355315,25163.604879536226
5011.34977383839,25283.071090376234
5011.375835456999,25061.93961221356
5011.401897211142,25021.779188268203
5011.427959100819,24853.28977176791
5011.454021126031,24841.044544749973
5011.4800832867795,24437.40280080751
5011.506145583065,24053.121857293783
5011.532208014888,23798.80716682723
5011.558270582248,23395.103306916397
5011.584333285148,22951.08664270509
5011.610396123588,22380.36680615841
5011.636459097567,21705.418146680146
5011.662522207088,20990.97277127384
5011.68858545215,20215.719112986608
5011.714648832754,19532.028241598262
5011.740712348902,18690.91625557354
5011.766776000594,17736.758240433854
5011.79283978783,16987.24687848978
5011.818903710611,16010.248342811492
5011.844967768939,15226.262424425626
5011.871031962813,14193.858860858116
5011.897096292234,12974.10497372792
5011.923160757203,11926.81291557618
5011.949225357721,10638.371345435915
5011.975290093788,9550.974798668394
5012.001354965406,8456.347361028613
5012.027419972574,7831.86596469008
5012.053485115294,7359.780212262717
5012.079550393566,7389.828761571809
5012.105615807392,7671.5132946437
5012.13168135677,8416.515998640154
5012.157747041703,9380.322269884811
5012.183812862192,10515.827238351256
5012.209878818236,11781.714937896599
5012.235944909837,13076.350079464317
5012.262011136994,14118.988715335805
5012.28807749971,14983.056247297873
5012.3141439979845,15636.463011071466
5012.340210631818,15877.038671415483
5012.366277401212,15862.16163208826
5012.392344306166,15798.906720991117
5012.418411346682,15712.34570557373
5012.44447852276,15680.261446817041
5012.470545834401,15746.651068055799
5012.496613281605,16013.747631629432
5012.522680864374,16573.649098163743
5012.548748582707,17258.167374634693
5012.574816436606,18019.58746249826
5012.600884426071,18709.99519868544
5012.626952551104,19160.44855519505
5012.653020811705,19594.19097729273
5012.679089207873,19705.508827465543
5012.705157739611,19970.804896583126
5012.73122640692,20382.36334554983
5012.757295209798,21016.356012357115
5012.7833641482475,21598.215824054398
5012.80943322227,22253.891789625653
5012.835502431864,23004.28390452057
5012.861571777033,23427.96642646589
5012.887641257775,24125.02774092953
5012.9137108740915,24252.73340905598
5012.939780625984,23945.51935305504
5012.965850513452,23867.301609265713
5012.991920536498,23680.04087547466
5013.017990695121,23305.05501403963
5013.044060989323,22828.750436097587
5013.070131419104,22301.740313290735
5013.096201984464,21641.866331263936
5013.122272685405,20870.057703181465
5013.148343521927,20128.538115047962
5013.17441449403,19140.634329544224
5013.200485601717,18384.30392475912
5013.226556844987,17594.455301591282
5013.2526282238405,16831.51892262559
5013.278699738279,16256.617800110098
5013.304771388303,15670.424175845685
5013.330843173913,15506.949072157375
5013.35691509511,15571.99855255959
5013.382987151894,15680.689119167173
5013.409059344267,16021.62869736717
5013.435131672228,16300.768484202526
5013.46120413578,16332.200885441833
5013.487276734921,16082.985349503575
5013.513349469653,15619.225645122642
5013.539422339977,15097.34077458504
5013.565495345894,14207.750706913752
5013.5915684874035,13330.736985110212
5013.617641764507,12618.77720252164
5013.643715177206,12000.936354803358
5013.6697887254995,11545.379953634918
5013.695862409389,11479.829860476993
5013.721936228875,12012.547244852069
5013.748010183958,12571.043511935744
5013.77408427464,13746.59163235868
5013.800158500921,15073.824868800084
5013.826232862801,16171.633396206793
5013.852307360281,17060.015226448944
5013.8783819933615,17617.61640767833
5013.904456762045,18057.48904420548
5013.930531666329,18118.54321639547
5013.956606706218,17952.28708877806
5013.982681881709,17583.005415752934
5014.008757192805,17025.620535361442
5014.034832639507,16184.949382287605
5014.060908221814,15088.675524664144
5014.086983939728,13879.564134398826
5014.113059793249,12752.760142366435
5014.139135782378,11718.27383008458
5014.165211907116,10853.59903031387
5014.1912881674625,10348.304686603802
