wave,flux
4450.003811362098,18023.41643458539
4450.026953690486,17853.243856495366
4450.050096139227,17734.729451249426
4450.073238708321,17575.652815039783
4450.096381397769,16872.54851537279
4450.119524207569,16102.97513230146
4450.142667137726,15214.306085243645
4450.165810188237,14344.94231030567
4450.188953359103,13241.522587575884
4450.212096650326,12276.992410013187
4450.2352400619075,11098.593564570168
4450.258383593846,9883.935814618873
4450.281527246142,8902.89999118447
4450.304671018797,7685.776366167311
4450.327814911813,6648.20749273237
4450.350958925188,5839.8975754648245
4450.374103058924,5269.087143315469
4450.3972473130225,4879.2662664519385
4450.420391687483,4586.709611878715
4450.443536182305,4345.0067745550805
4450.466680797492,4301.194386861915
4450.489825533042,4530.545480836061
4450.512970388957,4889.6505380234175
4450.536115365237,5400.461908195841
4450.559260461882,6061.756383438396
4450.582405678895,6972.705186308456
4450.605551016274,7702.737489023853
4450.628696474022,8411.109260618628
4450.651842052138,9044.658007159192
4450.674987750623,9682.272435978457
4450.698133569476,9819.195057693621
4450.721279508702,10035.222522404196
4450.744425568297,10232.886393812034
4450.767571748264,10268.94131007621
4450.790718048604,10605.301781988352
4450.813864469315,11183.420222827355
4450.837011010401,11551.445680371105
4450.86015767186,12218.585965635293
4450.883304453694,13117.80827065108
4450.906451355903,13926.841340837878
4450.929598378489,14769.542668373842
4450.95274552145,15887.849693352011
4450.975892784789,16949.64420024842
4450.999040168505,18049.18991326889
4451.022187672601,19162.05299000488
4451.045335297074,19893.4494351271
4451.068483041929,20544.26163842423
4451.091630907163,20943.136230185537
4451.114778892777,21282.23547406025
4451.137926998774,21402.073171693522
4451.161075225153,21439.16696689486
4451.184223571914,21208.57153767309
4451.207372039059,20870.94030518534
4451.230520626587,20669.736341486132
4451.253669334501,20181.907394045313
4451.2768181628,19472.292475211736
4451.299967111485,18720.582625811738
4451.323116180556,17901.742714795233
4451.346265370014,17027.328246155892
4451.369414679861,16073.365173951628
4451.392564110095,15143.290655485507
4451.415713660719,14018.834838482288
4451.438863331732,12849.523369091055
4451.462013123136,11797.414832365634
4451.48516303493,10679.18040344424
4451.508313067117,9895.68570959659
4451.531463219695,9023.946243286533
4451.554613492666,8772.274790344087
4451.577763886031,8802.52498430803
4451.60091439979,9163.913346730697
4451.624065033943,10048.79477985066
4451.647215788492,11209.527153029474
4451.670366663436,12398.249194419326
4451.693517658777,13902.67437998885
4451.716668774516,15161.743485142972
4451.739820010652,16161.954443998173
4451.762971367186,16859.92536453285
4451.78612284412,17188.506766944596
4451.8092744414525,17340.590128303076
4451.832426159187,17046.18275925835
4451.855577997321,16596.80142950476
4451.878729955857,16013.606152230643
4451.901882034796,15439.794043905793
4451.925034234137,15002.021186373586
4451.948186553881,14508.020917704667
4451.97133899403,14234.138957649637
4451.994491554583,14038.880383263931
4452.017644235542,14135.690496064104
4452.040797036907,14561.756522771484
4452.063949958678,15312.368303396872
4452.087103000857,16429.59678893159
4452.1102561634425,17438.132816572117
4452.133409446437,18196.434561198148
4452.156562849841,19054.584108690116
4452.179716373655,19887.668419996924
4452.202870017878,20416.208729308546
4452.226023782513,20760.516569105454
4452.24917766756,21071.707425138575
4452.272331673018,21231.644854500464
4452.29548579889,21154.92392191777
4452.318640045174,20904.60432906466
4452.341794411874,20547.614831090723
4452.364948898987,20426.863336570765
4452.388103506516,20064.07273476802
4452.4112582344615,19651.111623531273
4452.434413082823,19396.621286556147
4452.457568051602,18755.105229764817
4452.480723140799,17830.00320325009
4452.503878350413,17207.572591878357
4452.527033680448,16340.714272052239
4452.550189130902,15436.470824721357
4452.5733447017765,14911.658784452133
4452.596500393071,14078.425531879877
4452.619656204789,13578.567777897128
4452.642812136928,13050.111719452672
4452.66596818949,12998.216411812515
4452.689124362475,12811.34719765199
4452.7122806558855,12836.828035514429
4452.735437069719,13092.377198203272
4452.7585936039795,13261.18228536557
4452.781750258665,13563.851731143874
4452.804907033777,14130.319727863425
4452.828063929317,14435.13808265028
4452.851220945285,14757.39661835849
4452.87437808168,15116.149658573566
4452.897535338506,15143.44444394585
4452.92069271576,14925.477493162785
4452.943850213445,14648.50044389928
4452.967007831562,14181.011972312579
4452.99016557011,13832.12635686111
4453.01332342909,13714.230276143187
4453.036481408502,13751.754124705943
4453.059639508349,14020.777854920765
4453.08279772863,14199.052412086548
4453.105956069345,14302.474304594025
4453.129114530496,14379.453608543212
4453.152273112083,14373.276077234292
4453.175431814107,14126.153236820392
4453.198590636567,13661.295577761683
4453.221749579466,13138.040035995491
4453.244908642802,12726.573646476336
4453.268067826579,12514.770617018157
4453.291227130795,12318.240209715395
4453.314386555451,12305.759362918192
4453.337546100549,12566.613399735272
4453.360705766087,13375.024139751486
4453.3838655520685,14493.004524674587
4453.407025458493,15317.528825505306
4453.430185485361,16231.768981461631
4453.453345632673,17365.308380256152
4453.476505900429,17752.233315282327
4453.4996662886315,17903.661074543383
4453.52282679728,17986.95264323715
4453.545987426375,17823.107073879022
4453.569148175917,17643.7151499446
4453.592309045907,17302.421217663596
4453.615470036346,16963.221903618916
4453.638631147233,16388.82806346872
4453.661792378571,16074.57897103869
4453.684953730359,15748.4531511061
4453.708115202598,15849.535527074742
4453.731276795288,16018.17393873091
4453.754438508431,16484.856060231097
4453.777600342027,17105.64062290782
4453.800762296077,17801.03636133019
4453.82392437058,18799.055298215993
4453.847086565538,19220.511554019427
4453.870248880952,19959.4165763236
4453.8934113168225,20214.518652070794
4453.916573873149,20369.218669531947
4453.939736549933,20803.15501856708
4453.962899347174,20952.2296990904
4453.986062264875,20546.260929091317
4454.009225303034,20422.83431320204
4454.032388461654,20095.57358636269
4454.055551740734,20021.082004807846
4454.078715140275,19430.406770376707
4454.101878660277,18663.115659248208
4454.125042300742,17734.76975135517
4454.14820606167,16922.314891277703
4454.171369943061,15792.16585980567
4454.194533944917,14693.747477946705
4454.2176980672375,13617.25558467402
4454.240862310024,12408.855194522102
4454.264026673275,11293.843859341587
4454.287191156994,10145.094591934017
4454.31035576118,9170.031059104593
4454.333520485834,8251.525999121688
4454.356685330957,7548.384258479017
4454.379850296548,7260.126830779729
4454.40301538261,7140.777971669466
4454.426180589142,7306.21458262562
4454.449345916145,7743.315282873834
4454.4725113636205,8345.3673246976
4454.495676931568,8809.839376341259
4454.5188426199875,9125.32210196926
4454.542008428882,9149.560036715926
4454.565174358249,8709.508254161718
4454.588340408092,8355.91903716053
4454.611506578411,7798.1628008788975
4454.634672869205,6974.787273586096
4454.657839280476,6114.698204339439
4454.681005812225,5363.849616056747
4454.704172464451,4794.714441116513
4454.727339237156,4491.454355486508
4454.750506130341,4347.821341171767
4454.773673144005,4331.808144444476
4454.79684027815,4444.363236222267
4454.820007532776,4795.751075093957
4454.843174907884,5253.7278091589
4454.866342403473,5809.699343508803
4454.889510019546,6443.130503530114
4454.912677756102,7113.84783090853
4454.935845613144,7592.206416055215
4454.959013590669,7959.596678472088
4454.982181688681,8348.342928358088
4455.005349907178,8856.42842785851
4455.028518246162,9102.960866899497
4455.051686705633,9549.775283541652
4455.074855285593,10049.835353624694
4455.098023986041,10528.48328528498
4455.121192806979,11160.590882144568
4455.144361748406,11427.076871141013
4455.167530810323,11785.24836358701
4455.190699992732,11690.939276345736
4455.213869295633,11559.653017073315
4455.237038719026,11201.47198975162
4455.260208262912,10874.213643841356
4455.283377927292,10670.704119878057
4455.306547712166,10769.896860228051
4455.329717617535,11028.691377438774
4455.352887643399,11791.802771459797
4455.37605778976,12601.527991081735
4455.399228056617,13950.589815083707
4455.422398443972,15165.094148446371
4455.445568951825,15913.216161212307
4455.468739580177,16767.72233044919
4455.491910329028,17086.423917356555
4455.515081198378,17308.980278193227
4455.538252188229,16947.532036946723
4455.561423298582,16487.258930926953
4455.584594529436,16052.6269689521
4455.607765880793,15044.821431385039
4455.630937352652,14107.800051973525
4455.654108945016,13203.270771711681
4455.677280657883,12116.19563384959
4455.700452491255,11186.41395477621
4455.723624445134,10302.573579803153
4455.746796519518,9410.8298108786
4455.7699687144095,8554.229651170526
4455.793141029808,7875.852789581719
4455.816313465714,7133.074665259217
4455.83948602213,6711.219625915005
4455.862658699055,6676.482271736231
4455.885831496489,6894.244422013152
4455.909004414434,7503.509095527201
4455.932177452891,8414.0823675705
4455.955350611858,9602.666576894737
4455.978523891339,10940.259134366777
4456.001697291333,12515.5776690152
4456.024870811841,13733.63065236811
4456.048044452862,14810.472811355434
4456.071218214399,15648.721224485678
4456.094392096451,15887.331565502354
4456.117566099019,15996.781229680882
4456.140740222105,16003.701712825163
4456.163914465707,15680.198021472892
4456.187088829828,15094.57487495247
4456.210263314468,14391.538318069655
4456.233437919626,13717.65260651778
4456.256612645306,12904.121066419082
4456.279787491505,11935.004957627187
4456.302962458226,11195.089558528422
4456.326137545469,10611.176177979169
4456.349312753233,10058.736122098051
4456.372488081522,9816.158269759118
4456.395663530333,9798.872161001367
4456.41883909967,10034.032728069798
4456.442014789531,10498.955539534121
4456.465190599917,10791.780878272644
4456.488366530831,11146.622980203367
4456.5115425822705,11321.192732905247
4456.5347187542375,11250.641611539937
4456.557895046733,11264.829465361816
4456.581071459757,11137.413135597475
4456.604247993311,10997.244785381607
4456.627424647395,11111.122621964782
4456.650601422009,11481.58060977159
4456.673778317154,12153.285527991418
4456.696955332832,13154.656792973248
4456.720132469041,14386.220392601303
4456.7433097257845,15653.300132255394
4456.766487103061,16559.93718239847
4456.789664600872,17274.031478049772
4456.8128422192185,17660.628023539448
4456.8360199581,17981.437343855763
4456.859197817518,17741.280805758688
4456.882375797473,17593.369899873578
4456.905553897966,17228.50303220139
4456.928732118997,16998.348055352606
4456.951910460566,16575.7904766183
4456.975088922674,16224.917471684452
4456.998267505323,15890.254695056181
4457.021446208513,15615.701457893081
4457.044625032244,15567.13327353867
4457.067803976516,15766.758518095212
4457.090983041332,16018.385501233515
4457.1141622266905,16214.455280184735
4457.1373415325925,16553.205410239483
4457.160520959039,16604.376133777627
4457.183700506031,16502.717439395237
4457.206880173568,16389.171800729473
4457.230059961651,15605.47473597208
4457.2532398702815,15081.762953359503
4457.27641989946,14204.722538380673
4457.299600049186,13276.48190969578
4457.322780319461,12285.327973103924
4457.345960710286,11432.01291000331
4457.36914122166,10451.511658577025
4457.392321853586,9409.143989476212
4457.415502606062,8641.775443444145
4457.43868347909,8263.68441103484
4457.461864472672,8208.377250317335
4457.485045586805,8583.628322610137
4457.508226821494,9183.210541103708
4457.5314081767365,10095.916839214065
4457.554589652534,10898.333566388548
4457.577771248887,12135.872716320331
4457.600952965797,13350.853374067763
4457.624134803263,14626.718512368898
4457.647316761288,15818.528648271631
4457.67049883987,16603.353479126057
4457.693681039011,17194.177211677794
4457.716863358712,17696.116759754383
4457.7400457989725,17901.46326802264
4457.763228359793,17583.94279205859
4457.7864110411765,17319.680807249257
4457.809593843121,17299.05614207673
4457.832776765628,17016.01238567906
4457.855959808699,16480.138281373318
4457.879142972333,16062.755704587575
4457.902326256532,15285.688660659396
4457.925509661296,14605.156746511037
4457.948693186626,14039.99233870736
4457.971876832522,12903.60739971407
4457.995060598985,12055.861942847701
4458.018244486016,11313.54081430141
4458.041428493615,10389.42574144826
4458.0646126217825,9728.441846272237
4458.08779687052,9327.992160567966
4458.110981239827,9080.06709023961
4458.134165729705,8968.646881008686
4458.157350340155,9206.702418199213
4458.180535071177,9473.458427027086
4458.203719922771,9825.410373518791
4458.226904894938,10144.631727665857
4458.2500899876795,10479.226231447185
4458.273275200995,10771.148561346681
4458.296460534886,11473.919318505821
4458.3196459893525,11964.258879292676
4458.342831564396,12715.150103741338
4458.366017260016,13109.214646836035
4458.389203076214,13693.956330661818
4458.4123890129895,13701.811122011837
4458.435575070344,13817.355214845793
4458.458761248279,13668.963415162654
4458.481947546794,13556.648510180814
4458.505133965889,13435.511050184774
4458.528320505566,13435.633044979471
4458.551507165825,13794.682792923546
4458.574693946666,14440.323820654989
4458.597880848091,15286.07463946999
4458.6210678701,16163.076714628944
4458.644255012693,17180.929265819712
4458.6674422758715,17825.28339799378
4458.690629659636,18262.797094585414
4458.713817163986,18315.138353177263
4458.737004788924,18064.650589286786
4458.76019253445,17659.838876743102
4458.783380400563,17147.67818095501
4458.8065683872655,16299.132958342128
4458.829756494558,15389.144440434477
4458.85294472244,14118.166362483622
4458.876133070914,13003.503845837295
4458.899321539979,11732.29057534574
4458.922510129635,10629.866788298641
4458.945698839884,9425.28979605949
4458.968887670727,8160.621271155808
4458.992076622164,7029.1527375359165
4459.015265694195,6015.947678106521
4459.0384548868215,5133.667839317329
4459.061644200044,4602.241049674001
4459.084833633862,4337.921950420569
4459.108023188278,4244.834959161022
4459.131212863292,4617.527724000428
4459.154402658904,4869.254555483097
4459.177592575114,5445.5951349052675
4459.200782611925,6243.500647864401
4459.223972769336,6995.657703988259
4459.247163047347,7741.589007046421
4459.27035344596,8508.661054441367
4459.293543965176,9401.927483814488
4459.316734604993,10125.368658964015
4459.339925365414,10755.307477541848
4459.363116246439,11364.285263193651
4459.386307248069,12415.909625147771
4459.409498370304,13499.759921217477
4459.432689613145,14490.809574791387
4459.455880976592,15568.368401066495
4459.479072460647,16595.773628107752
4459.502264065309,17434.89024792434
4459.52545579058,17936.58911312435
4459.5486476364595,17793.893851963203
4459.571839602949,17550.575457474755
4459.595031690048,17728.876649250626
4459.618223897759,16911.37824506326
4459.641416226081,16356.264549481097
4459.664608675014,15839.965297650026
4459.687801244561,15462.225873520292
4459.710993934721,14950.154961737
4459.734186745496,14641.340983824397
4459.757379676885,14542.480397143754
4459.780572728889,15021.1705206404
4459.803765901509,15456.408500695114
4459.8269591947455,16141.267338565402
4459.850152608599,17009.857434741723
4459.87334614307,17561.577114851076
4459.89653979816,18070.145691799786
4459.91973357387,18109.22090970745
4459.942927470198,18150.219957452704
4459.966121487147,17815.76939001893
4459.989315624717,17074.521852961254
4460.0125098829085,16428.565367356285
4460.035704261722,15492.29513253035
4460.058898761158,14426.056429814975
4460.082093381218,13167.311550005605
4460.105288121902,12269.874916544717
4460.12848298321,11152.24263705836
4460.151677965145,10138.968649812454
4460.1748730677045,9295.04099487706
4460.198068290891,8548.670939072497
4460.221263634704,8140.604605463788
4460.244459099145,8122.560744881901
4460.267654684215,8478.154582303523
4460.290850389914,9127.905749307685
4460.314046216243,10104.633915023067
4460.337242163202,11329.909581503074
4460.360438230791,12765.667420185735
4460.383634419013,14019.791286644317
4460.406830727867,15584.604475228702
4460.430027157354,16824.59457158179
4460.453223707474,17887.757203537658
4460.476420378228,18585.1112275439
4460.499617169617,19593.82053274967
4460.522814081641,19905.454286339846
4460.5460111143,20205.39518483185
4460.569208267598,20350.024299786535
4460.592405541532,20362.791471127493
4460.615602936104,20486.60811802152
4460.638800451314,20386.4630557066
4460.661998087163,20353.052051089573
4460.685195843652,20102.579006343563
4460.708393720782,19950.225715433608
4460.731591718552,19526.84682925531
4460.754789836965,19237.137449898844
4460.777988076019,19054.93170341408
4460.801186435716,18603.773113051408
4460.824384916057,18205.32063682905
4460.847583517042,17945.9584791395
4460.870782238671,17423.19537861926
4460.893981080947,16799.73839157473
4460.917180043868,16036.462615618673
4460.940379127435,15242.601357704052
4460.963578331651,14307.91095752815
4460.986777656513,13046.956448772922
4461.009977102025,11869.760323022725
4461.033176668186,10731.527374809875
4461.056376354995,9701.536494717182
4461.079576162457,8746.605625714797
4461.102776090568,7745.220624303225
4461.125976139332,7159.547389317164
4461.149176308748,6808.346361214685
4461.172376598816,6656.793702836063
4461.195577009538,6695.297303635096
4461.218777540915,6771.873813948738
4461.241978192946,6961.647601770606
4461.265178965633,7256.607556090693
4461.2883798589755,7519.437157048295
4461.311580872974,7708.62621127605
4461.3347820076315,7831.247962111008
4461.357983262946,7622.415955781163
4461.381184638919,7419.294979298114
4461.404386135551,7077.896652794082
4461.4275877528435,6637.806202767335
4461.4507894907965,6318.55906226905
4461.4739913494095,6124.607518501258
4461.497193328685,5878.646564238714
4461.520395428623,5616.262285255467
4461.543597649224,5357.400959749377
4461.566799990488,5117.8879553489805
4461.590002452416,4885.220065879045
4461.61320503501,4677.6080125195795
4461.636407738269,4586.154507977742
4461.659610562193,4735.903642380099
4461.682813506784,4994.599159213718
4461.706016572044,5476.247511572404
4461.729219757971,6299.161186020841
4461.752423064566,7200.793507291577
4461.775626491831,7973.536697132416
4461.798830039766,8646.112397624935
4461.82203370837,9224.96653426908
4461.845237497647,9492.90649504188
4461.868441407595,9408.199296455308
4461.891645438215,9280.639218405104
4461.914849589509,8965.894503854135
4461.938053861475,8536.291415452137
4461.961258254117,8108.984586902529
4461.984462767433,7816.776934447138
4462.007667401424,7865.915629960445
4462.030872156092,8341.382095142117
4462.0540770314365,8852.22858886936
4462.077282027459,9683.894148370377
4462.100487144158,10664.15876056915
4462.123692381537,11539.9895805009
4462.146897739594,12274.01466210756
4462.170103218332,12809.944232078693
4462.19330881775,13094.920049686047
4462.21651453785,13167.615271671519
4462.239720378631,13104.661978106833
4462.262926340095,12976.661683201295
4462.286132422241,12777.007792861123
4462.309338625071,12488.280321589637
4462.3325449485865,11823.045788477195
4462.355751392785,11334.236604036178
4462.3789579576705,10859.655467533095
4462.402164643242,10608.860872959658
4462.4253714495,10513.876628720585
4462.448578376446,10742.779878270327
4462.471785424079,11166.626479779217
4462.494992592401,12143.781934266843
4462.518199881412,13189.126691821897
4462.541407291114,14509.790648167073
4462.564614821506,15721.264902695413
4462.587822472589,16534.15112137542
4462.611030244365,17252.70038065231
4462.634238136832,17487.216704773477
4462.657446149992,17816.698438519594
4462.680654283847,17632.372812896443
