wave,flux
4450.003811362098,25056.17561965255
4450.026953690486,27448.18580150858
4450.050096139227,30695.671182442544
4450.073238708321,34694.51574056784
4450.096381397769,39003.01484368544
4450.119524207569,43064.64062593996
4450.142667137726,46767.64580055043
4450.165810188237,49963.971775677084
4450.188953359103,52818.733312462085
4450.212096650326,55469.87236737271
4450.2352400619075,57973.319118392246
4450.258383593846,60591.24076078657
4450.281527246142,63281.03816383119
4450.304671018797,65133.658359634195
4450.327814911813,66398.15252504792
4450.350958925188,68038.8172682475
4450.374103058924,69732.61757462609
4450.3972473130225,71874.88046867245
4450.420391687483,74381.73412951955
4450.443536182305,76787.95217005043
4450.466680797492,79116.34674011485
4450.489825533042,81207.32457530734
4450.512970388957,83678.79224508851
4450.536115365237,85364.16304255067
4450.559260461882,86831.51978089211
4450.582405678895,87666.72198550933
4450.605551016274,88331.0787584982
4450.628696474022,89474.45807049015
4450.651842052138,89569.57976053636
4450.674987750623,89896.17072100488
4450.698133569476,89025.26510901173
4450.721279508702,88901.51821834159
4450.744425568297,88527.79313063103
4450.767571748264,87888.31634389341
4450.790718048604,87314.58360204988
4450.813864469315,86115.65090299073
4450.837011010401,84359.48251719266
4450.86015767186,82488.2243754035
4450.883304453694,79303.34392823915
4450.906451355903,75885.71731554775
4450.929598378489,72241.76900385383
4450.95274552145,67244.25438835564
4450.975892784789,62140.19616043906
4450.999040168505,57261.891807032065
4451.022187672601,53396.38635822378
4451.045335297074,51220.04911238937
4451.068483041929,50755.522965650816
4451.091630907163,51717.50134924186
4451.114778892777,54715.747961104404
4451.137926998774,58276.975840316954
4451.161075225153,62511.22686474827
4451.184223571914,66899.60522973699
4451.207372039059,70597.02121841654
4451.230520626587,74333.09816425688
4451.253669334501,77221.68674162055
4451.2768181628,79874.5546946825
4451.299967111485,81964.13048818907
4451.323116180556,82907.54155270793
4451.346265370014,83227.96043795033
4451.369414679861,83329.66763953208
4451.392564110095,82845.74730760114
4451.415713660719,81880.48751442603
4451.438863331732,80645.93860847739
4451.462013123136,79316.63037527112
4451.48516303493,79077.70103504592
4451.508313067117,79287.65871821383
4451.531463219695,79661.99548423834
4451.554613492666,80223.5371598854
4451.577763886031,81439.40079976567
4451.60091439979,82871.7692264231
4451.624065033943,83610.80180746168
4451.647215788492,84536.51047703357
4451.670366663436,86211.5287957146
4451.693517658777,87501.5860476454
4451.716668774516,87943.09333104086
4451.739820010652,88700.3032558653
4451.762971367186,89188.77758994942
4451.78612284412,89551.72037143135
4451.8092744414525,90058.65811266018
4451.832426159187,90021.6761026261
4451.855577997321,90382.06162273919
4451.878729955857,90134.74378078103
4451.901882034796,89353.9987420192
4451.925034234137,89179.925532359
4451.948186553881,88252.7611672746
4451.97133899403,87201.21040307726
4451.994491554583,86028.27852048377
4452.017644235542,84499.86800487195
4452.040797036907,83167.6386124099
4452.063949958678,81928.58421150011
4452.087103000857,80415.4690908034
4452.1102561634425,79236.52034467552
4452.133409446437,78063.50513004542
4452.156562849841,76906.33103758332
4452.179716373655,76171.19516369283
4452.202870017878,75575.65128298437
4452.226023782513,75929.9951856862
4452.24917766756,76700.25085887182
4452.272331673018,77679.83252359527
4452.29548579889,78751.31805363775
4452.318640045174,79728.72887045397
4452.341794411874,80467.90367630204
4452.364948898987,80033.36593812607
4452.388103506516,80119.03206741047
4452.4112582344615,79633.43056430458
4452.434413082823,78764.28097065847
4452.457568051602,77806.45604805797
4452.480723140799,77038.7339541212
4452.503878350413,77038.99049957555
4452.527033680448,77654.65268969162
4452.550189130902,78232.05499094896
4452.5733447017765,78737.1370830499
4452.596500393071,79132.33805525208
4452.619656204789,79001.91565336142
4452.642812136928,79052.2367632315
4452.66596818949,78479.29250020212
4452.689124362475,76754.81133053859
4452.7122806558855,75140.27725156996
4452.735437069719,73192.66207618694
4452.7585936039795,71124.56931866083
4452.781750258665,69711.63580561684
4452.804907033777,69008.64017781781
4452.828063929317,69697.51556277591
4452.851220945285,71204.0011464547
4452.87437808168,73079.92531923311
4452.897535338506,75354.1692402795
4452.92069271576,77613.50128725516
4452.943850213445,79820.36986298552
4452.967007831562,81793.62937636468
4452.99016557011,83183.78153557706
4453.01332342909,83958.5953954232
4453.036481408502,84385.75073176337
4453.059639508349,84927.6394353732
4453.08279772863,84844.70122854265
4453.105956069345,84152.16459140797
4453.129114530496,83282.81693343254
4453.152273112083,82716.79271111357
4453.175431814107,81475.03498887004
4453.198590636567,81866.43113305885
4453.221749579466,81750.61663812649
4453.244908642802,82622.91298279101
4453.268067826579,83567.09903451886
4453.291227130795,84556.52730039152
4453.314386555451,85429.91931968804
4453.337546100549,85995.92977216875
4453.360705766087,86856.24623999713
4453.3838655520685,87270.65897532087
4453.407025458493,88049.14746946306
4453.430185485361,89064.56536577156
4453.453345632673,89541.03381072913
4453.476505900429,89642.07452762616
4453.4996662886315,89238.73797377117
4453.52282679728,89200.25533402029
4453.545987426375,89029.09650883247
4453.569148175917,88220.81666730125
4453.592309045907,87462.00885706917
4453.615470036346,86819.1377874685
4453.638631147233,85626.66766061679
4453.661792378571,83742.21464360367
4453.684953730359,81472.93475818724
4453.708115202598,78625.73886631774
4453.731276795288,74822.99652901296
4453.754438508431,70175.53571870983
4453.777600342027,64872.685382935524
4453.800762296077,59583.45642377097
4453.82392437058,54897.889406299895
4453.847086565538,51249.43250087981
4453.870248880952,49523.14111670682
4453.8934113168225,49359.66509115599
4453.916573873149,50550.87161156145
4453.939736549933,52974.716464710575
4453.962899347174,54974.65552013485
4453.986062264875,56311.09432780363
4454.009225303034,57423.49650563463
4454.032388461654,57353.45841942665
4454.055551740734,56006.56240455432
4454.078715140275,54061.313497351824
4454.101878660277,51010.511126134144
4454.125042300742,47262.3319623592
4454.14820606167,43319.62615915211
4454.171369943061,39023.773138805765
4454.194533944917,35372.36056686853
4454.2176980672375,31867.999286112656
4454.240862310024,29551.358096343254
4454.264026673275,28868.02420162002
4454.287191156994,29400.199215024557
4454.31035576118,30710.087459664792
4454.333520485834,33396.23992109769
4454.356685330957,37156.62205931462
4454.379850296548,39647.56512397974
4454.40301538261,42245.36397637094
4454.426180589142,43887.93005689782
4454.449345916145,45617.685732999096
4454.4725113636205,46454.28589831378
4454.495676931568,48440.16224837006
4454.5188426199875,50846.04732542486
4454.542008428882,54031.78796391812
4454.565174358249,57300.30766735755
4454.588340408092,60530.0319047456
4454.611506578411,62551.91267066622
4454.634672869205,63885.16938981636
4454.657839280476,64182.392190080696
4454.681005812225,63063.18076403632
4454.704172464451,61765.916021602585
4454.727339237156,59356.05249318833
4454.750506130341,57659.057475495334
4454.773673144005,57499.590009126274
4454.79684027815,57785.908698376224
4454.820007532776,59729.979727375365
4454.843174907884,62323.04387634203
4454.866342403473,65663.33143124
4454.889510019546,69241.18477048885
4454.912677756102,72095.01602585556
4454.935845613144,75115.64077277754
4454.959013590669,77877.83297304326
4454.982181688681,79514.08132846528
4455.005349907178,81029.5349303649
4455.028518246162,81910.88839712975
4455.051686705633,81916.15112648612
4455.074855285593,81089.41896515053
4455.098023986041,80228.48324488885
4455.121192806979,78485.84677464861
4455.144361748406,76722.53994196912
4455.167530810323,74484.05944241775
4455.190699992732,70978.21990883377
4455.213869295633,67197.24802890801
4455.237038719026,62776.11766155992
4455.260208262912,57731.36076808722
4455.283377927292,52643.761773643564
4455.306547712166,48006.830499345015
4455.329717617535,44433.298461652885
4455.352887643399,42046.64318579092
4455.37605778976,41478.4412761321
4455.399228056617,42887.12509327244
4455.422398443972,46053.58308125694
4455.445568951825,50142.376575482245
4455.468739580177,54564.639474076874
4455.491910329028,59384.03815084161
4455.515081198378,63799.297601749524
4455.538252188229,67875.94679840756
4455.561423298582,71747.81260673013
4455.584594529436,74595.0147115257
4455.607765880793,76785.50699905763
4455.630937352652,78881.78553046918
4455.654108945016,79691.9563699716
4455.677280657883,79786.66062647729
4455.700452491255,78915.41455943005
4455.723624445134,77720.76795620924
4455.746796519518,75730.48568659702
4455.7699687144095,73449.75652809067
4455.793141029808,70999.86300626595
4455.816313465714,69084.74073190296
4455.83948602213,67905.56842156347
4455.862658699055,67549.43444092224
4455.885831496489,68138.27895622925
4455.909004414434,68259.00336755873
4455.932177452891,68720.0231558768
4455.955350611858,68998.48612287894
4455.978523891339,68261.98674131617
4456.001697291333,67138.71103773073
4456.024870811841,65487.774598488075
4456.048044452862,62797.37298232406
4456.071218214399,59787.542384004635
4456.094392096451,58023.914089967526
4456.117566099019,56833.88467471872
4456.140740222105,57601.040026600946
4456.163914465707,59564.853138726015
4456.187088829828,61751.66646736984
4456.210263314468,64846.90816285081
4456.233437919626,68218.03107056145
4456.256612645306,71774.92193335133
4456.279787491505,74428.0889402594
4456.302962458226,76530.13898307692
4456.326137545469,78184.96125673481
4456.349312753233,79676.7408685979
4456.372488081522,80530.30506234616
4456.395663530333,81091.33414684382
4456.41883909967,81361.84909283876
4456.442014789531,80628.98696914095
4456.465190599917,80004.14218824108
4456.488366530831,79497.44666596709
4456.5115425822705,79602.8800056542
4456.5347187542375,79759.14380933972
4456.557895046733,80326.15045786298
4456.581071459757,80920.78745336956
4456.604247993311,81565.84391012874
4456.627424647395,82038.46453297834
4456.650601422009,82673.0448296289
4456.673778317154,82777.64886941135
4456.696955332832,82861.57587276527
4456.720132469041,81636.43117878263
4456.7433097257845,80040.31960333076
4456.766487103061,77885.45057332933
4456.789664600872,75095.24839594572
4456.8128422192185,70979.71699865043
4456.8360199581,66530.25770260334
4456.859197817518,62258.37396020461
4456.882375797473,58407.26769374907
4456.905553897966,55508.07404108623
4456.928732118997,54048.19954153241
4456.951910460566,53137.498368465465
4456.975088922674,53278.31024477367
4456.998267505323,53998.66351906571
4457.021446208513,56391.87957814951
4457.044625032244,59400.97961030056
4457.067803976516,62578.910077014094
4457.090983041332,66904.75092235848
4457.1141622266905,70281.91129041153
4457.1373415325925,73671.70412393115
4457.160520959039,76388.76534353911
4457.183700506031,78781.44865229544
4457.206880173568,80783.19773230593
4457.230059961651,82001.12842860924
4457.2532398702815,82695.50332949817
4457.27641989946,83236.19634963459
4457.299600049186,83771.11944029972
4457.322780319461,84120.59411991044
4457.345960710286,83733.99830504242
4457.36914122166,83185.66269056393
4457.392321853586,82109.21882230285
4457.415502606062,80692.75886011847
4457.43868347909,78472.5872191579
4457.461864472672,75683.32280257296
4457.485045586805,72949.6055115955
4457.508226821494,69305.04337309793
4457.5314081767365,65653.52727217689
4457.554589652534,63672.09636422141
4457.577771248887,62428.883095028345
4457.600952965797,61465.73738186195
4457.624134803263,61036.32014172462
4457.647316761288,60536.49252864169
4457.67049883987,60011.04244505156
4457.693681039011,59447.28809171417
4457.716863358712,59727.54001244429
4457.7400457989725,61047.408342155
4457.763228359793,62820.16609723058
4457.7864110411765,65451.9800884407
4457.809593843121,68130.05072165724
4457.832776765628,70570.06072813676
4457.855959808699,72605.51584579234
4457.879142972333,74056.99753427837
4457.902326256532,74451.18458649315
4457.925509661296,74005.8282628488
4457.948693186626,73444.60194576225
4457.971876832522,72602.79223156534
4457.995060598985,72034.34003801622
4458.018244486016,72461.0933635213
4458.041428493615,73591.39306189117
4458.0646126217825,75322.12803926485
4458.08779687052,76767.4761397065
4458.110981239827,78495.03973739367
4458.134165729705,80206.02753267372
4458.157350340155,81423.67636531411
4458.180535071177,82613.53494319707
4458.203719922771,83863.21643659567
4458.226904894938,84226.44013153766
4458.2500899876795,84024.9885090705
4458.273275200995,83515.88578178169
4458.296460534886,82113.93537747503
4458.3196459893525,80214.31643901695
4458.342831564396,77952.18340556798
4458.366017260016,75082.69390543427
4458.389203076214,71084.76036230531
4458.4123890129895,65921.43309176111
4458.435575070344,60422.542218533694
4458.458761248279,54659.83872166879
4458.481947546794,48752.496639226985
4458.505133965889,43509.039082808966
4458.528320505566,38643.172712967615
4458.551507165825,34698.68272909298
4458.574693946666,32504.5770497633
4458.597880848091,31580.77503302133
4458.6210678701,32247.253011442946
4458.644255012693,34046.99244823705
4458.6674422758715,37189.084443097316
4458.690629659636,40696.10781687097
4458.713817163986,43997.98320147994
4458.737004788924,47161.43713250122
4458.76019253445,49383.61426822109
4458.783380400563,50895.26696885626
4458.8065683872655,52619.35573458969
4458.829756494558,55138.01847791495
4458.85294472244,57862.03402875113
4458.876133070914,61068.42551398485
4458.899321539979,64998.2058267695
4458.922510129635,68497.2363918454
4458.945698839884,72170.94746412855
4458.968887670727,75476.58746855907
4458.992076622164,78320.52830960059
4459.015265694195,80464.8613161546
4459.0384548868215,82141.63144568886
4459.061644200044,83405.82307644236
4459.084833633862,84037.21568462913
4459.108023188278,84308.16369047803
4459.131212863292,84113.1498968314
4459.154402658904,83191.47395226255
4459.177592575114,82241.28040679125
4459.200782611925,81157.69750658008
4459.223972769336,80416.91513317011
4459.247163047347,80777.61415218555
4459.27035344596,81256.46395517388
4459.293543965176,81954.81807858807
4459.316734604993,82854.61724199646
4459.339925365414,83711.50893780713
4459.363116246439,84591.99134194969
4459.386307248069,85147.18911678762
4459.409498370304,85590.2498773912
4459.432689613145,85440.5423774703
4459.455880976592,85304.10775248751
4459.479072460647,85090.62417399237
4459.502264065309,83933.47463886904
4459.52545579058,82034.95131990247
4459.5486476364595,79445.99362286014
4459.571839602949,76390.5779888588
4459.595031690048,72590.79572380417
4459.618223897759,68186.59425011482
4459.641416226081,63721.468873317834
4459.664608675014,59542.962190130296
4459.687801244561,56688.55703193473
4459.710993934721,55400.15033938749
4459.734186745496,55570.463725743975
4459.757379676885,56943.68783560854
4459.780572728889,59231.50028141023
4459.803765901509,62027.95813892638
4459.8269591947455,64921.5675022909
4459.850152608599,68080.49494513679
4459.87334614307,71776.77039177864
4459.89653979816,74868.41078353787
4459.91973357387,77504.59187699581
4459.942927470198,80191.92901789478
4459.966121487147,82453.83014904789
4459.989315624717,84458.34087727376
4460.0125098829085,85756.25934369481
4460.035704261722,86824.50309384873
4460.058898761158,87635.30657782401
4460.082093381218,87851.87842601127
4460.105288121902,88322.3310334367
4460.12848298321,88761.84833740111
4460.151677965145,88882.74848008023
4460.1748730677045,88606.19667291273
4460.198068290891,88435.28656187191
4460.221263634704,88087.05081336328
4460.244459099145,87495.54507134574
4460.267654684215,86866.26548455209
4460.290850389914,86913.41466307618
4460.314046216243,86391.89560911244
4460.337242163202,85984.74760412904
4460.360438230791,85654.78227188089
4460.383634419013,85054.61631753888
4460.406830727867,83168.77691950036
4460.430027157354,81420.12210919357
4460.453223707474,79361.7172508152
4460.476420378228,75949.08723378995
4460.499617169617,72298.01159326472
4460.522814081641,68262.4767948874
4460.5460111143,63945.406694217236
4460.569208267598,59776.839861133994
4460.592405541532,55326.882439444096
4460.615602936104,51830.776263493455
4460.638800451314,49194.36989305581
4460.661998087163,46961.97868560251
4460.685195843652,46115.297632375645
4460.708393720782,45698.148141207035
4460.731591718552,46227.774642331075
4460.754789836965,46969.03887324171
4460.777988076019,47335.216149410604
4460.801186435716,47136.1193948287
4460.824384916057,46206.9985814499
4460.847583517042,44256.44779114095
4460.870782238671,42558.47697601813
4460.893981080947,41175.92039165825
4460.917180043868,40705.976585117045
4460.940379127435,40501.218659886836
4460.963578331651,40601.269130881105
4460.986777656513,40404.196742454325
4461.009977102025,39570.19019467485
4461.033176668186,38143.24348266487
4461.056376354995,36272.72054562486
4461.079576162457,34471.42527058377
4461.102776090568,32762.34183675151
4461.125976139332,32008.65225853241
4461.149176308748,32544.605178590045
4461.172376598816,34280.95996570273
4461.195577009538,37476.05538930093
4461.218777540915,41551.215650982806
4461.241978192946,45666.393220535385
4461.265178965633,49756.7494977966
4461.2883798589755,53807.71438071473
4461.311580872974,56168.51406844861
4461.3347820076315,57383.5956189967
4461.357983262946,57970.25766722318
4461.381184638919,56866.06225235908
4461.404386135551,54144.972822947086
4461.4275877528435,51742.65201662157
4461.4507894907965,49456.86215415117
4461.4739913494095,49025.39857145227
4461.497193328685,49199.297472756574
4461.520395428623,50836.81399848714
4461.543597649224,53763.74351040173
4461.566799990488,57145.6435188786
4461.590002452416,60802.71483590574
4461.61320503501,64179.26737444962
4461.636407738269,66958.49156785347
4461.659610562193,69179.71364429129
4461.682813506784,71728.58359651534
4461.706016572044,73319.76517810054
4461.729219757971,74807.82233701191
4461.752423064566,75184.53772316837
4461.775626491831,75176.12569586177
4461.798830039766,74414.92947506896
4461.82203370837,72612.3863578204
4461.845237497647,70580.64531441664
4461.868441407595,67825.01711018015
4461.891645438215,65314.83476047681
4461.914849589509,63922.69822841912
4461.938053861475,63439.28847680059
4461.961258254117,64334.5743882792
4461.984462767433,66530.9472550348
4462.007667401424,68890.81641803973
4462.030872156092,71817.67435628879
4462.0540770314365,74723.22148834652
4462.077282027459,77143.07975813486
4462.100487144158,78793.83863136587
4462.123692381537,80095.21688149274
4462.146897739594,81470.68534166522
4462.170103218332,81933.15484931933
4462.19330881775,82410.99908611273
4462.21651453785,83128.36340345196
4462.239720378631,83378.01042639224
4462.262926340095,83392.98467492439
4462.286132422241,82925.94409960085
4462.309338625071,81945.64838977749
4462.3325449485865,80798.16043669442
4462.355751392785,78622.78250182472
4462.3789579576705,75961.26117301093
4462.402164643242,73201.33791785281
4462.4253714495,70411.33438384438
4462.448578376446,68673.11891632174
4462.471785424079,68033.29694133524
4462.494992592401,67545.57751459786
4462.518199881412,68742.38930515802
4462.541407291114,70336.14097152933
4462.564614821506,71774.7895595628
4462.587822472589,73660.61565467337
4462.611030244365,75383.19711174772
4462.634238136832,76861.96001944819
4462.657446149992,78038.97628507916
4462.680654283847,79329.2228885023
4462.703862538396,80096.28906115745
4462.727070913639,80591.77105063295
4462.750279409578,80046.37436671114
4462.773488026214,78776.4641048407
4462.796696763546,77342.80806876185
4462.819905621575,75047.39692900746
4462.843114600304,72712.12377003346
