wave,flux
4450.003811362098,11330.41886458185
4450.026953690486,10947.320256486411
4450.050096139227,10302.48303817443
4450.073238708321,9612.098588479084
4450.096381397769,8788.40099179558
4450.119524207569,7806.096714046969
4450.142667137726,7077.671164132129
4450.165810188237,6150.762095089624
4450.188953359103,5243.450738276467
4450.212096650326,4560.870113014462
4450.2352400619075,4085.356038758988
4450.258383593846,3691.612549236158
4450.281527246142,3355.544538486926
4450.304671018797,2991.6112152349992
4450.327814911813,2755.5124862243047
4450.350958925188,2654.0998965650683
4450.374103058924,2614.9373952222745
4450.3972473130225,2841.634615085083
4450.420391687483,3282.2927394309086
4450.443536182305,3879.803866574975
4450.466680797492,4565.865123658198
4450.489825533042,5307.492319373725
4450.512970388957,5991.853832312181
4450.536115365237,6455.651121956311
4450.559260461882,6758.553780789306
4450.582405678895,6683.362461952107
4450.605551016274,6656.720158135354
4450.628696474022,6711.2224586204375
4450.651842052138,6790.638735070567
4450.674987750623,7012.98681707113
4450.698133569476,7318.073844545756
4450.721279508702,7684.976364749187
4450.744425568297,8122.276185641231
4450.767571748264,8233.673346244852
4450.790718048604,8769.791629375226
4450.813864469315,9469.189156942975
4450.837011010401,10356.79093856945
4450.86015767186,11383.039230992552
4450.883304453694,12164.34570101125
4450.906451355903,12895.100858226822
4450.929598378489,13437.597849892325
4450.95274552145,13850.065152818936
4450.975892784789,13976.326546531001
4450.999040168505,13925.06291662242
4451.022187672601,14019.883207826328
4451.045335297074,14158.127864946568
4451.068483041929,14117.431357520238
4451.091630907163,13866.317521335102
4451.114778892777,13757.46564925796
4451.137926998774,13632.605458088003
4451.161075225153,13214.676789687328
4451.184223571914,12888.010772423644
4451.207372039059,12496.133136511407
4451.230520626587,11967.526354056015
4451.253669334501,11519.211071347943
4451.2768181628,10834.72441250144
4451.299967111485,10088.979811280098
4451.323116180556,9275.494273302158
4451.346265370014,8361.462346583874
4451.369414679861,7395.803995503736
4451.392564110095,6452.937488109632
4451.415713660719,5749.736725981297
4451.438863331732,5190.9794808768675
4451.462013123136,5079.605718988222
4451.48516303493,5318.189675844707
4451.508313067117,6059.147724032614
4451.531463219695,7161.21467186937
4451.554613492666,8181.23781167234
4451.577763886031,9425.566503105545
4451.60091439979,10614.63662747024
4451.624065033943,11292.91468540057
4451.647215788492,12052.523615051696
4451.670366663436,12215.122174148162
4451.693517658777,12335.775375780566
4451.716668774516,12213.72893812706
4451.739820010652,11758.241095295869
4451.762971367186,11349.409299393652
4451.78612284412,10700.865753681966
4451.8092744414525,9986.424796560405
4451.832426159187,9318.476211682544
4451.855577997321,8807.864092681166
4451.878729955857,8627.2819060795
4451.901882034796,8776.684552201894
4451.925034234137,9180.868965850957
4451.948186553881,9886.679858323114
4451.97133899403,10539.51654874959
4451.994491554583,11198.171593325878
4452.017644235542,11989.946756478581
4452.040797036907,12628.172524262678
4452.063949958678,13142.9405029685
4452.087103000857,13491.39948584086
4452.1102561634425,13852.518194683002
4452.133409446437,14083.003463619933
4452.156562849841,13997.942433194574
4452.179716373655,13893.109593442721
4452.202870017878,13930.941042546474
4452.226023782513,13995.981469963896
4452.24917766756,13778.957465621648
4452.272331673018,13482.697558595091
4452.29548579889,13334.028500403194
4452.318640045174,13196.75797822547
4452.341794411874,12656.953390129805
4452.364948898987,12266.949202741036
4452.388103506516,11764.749122778741
4452.4112582344615,11102.81426117575
4452.434413082823,10555.21158989955
4452.457568051602,9860.544228596333
4452.480723140799,9332.15287967115
4452.503878350413,8987.416307960268
4452.527033680448,8703.798542445635
4452.550189130902,8366.908620737235
4452.5733447017765,8248.916615246584
4452.596500393071,8167.132595869618
4452.619656204789,8308.08714506582
4452.642812136928,8574.207610919451
4452.66596818949,9187.892291749795
4452.689124362475,9796.355936284755
4452.7122806558855,10363.389400004642
4452.735437069719,10546.36365339761
4452.7585936039795,10646.58025163177
4452.781750258665,10490.706178895432
4452.804907033777,10232.77129045748
4452.828063929317,9738.048059361632
4452.851220945285,9241.92167669174
4452.87437808168,9048.449294990844
4452.897535338506,8985.044009100975
4452.92069271576,9106.065947382476
4452.943850213445,9450.208194680876
4452.967007831562,9986.462330794211
4452.99016557011,10428.39413121549
4453.01332342909,10442.261471246886
4453.036481408502,10301.006870398287
4453.059639508349,10086.334343586188
4453.08279772863,9594.589694000959
4453.105956069345,9031.265566868475
4453.129114530496,8540.66481608081
4453.152273112083,8009.42007874197
4453.175431814107,7560.310590267333
4453.198590636567,7528.753303766526
4453.221749579466,7815.166729053862
4453.244908642802,8467.526767332003
4453.268067826579,9350.418188133846
4453.291227130795,10378.893668442759
4453.314386555451,11424.8083001883
4453.337546100549,12042.186731093028
4453.360705766087,12559.885832683774
4453.3838655520685,12571.73045933048
4453.407025458493,12621.064413057207
4453.430185485361,12487.249470265186
4453.453345632673,12197.306709170298
4453.476505900429,11796.317432870264
4453.4996662886315,11379.206891045686
4453.52282679728,10736.126113157776
4453.545987426375,10332.473375449768
4453.569148175917,9995.643084607347
4453.592309045907,9724.53684016036
4453.615470036346,9962.604871068976
4453.638631147233,10447.418486421346
4453.661792378571,11268.42330384278
4453.684953730359,11866.332240521131
4453.708115202598,12492.17746437894
4453.731276795288,12772.509819883082
4453.754438508431,13111.930734424392
4453.777600342027,13298.146794376253
4453.800762296077,13694.809824514936
4453.82392437058,13645.974640707436
4453.847086565538,13613.072564024385
4453.870248880952,13836.297482837232
4453.8934113168225,13667.40460562935
4453.916573873149,13593.692572284885
4453.939736549933,13518.633035188637
4453.962899347174,13194.264249563348
4453.986062264875,12872.295636338336
4454.009225303034,12426.705954085664
4454.032388461654,12062.393753091601
4454.055551740734,11480.786965180043
4454.078715140275,10746.018200195282
4454.101878660277,9938.311405849448
4454.125042300742,9161.642873200333
4454.14820606167,8281.886719209442
4454.171369943061,7172.115313495026
4454.194533944917,6274.34195688898
4454.2176980672375,5375.847102778828
4454.240862310024,4743.274720018925
4454.264026673275,4486.089968268159
4454.287191156994,4497.348423544422
4454.31035576118,4881.565124169751
4454.333520485834,5456.690824825857
4454.356685330957,6102.680875215201
4454.379850296548,6771.450731334295
4454.40301538261,7158.1887232781755
4454.426180589142,7044.140498471383
4454.449345916145,6926.102155465906
4454.4725113636205,6428.584378388742
4454.495676931568,5556.87340458834
4454.5188426199875,4936.2038266829795
4454.542008428882,4138.378175451871
4454.565174358249,3514.357331612456
4454.588340408092,3087.3678480229537
4454.611506578411,2735.823332264372
4454.634672869205,2522.8322613084183
4454.657839280476,2518.9130646187737
4454.681005812225,2706.050282641345
4454.704172464451,2980.1815254370554
4454.727339237156,3472.604862260997
4454.750506130341,4037.408093246572
4454.773673144005,4721.254690895603
4454.79684027815,4961.128868586696
4454.820007532776,5507.08966117037
4454.843174907884,5462.993556218721
4454.866342403473,5552.887678824606
4454.889510019546,5588.130457501506
4454.912677756102,5960.621755072345
4454.935845613144,6297.855871569447
4454.959013590669,6909.447739119419
4454.982181688681,7610.451051465951
4455.005349907178,8331.026204473657
4455.028518246162,8675.396064840957
4455.051686705633,8788.280986370944
4455.074855285593,8552.039613765295
4455.098023986041,8168.225674066298
4455.121192806979,7700.853063646852
4455.144361748406,7025.478448959146
4455.167530810323,6508.16540616503
4455.190699992732,6442.29100250688
4455.213869295633,6714.139076706211
4455.237038719026,7375.016703431283
4455.260208262912,8422.429779745089
4455.283377927292,9516.398847712711
4455.306547712166,10478.584877715944
4455.329717617535,11236.794256117877
4455.352887643399,11851.094967134895
4455.37605778976,12120.160712893181
4455.399228056617,12172.338755855655
4455.422398443972,11999.142761431236
4455.445568951825,11586.106953954277
4455.468739580177,11217.76499983543
4455.491910329028,10600.495679414638
4455.515081198378,9785.461196942657
4455.538252188229,9089.480742417612
4455.561423298582,8607.01948661521
4455.584594529436,8003.087597450095
4455.607765880793,7289.094172391257
4455.630937352652,6712.013248929443
4455.654108945016,5959.544475932618
4455.677280657883,5206.920568382353
4455.700452491255,4592.177839228397
4455.723624445134,3975.0240917366427
4455.746796519518,3724.868877165164
4455.7699687144095,3892.2174774870946
4455.793141029808,4323.4538600307515
4455.816313465714,5003.939495333449
4455.83948602213,5957.1585272254615
4455.862658699055,7219.468977089925
4455.885831496489,8421.324999430553
4455.909004414434,9534.434341310343
4455.932177452891,10406.686914808592
4455.955350611858,10890.764917346809
4455.978523891339,11265.603679605942
4456.001697291333,11421.766383602131
4456.024870811841,11494.396267394282
4456.048044452862,11299.328555462735
4456.071218214399,10911.015123989593
4456.094392096451,10406.977240408927
4456.117566099019,9867.859946644645
4456.140740222105,9193.713315981364
4456.163914465707,8175.507713558488
4456.187088829828,7289.496884201712
4456.210263314468,6690.790002249398
4456.233437919626,6180.53824606487
4456.256612645306,6303.7964237240685
4456.279787491505,6512.942216076204
4456.302962458226,7000.77458337587
4456.326137545469,7547.1811642895
4456.349312753233,7943.739261202375
4456.372488081522,8273.467356734845
4456.395663530333,8347.467964661504
4456.41883909967,8076.343590974316
4456.442014789531,7552.414103844554
4456.465190599917,7163.454845601357
4456.488366530831,6812.957514988713
4456.5115425822705,6682.69027119003
4456.5347187542375,7084.082623651452
4456.557895046733,7561.759175634238
4456.581071459757,8711.728111496326
4456.604247993311,9862.381713737088
4456.627424647395,10691.61453660022
4456.650601422009,11398.325304573173
4456.673778317154,12116.565292193793
4456.696955332832,12302.318565512633
4456.720132469041,12463.717987154861
4456.7433097257845,12418.728560591375
4456.766487103061,12056.817235222974
4456.789664600872,11765.510861078477
4456.8128422192185,11338.751827538144
4456.8360199581,11150.136682173557
4456.859197817518,10732.84714790511
4456.882375797473,10284.601874859007
4456.905553897966,9885.092612268649
4456.928732118997,9987.143037120115
4456.951910460566,10008.974207692216
4456.975088922674,10630.65477138101
4456.998267505323,10995.26884964603
4457.021446208513,11462.302631101998
4457.044625032244,11667.043861759998
4457.067803976516,11830.851522115725
4457.090983041332,11599.807521028315
4457.1141622266905,11330.183019908858
4457.1373415325925,10844.595493286472
4457.160520959039,10365.863845821905
4457.183700506031,9662.71564850052
4457.206880173568,8879.588702366616
4457.230059961651,7785.727785610972
4457.2532398702815,6889.010944775901
4457.27641989946,6074.3018558256945
4457.299600049186,5434.7437635198285
4457.322780319461,4875.890828464633
4457.345960710286,4835.550318925126
4457.36914122166,5019.405339508222
4457.392321853586,5464.469239375079
4457.415502606062,6182.755959773714
4457.43868347909,6935.408222005803
4457.461864472672,8031.044877886579
4457.485045586805,9056.617264500686
4457.508226821494,10070.464582147415
4457.5314081767365,11062.313750307529
4457.554589652534,11604.648190868804
4457.577771248887,11879.565932734877
4457.600952965797,12081.682623174043
4457.624134803263,11915.317077255037
4457.647316761288,11805.779222827307
4457.67049883987,11845.068618420273
4457.693681039011,11982.775141035161
4457.716863358712,11698.186429115418
4457.7400457989725,11537.87062251524
4457.763228359793,11368.426520982592
4457.7864110411765,10963.379876377076
4457.809593843121,10357.175776863203
4457.832776765628,9800.11176538722
4457.855959808699,9151.17941694061
4457.879142972333,8402.018110031908
4457.902326256532,7671.379965729305
4457.925509661296,7003.56856093447
4457.948693186626,6464.082808741118
4457.971876832522,6071.508703995584
4457.995060598985,5871.454551787568
4458.018244486016,6036.0594400217515
4458.041428493615,6298.014322558635
4458.0646126217825,6499.0145524717955
4458.08779687052,6556.303670739476
4458.110981239827,6630.518144638936
4458.134165729705,6878.027962421106
4458.157350340155,7222.736245365173
4458.180535071177,7723.347022789283
4458.203719922771,8540.307511824469
4458.226904894938,9342.578084184564
4458.2500899876795,9837.914192354334
4458.273275200995,10060.463037640004
4458.296460534886,9948.097578415482
4458.3196459893525,9528.89925486743
4458.342831564396,9026.904691512167
4458.366017260016,8498.64634455138
4458.389203076214,8187.178794913209
4458.4123890129895,8133.492465466529
4458.435575070344,8472.867410473866
4458.458761248279,9169.28695452247
4458.481947546794,10081.470367126336
4458.505133965889,10965.798410609974
4458.528320505566,11735.26292621395
4458.551507165825,12215.529066207224
4458.574693946666,12578.238597160791
4458.597880848091,12865.693411951283
4458.6210678701,12714.913810513626
4458.644255012693,12452.929842856815
4458.6674422758715,12016.2348720666
4458.690629659636,11456.092582997482
4458.713817163986,10832.929828190883
4458.737004788924,10185.019556449313
4458.76019253445,9550.423662815892
4458.783380400563,8650.908303107008
4458.8065683872655,7680.061146107788
4458.829756494558,6753.9758125578355
4458.85294472244,5746.473381054686
4458.876133070914,4707.002298971491
4458.899321539979,3918.9200891358914
4458.922510129635,3270.558802709561
4458.945698839884,2814.214305210884
4458.968887670727,2607.0377246767043
4458.992076622164,2591.4559379146594
4459.015265694195,2722.9336967432964
4459.0384548868215,3109.1376058089036
4459.061644200044,3526.468251863292
4459.084833633862,4060.876304547832
4459.108023188278,4785.8303522596625
4459.131212863292,5326.928463295527
4459.154402658904,5831.663892741616
4459.177592575114,6169.516408814206
4459.200782611925,6430.399703101485
4459.223972769336,6673.299995654579
4459.247163047347,7072.8821272686055
4459.27035344596,7849.1540259499725
4459.293543965176,8733.348774241333
4459.316734604993,9718.038785288249
4459.339925365414,10773.294768005238
4459.363116246439,11641.024462299387
4459.386307248069,12194.922551883072
4459.409498370304,12449.447379128107
4459.432689613145,12571.664832211158
4459.455880976592,12549.164873209082
4459.479072460647,12439.77060202124
4459.502264065309,11942.014566213647
4459.52545579058,11201.015937232803
4459.5486476364595,10789.261713383987
4459.571839602949,10136.115161090042
4459.595031690048,9470.99862716135
4459.618223897759,9131.511373914267
4459.641416226081,9002.421973892771
4459.664608675014,9395.099139716143
4459.687801244561,10061.961407757368
4459.710993934721,10801.95014852163
4459.734186745496,11364.953973318392
4459.757379676885,12087.011927374371
4459.780572728889,12518.202768650182
4459.803765901509,12676.238663913293
4459.8269591947455,12645.7594582988
4459.850152608599,12550.56874970249
4459.87334614307,12157.095302794844
4459.89653979816,11510.175883078196
4459.91973357387,10994.357844439171
4459.942927470198,10382.388787583475
4459.966121487147,9530.32949770702
4459.989315624717,8545.424520480423
4460.0125098829085,7561.863919616371
4460.035704261722,6627.507559473346
4460.058898761158,5820.874855223586
4460.082093381218,5142.184361078503
4460.105288121902,4788.470566551328
4460.12848298321,4752.359521508703
4460.151677965145,5027.257588615774
4460.1748730677045,5571.227570397658
4460.198068290891,6283.519699412344
4460.221263634704,7190.836661653102
4460.244459099145,8149.223073188869
4460.267654684215,9256.450426886615
4460.290850389914,10406.06879110784
4460.314046216243,11360.036666235537
4460.337242163202,11962.030982353892
4460.360438230791,12620.32516729669
4460.383634419013,13093.938707310612
4460.406830727867,13467.105075020116
4460.430027157354,13453.254802498604
4460.453223707474,13439.810165998915
4460.476420378228,13678.179814104935
4460.499617169617,13643.620764304465
4460.522814081641,13684.17869976085
4460.5460111143,13504.28963293296
4460.569208267598,13211.849765456967
4460.592405541532,13108.13288733224
4460.615602936104,12872.355997568377
4460.638800451314,12654.37822004976
4460.661998087163,12483.346250445655
4460.685195843652,12378.010874034208
4460.708393720782,12615.564750495952
4460.731591718552,12545.453604049653
4460.754789836965,12255.638274489505
4460.777988076019,11832.592975494626
4460.801186435716,11528.54123895376
4460.824384916057,11058.791640131432
4460.847583517042,10409.418632180912
4460.870782238671,9356.899403575413
4460.893981080947,8378.925943283912
4460.917180043868,7429.323024887186
4460.940379127435,6424.548587384473
4460.963578331651,5634.251475959172
4460.986777656513,4987.019424958748
4461.009977102025,4496.1994954360425
4461.033176668186,4244.198043712042
4461.056376354995,4251.548208832328
4461.079576162457,4344.661576116977
4461.102776090568,4594.40398903382
4461.125976139332,4817.633307553186
4461.149176308748,5057.390292912319
4461.172376598816,5573.418124563552
4461.195577009538,5746.442778964537
4461.218777540915,5773.550003360746
4461.241978192946,5602.902488064221
4461.265178965633,5283.926440988526
4461.2883798589755,4668.6031285248255
4461.311580872974,4491.136012952237
4461.3347820076315,4388.129720390347
4461.357983262946,4493.672228981907
4461.381184638919,4370.7818416458695
4461.404386135551,4473.543623296862
4461.4275877528435,4113.571612010802
4461.4507894907965,3981.593893461966
4461.4739913494095,3527.7171416471056
4461.497193328685,3109.8363204077195
4461.520395428623,2799.4050801851813
4461.543597649224,2799.3513504831444
4461.566799990488,2986.534205760505
4461.590002452416,3490.3770272788483
4461.61320503501,4098.756438435301
4461.636407738269,4902.343933486553
4461.659610562193,5807.965468605658
4461.682813506784,6592.960421424135
4461.706016572044,7258.263578490584
4461.729219757971,7416.574563079968
4461.752423064566,7354.354258202051
4461.775626491831,6986.4565885018565
4461.798830039766,6392.988492525584
4461.82203370837,5640.076277116067
4461.845237497647,5089.4460321319275
4461.868441407595,4807.342390304911
4461.891645438215,4784.118753200667
4461.914849589509,5063.325352875581
4461.938053861475,5719.208006772033
4461.961258254117,6597.956141021832
4461.984462767433,7452.36425093434
4462.007667401424,8209.465802728073
4462.030872156092,8723.7068378239
4462.0540770314365,9087.35938769637
4462.077282027459,9244.096621632412
4462.100487144158,9292.625559450575
4462.123692381537,9292.362485716867
4462.146897739594,9356.096454800858
4462.170103218332,9150.32163653226
4462.19330881775,8803.4023670495
4462.21651453785,8334.58235697452
4462.239720378631,7688.737497418476
4462.262926340095,7006.177255357929
4462.286132422241,6473.576685800794
4462.309338625071,6304.689255974584
4462.3325449485865,6383.537345602584
4462.355751392785,6858.525215693724
4462.3789579576705,7726.394561657714
4462.402164643242,8839.437919890428
4462.4253714495,9987.968242845736
4462.448578376446,10931.978586096779
4462.471785424079,11568.468194620658
4462.494992592401,12028.329281374285
4462.518199881412,12040.339518120043
4462.541407291114,11915.524758979684
4462.564614821506,11841.44571360367
4462.587822472589,11709.840399715904
4462.611030244365,11516.74972252844
4462.634238136832,11452.529805942826
4462.657446149992,11273.392823671631
4462.680654283847,10992.816001325218
4462.703862538396,10724.71808911215
4462.727070913639,10304.07731586704
