wave,flux
5000.025812696027,12363.354869540988
5000.051815424163,11619.55828401331
5000.0778182875265,10775.355341667135
5000.103821286119,10083.321202171905
5000.12982441994,9288.207693924694
5000.155827688991,8772.531674501937
5000.181831093272,8272.165809456956
5000.207834632784,8065.02736812682
5000.2338383075285,8184.628307233686
5000.259842117506,8690.421198385295
5000.285846062716,9394.036492932833
5000.311850143161,10197.672557083473
5000.33785435884,11257.846277096687
5000.363858709754,12150.31004628035
5000.389863195905,12851.905890771954
5000.415867817292,13126.928944640362
5000.441872573917,13240.68026519754
5000.4678774657805,12952.775068862959
5000.493882492882,12621.587114956139
5000.519887655224,12085.737136646985
5000.545892952806,11579.840695755822
5000.571898385629,10987.042646151534
5000.597903953694,10588.522820104194
5000.623909657001,10523.011967686498
5000.649915495552,10672.19705915719
5000.675921469346,10968.462000427975
5000.701927578384,11363.503075797891
5000.727933822669,11601.404297784993
5000.7539402021985,11659.968549354571
5000.779946716975,11932.949821992013
5000.805953366999,11978.25626821514
5000.831960152272,11819.286725574115
5000.857967072792,11862.726619228577
5000.883974128563,12349.886351665858
5000.9099813195835,12780.439942814637
5000.935988645855,13145.153908723483
5000.961996107378,13828.034833544465
5000.988003704153,14210.566472076815
5001.014011436181,14510.564935114144
5001.040019303464,14557.55403879546
5001.066027306,14491.371888395915
5001.092035443791,14516.463723267407
5001.118043716839,14376.605511252776
5001.1440521251425,14229.769956236158
5001.170060668704,14053.233602007178
5001.196069347523,13870.098591174663
5001.222078161601,13823.291820936673
5001.248087110937,13471.981755821575
5001.274096195534,13073.432204173414
5001.300105415392,12779.344327141098
5001.326114770512,12330.475734894817
5001.352124260892,12031.941552198996
5001.3781338865365,11983.424339522639
5001.4041436474445,12033.960277744653
5001.430153543616,12161.09578912513
5001.456163575053,12274.700082365784
5001.482173741756,12170.09706908746
5001.508184043724,11840.68926485795
5001.534194480961,11385.997768368159
5001.560205053464,10651.895731699056
5001.586215761236,9621.999495100657
5001.612226604278,8746.195501162474
5001.638237582589,7807.508122337204
5001.664248696171,6933.146472502305
5001.690259945024,6177.374203447514
5001.716271329149,5730.305149117733
5001.742282848547,5648.111174959447
5001.768294503218,6127.354298050368
5001.794306293164,6883.775282742988
5001.820318218383,8035.277866117701
5001.84633027888,9258.562361832584
5001.872342474651,10586.703483044865
5001.8983548056995,11968.184228614009
5001.924367272026,13025.832365458888
5001.9503798736305,13658.881234582555
5001.976392610514,14190.47981003554
5002.002405482678,14827.751117566178
5002.028418490122,14886.917626688031
5002.054431632847,15183.001500388116
5002.080444910854,15274.846543372294
5002.106458324142,15272.824340143921
5002.1324718727155,15206.509730907163
5002.158485556572,15035.03783054711
5002.184499375713,14970.70532990966
5002.210513330139,15060.202109492226
5002.236527419852,15049.06179895017
5002.262541644852,14706.671824271783
5002.288556005138,14394.50736777463
5002.314570500714,14239.686898702688
5002.340585131577,14093.624542323507
5002.36659989773,13918.782250342902
5002.392614799174,13529.983459430126
5002.418629835909,13045.481075704827
5002.444645007936,12783.870697961378
5002.4706603152545,12295.878698404309
5002.496675757866,11669.756019998811
5002.522691335772,11212.701405987209
5002.548707048972,10605.686431485281
5002.574722897468,9814.277541535332
5002.600738881259,9155.850796998931
5002.626755000347,8665.360686344853
5002.652771254732,8220.3992885628
5002.678787644415,8433.003216853338
5002.704804169397,9055.687115618925
5002.730820829678,9858.358896789185
5002.75683762526,11125.82496043168
5002.782854556142,12366.361966192439
5002.8088716223265,13291.124484799231
5002.834888823812,14193.999264435
5002.860906160601,14664.345607239453
5002.886923632695,14969.307748502026
5002.912941240092,15108.05638344952
5002.938958982793,15233.147083005319
5002.9649768608015,15376.873586559856
5002.990994874116,15496.348521851218
5003.017013022737,15349.393640147247
5003.043031306666,15415.545022087497
5003.069049725905,15398.407191929306
5003.095068280452,15280.221980314514
5003.121086970309,15315.162054254128
5003.147105795477,15304.677525797066
5003.173124755956,15287.454039600661
5003.199143851748,15209.314353744656
5003.225163082852,15101.092314021247
5003.251182449269,15188.833991950145
5003.277201951001,15184.28448864168
5003.3032215880485,15002.805325820014
5003.32924136041,14869.594746283468
5003.35526126809,14769.368873577027
5003.381281311085,14746.661374093848
5003.407301489398,14621.894592708313
5003.433321803031,14431.541483761503
5003.459342251982,14237.781406953454
5003.4853628362525,13915.687477673771
5003.511383555844,13500.12711116511
5003.537404410757,12875.96481435947
5003.563425400991,12343.02263696091
5003.589446526548,12008.13526814092
5003.615467787429,11756.415775878482
5003.641489183634,11697.31579724071
5003.667510715163,11994.225606525135
5003.693532382018,12490.674999901996
5003.719554184199,12873.904742574177
5003.745576121707,13039.669398534947
5003.771598194542,12983.651734881503
5003.797620402706,12670.653801301543
5003.823642746199,12304.11544118429
5003.849665225021,11856.1504358007
5003.875687839174,11444.622154942648
5003.901710588658,11093.344245155704
5003.927733473473,11160.044019569463
5003.953756493622,11281.259040880463
5003.979779649103,11676.402064120219
5004.005802939919,12350.618276525167
5004.031826366068,12906.279067766509
5004.057849927553,13243.30995286421
5004.083873624375,13472.464680435158
5004.109897456533,13624.0211514363
5004.135921424028,13761.270079602498
5004.161945526862,13803.226324918514
5004.187969765035,13726.39706191735
5004.213994138547,13806.102932298363
5004.240018647399,13924.40077222692
5004.266043291592,14019.30522302658
5004.292068071127,14105.762298143549
5004.318092986004,14539.876870089181
5004.344118036223,14819.174584156734
5004.370143221788,15011.689780624893
5004.396168542696,15145.207111008174
5004.422193998949,15403.962097726147
5004.448219590549,15375.712675649935
5004.474245317495,15359.852171988443
5004.500271179789,15380.081511627084
5004.52629717743,15334.437830044406
5004.5523233104195,15251.990894873103
5004.578349578759,15105.969764310807
5004.604375982449,15076.887518773261
5004.630402521489,15009.552386083456
5004.656429195881,14769.540920262047
5004.682456005625,14647.505733957738
5004.708482950721,14209.093808011907
5004.734510031172,14038.265723032353
5004.760537246977,13745.257069024843
5004.7865645981365,13445.05177434312
5004.812592084652,13160.16186747836
5004.838619706525,13018.027078089513
5004.8646474637535,12651.168240967258
5004.890675356341,12164.884830719135
5004.916703384286,11536.256109967646
5004.942731547591,10784.921228613153
5004.968759846256,9889.435188794054
5004.994788280281,9235.089723682599
5005.020816849668,8844.345846271392
5005.046845554417,8684.424750496702
5005.072874394528,9020.70324847016
5005.098903370003,9817.54197628813
5005.124932480842,10831.058184728578
5005.150961727047,11856.576146548037
5005.176991108617,12707.502435613043
5005.203020625552,13434.533661597952
5005.229050277856,13745.220857697746
5005.255080065526,13734.830983416146
5005.281109988566,13629.064743670928
5005.3071400469735,13167.377207418722
5005.333170240751,12676.639270376265
5005.3592005699,11833.064302680272
5005.38523103442,11327.691968540197
5005.411261634312,10640.090956165532
5005.4372923695755,9788.462366624324
5005.463323240213,8903.215762924696
5005.489354246225,7942.099739076924
5005.515385387611,7035.510823535455
5005.541416664373,6345.056027701933
5005.567448076511,5911.443845188056
5005.593479624025,5787.24782160468
5005.619511306918,6049.630299185115
5005.645543125189,6631.694950960392
5005.671575078838,7344.1100161318745
5005.697607167867,8109.057397036372
5005.723639392277,8762.369708837145
5005.749671752068,9047.236458337631
5005.77570424724,9140.927354398236
5005.8017368777955,8904.827378997088
5005.8277696437335,8389.654150339424
5005.853802545055,7562.832047762604
5005.879835581762,6703.769273551143
5005.905868753854,5995.526612048511
5005.931902061331,5335.510282868127
5005.957935504196,4742.04217042001
5005.983969082448,4521.57113892228
5006.010002796088,4763.1268416343
5006.036036645117,5312.04961662262
5006.062070629536,6262.643852087264
5006.088104749344,7492.684644478589
5006.114139004544,8751.622360790814
5006.140173395135,10128.832163720539
5006.166207921118,11492.223755327841
5006.192242582495,12607.664062492182
5006.218277379266,13448.085463587022
5006.244312311431,14170.396777334377
5006.270347378991,14556.43987392168
5006.296382581946,14520.32757674209
5006.322417920299,14819.177332144467
5006.348453394048,14871.635845067587
5006.374489003196,14862.058990047808
5006.400524747743,14846.788387599103
5006.426560627688,14828.552067998831
5006.452596643034,14758.236832133867
5006.47863279378,14749.787782112087
5006.504669079928,14789.62415680233
5006.530705501478,14756.835070641604
5006.556742058431,14791.296572575531
5006.582778750788,14776.589439040657
5006.608815578549,14786.06696780313
5006.634852541715,14787.196168250593
5006.660889640287,14685.429701230765
5006.686926874265,14691.335270330337
5006.71296424365,14439.516113025853
5006.739001748444,14464.412124909932
5006.765039388645,14157.32764206094
5006.791077164256,13734.810318556727
5006.817115075277,13207.126470072793
5006.843153121708,12824.869083765374
5006.869191303552,12166.322768447255
5006.895229620806,11369.021868371783
5006.921268073474,10567.128755277638
5006.947306661555,9701.112492476028
5006.97334538505,8710.388933059245
5006.999384243961,7678.268410886139
5007.025423238286,6632.149654839422
5007.051462368028,5767.374853962807
5007.077501633187,5165.349278683542
5007.103541033764,4904.26196373426
5007.129580569759,5151.29339939144
5007.155620241173,5774.505481711197
5007.181660048007,6671.485727985597
5007.207699990262,7818.604283775401
5007.233740067937,9108.20119622771
5007.259780281035,10575.222652392815
5007.285820629555,11726.77848092949
5007.311861113499,12839.241862268376
5007.337901732866,13667.340452952729
5007.363942487658,14201.72402649049
5007.389983377876,14498.461591563797
5007.41602440352,14658.738526723788
5007.442065564591,14753.39371848185
5007.468106861089,14530.81392743869
5007.494148293015,14317.700792555968
5007.520189860371,14022.768630991985
5007.546231563156,13664.246150455449
5007.572273401372,13353.417402886686
5007.598315375018,13335.425621515544
5007.624357484096,13486.521843459941
5007.650399728607,13739.693762794515
5007.676442108551,14253.333074546268
5007.702484623929,14778.91203238625
5007.728527274741,15125.410404208513
5007.754570060989,15469.846782591112
5007.780612982673,15740.160255442777
5007.806656039793,15835.27352057267
5007.832699232351,15760.643386808955
5007.858742560347,15650.635886123517
5007.884786023782,15882.528785943623
5007.910829622656,15803.682557317741
5007.936873356971,15774.193798849752
5007.962917226726,15964.220110757262
5007.988961231923,15950.116973108838
5008.015005372563,15962.44264857644
5008.041049648646,16040.917589559796
5008.067094060171,16038.846437897897
5008.0931386071425,15951.173521114157
5008.119183289558,16029.678737269092
5008.14522810742,16037.367979414084
5008.171273060728,16069.77778585145
5008.197318149483,16040.955773045163
5008.223363373687,15977.565748911538
5008.249408733339,16080.944352007364
5008.27545422844,16045.10741463074
5008.301499858992,15878.846135099995
5008.327545624995,15796.436817431353
5008.353591526448,15680.22605859182
5008.379637563355,15640.265587044925
5008.405683735714,15436.295427772426
5008.431730043527,15264.278221166918
5008.457776486794,14998.638672613062
5008.483823065515,14832.712039828833
5008.509869779693,14767.364308451728
5008.535916629327,14774.79465745088
5008.561963614418,14971.442358248994
5008.588010734968,15150.896473117142
5008.614057990975,15510.566253481655
5008.640105382442,15849.439652546971
5008.666152909369,15916.382996570854
5008.692200571756,15932.908575160689
5008.718248369605,15896.812470776584
5008.744296302916,16048.644645829516
5008.77034437169,16044.050873646413
5008.796392575927,16025.730434000057
5008.822440915628,16052.927834364571
5008.848489390794,15895.963392189866
5008.874538001426,15905.078237276573
5008.900586747524,15994.04113737655
5008.926635629089,15882.469905620082
5008.952684646122,15913.374433292178
5008.978733798623,15988.540850563399
5009.004783086593,15963.425023996355
5009.030832510033,15911.814445818269
5009.056882068944,16017.102446662782
5009.082931763326,15938.404165877513
5009.108981593179,15843.284911536879
5009.135031558506,15862.63487189482
5009.161081659306,15876.34168872078
5009.187131895579,15950.007928353587
5009.213182267327,15788.177967295574
5009.239232774552,15592.870814721386
5009.265283417251,15426.32534215105
5009.291334195428,15416.16590856437
5009.317385109083,15199.63907928147
5009.343436158216,14920.829374156307
5009.369487342828,14785.749704594373
5009.395538662919,14554.898827380768
5009.421590118491,14303.237789717954
5009.447641709544,13982.433471568987
5009.473693436078,13655.364429599196
5009.499745298095,13500.870485327343
5009.525797295596,13385.70180032345
5009.55184942858,13386.96954556446
5009.577901697049,13796.183788599483
5009.603954101003,14313.380431886264
5009.630006640443,14461.910832252326
5009.65605931537,14747.943168774369
5009.682112125784,14734.489847408537
5009.708165071686,14598.00026825733
5009.7342181530785,14321.732536173628
5009.760271369959,13975.576340713704
5009.78632472233,13553.564917996095
5009.812378210192,13002.7704549866
5009.838431833546,12175.530618326235
5009.864485592391,11605.956502752291
5009.890539486731,11077.197694500297
5009.916593516564,10653.961001395555
5009.942647681891,10328.655727825202
5009.968701982713,10118.223151143933
5009.994756419032,9896.223207583129
5010.020810990847,9756.98749383886
5010.046865698159,9500.311431960494
5010.072920540969,9367.242247908556
5010.098975519279,9498.277215971479
5010.125030633087,9987.918816544647
5010.151085882395,10827.56713707843
5010.177141267204,11774.939577704481
5010.2031967875155,12783.765975902425
5010.229252443328,13695.48633816192
5010.255308234644,14418.081565724126
5010.281364161464,14985.032374226776
5010.307420223788,15451.075344192112
5010.333476421617,15606.907115251197
5010.359532754951,15903.752039487934
5010.3855892237925,15982.27666621396
5010.4116458281405,16016.498225812054
5010.437702567997,15925.095863820796
5010.463759443362,15886.938642263587
5010.489816454236,15831.855360102814
5010.51587360062,15830.617039557234
5010.541930882514,15576.945356484306
5010.56798829992,15393.941682489769
5010.5940458528385,15103.715247369011
5010.62010354127,14608.627006292447
5010.646161365214,14232.570820518831
5010.672219324672,13655.955450929881
5010.698277419646,12990.98196605784
5010.724335650135,12266.613258258074
5010.7503940161405,11694.552586740836
5010.7764525176635,11233.41256765364
5010.802511154703,11026.880829205194
5010.828569927262,11194.580003771061
5010.85462883534,11672.286489882186
5010.880687878937,12450.036258206152
5010.906747058056,13374.367307446744
5010.932806372695,14266.426627019131
5010.958865822856,14812.734029352894
5010.98492540854,15288.666967592424
5011.0109851297475,15434.837451251622
5011.0370449864795,15716.631413054025
5011.063104978735,15698.254221747033
5011.089165106517,15770.705006797883
5011.115225369825,15928.412771483021
5011.14128576866,15951.693984517742
5011.167346303022,16003.669325993413
5011.193406972913,16072.598178285505
5011.219467778333,16112.51266982447
5011.2455287192815,16072.738096437688
5011.271589795761,16019.032000473571
5011.297651007772,15974.183457896903
5011.323712355315,15806.42162342859
5011.34977383839,15699.06334520113
5011.375835456999,15637.279178037277
5011.401897211142,15446.34788290173
5011.427959100819,15150.158213242521
5011.454021126031,14797.75900033341
5011.4800832867795,14488.95186290411
5011.506145583065,14057.854318946887
5011.532208014888,13638.371616552178
5011.558270582248,13240.902914719398
5011.584333285148,12697.867034715657
5011.610396123588,12261.931385721577
5011.636459097567,11893.305736622351
5011.662522207088,11500.296401576687
5011.68858545215,11141.62541493087
5011.714648832754,10704.915585666278
5011.740712348902,10091.396773334396
5011.766776000594,9301.140127123746
5011.79283978783,8384.633874418118
5011.818903710611,7508.751242438116
5011.844967768939,6380.694790191974
5011.871031962813,5431.992820414319
5011.897096292234,4728.612519643488
5011.923160757203,4329.8252931538045
5011.949225357721,4177.073355172113
5011.975290093788,4282.206855496217
5012.001354965406,4824.5030194702285
5012.027419972574,5574.775270591824
5012.053485115294,6676.8548809221365
5012.079550393566,7750.882208949979
5012.105615807392,8864.833535693595
5012.13168135677,9872.438855678914
5012.157747041703,10486.495938690938
5012.183812862192,10831.547244788058
5012.209878818236,10930.511695264831
5012.235944909837,10704.857085536745
5012.262011136994,10179.613299614866
5012.28807749971,9748.51018675684
5012.3141439979845,9653.382994862402
5012.340210631818,9753.97586009509
5012.366277401212,10160.144453299154
5012.392344306166,10848.074678289313
5012.418411346682,11519.686030070401
5012.44447852276,12060.934529324788
5012.470545834401,12371.524428793906
5012.496613281605,12441.123605861992
5012.522680864374,12253.314268690387
5012.548748582707,12219.44052130192
5012.574816436606,12321.223168596454
5012.600884426071,12470.594097230356
5012.626952551104,12964.956400265122
5012.653020811705,13657.42244823563
5012.679089207873,14278.800570410041
5012.705157739611,14792.408791683783
5012.73122640692,15364.89597312949
5012.757295209798,15459.402220642005
5012.7833641482475,15452.334547833534
5012.80943322227,15312.215532861848
5012.835502431864,15502.713263914122
5012.861571777033,15477.615884709932
5012.887641257775,15261.334383383679
5012.9137108740915,15007.359516708048
5012.939780625984,14844.97420559709
5012.965850513452,14527.727281595102
5012.991920536498,14018.056219132908
5013.017990695121,13486.79661932138
5013.044060989323,12804.2191274454
5013.070131419104,11995.612689255304
5013.096201984464,11254.986489241974
5013.122272685405,10480.209119981535
5013.148343521927,9819.673176294256
5013.17441449403,9484.25586389301
5013.200485601717,9457.427120711814
5013.226556844987,9859.397045848564
5013.2526282238405,10448.782695178372
5013.278699738279,11025.446343564201
5013.304771388303,11510.261766799169
5013.330843173913,11545.310337349098
5013.35691509511,11491.644547575093
5013.382987151894,11003.389139887413
5013.409059344267,10345.926608464162
5013.435131672228,9726.66900342977
5013.46120413578,8895.215245649673
5013.487276734921,8090.776592935578
5013.513349469653,7305.884968724339
5013.539422339977,6636.886162276188
5013.565495345894,6651.780604477668
5013.5915684874035,6919.232406546827
5013.617641764507,7628.588539416777
5013.643715177206,8546.015232287016
5013.6697887254995,9657.75622815493
5013.695862409389,10595.583581933588
5013.721936228875,11528.543115357843
5013.748010183958,12053.899770819848
5013.77408427464,12290.028044695648
5013.800158500921,12490.394855040031
5013.826232862801,12365.540226577881
5013.852307360281,12145.37564687375
5013.8783819933615,11880.126686818567
5013.904456762045,11394.492398766004
5013.930531666329,10725.249047585385
5013.956606706218,9780.345829024296
5013.982681881709,8781.427901003233
5014.008757192805,7727.904087605872
5014.034832639507,6645.165444524789
5014.060908221814,5877.739335307704
5014.086983939728,5474.872696525389
5014.113059793249,5361.604402201032
5014.139135782378,5632.514783289287
5014.165211907116,6305.105271833392
5014.1912881674625,7229.742429000962
5014.21736456342,8513.346801697522
