wave,flux
4450.003811362098,8830.097362620314
4450.026953690486,8472.963691350717
4450.050096139227,8257.004705266047
4450.073238708321,7765.54702241192
4450.096381397769,6969.590565145163
4450.119524207569,6277.647774926794
4450.142667137726,5673.584467846726
4450.165810188237,4985.690764537785
4450.188953359103,4287.005923248272
4450.212096650326,3749.917027343512
4450.2352400619075,3222.0390926716395
4450.258383593846,2867.5251410152455
4450.281527246142,2594.754530926348
4450.304671018797,2412.480455563098
4450.327814911813,2310.9216103209546
4450.350958925188,2141.732261828962
4450.374103058924,2069.6716442584343
4450.3972473130225,2136.678257568154
4450.420391687483,2338.6165759445767
4450.443536182305,2716.3719802911232
4450.466680797492,3191.7978573159858
4450.489825533042,3773.9143738596354
4450.512970388957,4254.2334795380575
4450.536115365237,4658.455311231226
4450.559260461882,5024.303895984105
4450.582405678895,5190.433647331312
4450.605551016274,5245.641864568697
4450.628696474022,5255.825340753199
4450.651842052138,5214.41634558992
4450.674987750623,5297.349798257498
4450.698133569476,5586.712938020746
4450.721279508702,5722.779887077598
4450.744425568297,5953.091589765022
4450.767571748264,6152.356266800513
4450.790718048604,6629.816798367878
4450.813864469315,6915.652969389503
4450.837011010401,7622.596590279872
4450.86015767186,8319.126678895693
4450.883304453694,9009.007371722033
4450.906451355903,9605.852952301046
4450.929598378489,10161.686493341802
4450.95274552145,10508.462919266922
4450.975892784789,10799.1671012972
4450.999040168505,10958.568569624582
4451.022187672601,10943.90546462197
4451.045335297074,10811.218783430342
4451.068483041929,10757.644443773594
4451.091630907163,10772.106143643743
4451.114778892777,10653.097259218244
4451.137926998774,10512.332696147672
4451.161075225153,10456.19800935879
4451.184223571914,10197.110572836153
4451.207372039059,9658.881004058776
4451.230520626587,9354.056775053446
4451.253669334501,9126.293547756888
4451.2768181628,8528.975068112783
4451.299967111485,8006.710328171196
4451.323116180556,7384.120712759119
4451.346265370014,6750.261784387314
4451.369414679861,6152.4888841664615
4451.392564110095,5281.028977654389
4451.415713660719,4684.49718919827
4451.438863331732,4188.766430359217
4451.462013123136,3945.0350539643405
4451.48516303493,4073.3894437566983
4451.508313067117,4355.584873659295
4451.531463219695,5042.295555960464
4451.554613492666,5856.101984029359
4451.577763886031,6789.232555323687
4451.60091439979,7717.859861574334
4451.624065033943,8357.404732678768
4451.647215788492,9041.967198037586
4451.670366663436,9292.198520174854
4451.693517658777,9472.099521474533
4451.716668774516,9404.875367974806
4451.739820010652,9237.374577971697
4451.762971367186,8920.101210694043
4451.78612284412,8380.174425003857
4451.8092744414525,7925.277312424489
4451.832426159187,7454.518861776744
4451.855577997321,7032.623364869593
4451.878729955857,6806.062914490362
4451.901882034796,6693.783991791227
4451.925034234137,6829.622167519107
4451.948186553881,7308.130362138071
4451.97133899403,7799.899440044747
4451.994491554583,8441.154079963486
4452.017644235542,9085.269572237008
4452.040797036907,9445.648901702465
4452.063949958678,9892.785458095304
4452.087103000857,10315.324611800988
4452.1102561634425,10580.099720307593
4452.133409446437,10836.838067880972
4452.156562849841,10897.25487105638
4452.179716373655,10890.523501741845
4452.202870017878,10934.463718568788
4452.226023782513,10834.446259093835
4452.24917766756,10693.427929885038
4452.272331673018,10582.525709403017
4452.29548579889,10458.878401743505
4452.318640045174,10087.103668782083
4452.341794411874,9900.330945811938
4452.364948898987,9614.754331723336
4452.388103506516,9114.338823356136
4452.4112582344615,8807.18339528938
4452.434413082823,8290.182842122984
4452.457568051602,7922.226893071034
4452.480723140799,7421.20522111867
4452.503878350413,6943.297693533275
4452.527033680448,6698.800027086755
4452.550189130902,6552.54662713692
4452.5733447017765,6316.014912733382
4452.596500393071,6436.501198478672
4452.619656204789,6317.586320848568
4452.642812136928,6476.259137453834
4452.66596818949,6789.5564456967295
4452.689124362475,7108.188112074409
4452.7122806558855,7620.999389484063
4452.735437069719,7904.545240124584
4452.7585936039795,8122.282103812549
4452.781750258665,8128.941017391489
4452.804907033777,7947.37993234382
4452.828063929317,7606.84450662643
4452.851220945285,7278.6988369433475
4452.87437808168,7057.575254908747
4452.897535338506,6854.755926146497
4452.92069271576,6908.648577205801
4452.943850213445,7160.064937759916
4452.967007831562,7473.335103815403
4452.99016557011,7854.8892184582755
4453.01332342909,8077.0626503174235
4453.036481408502,8013.840987020515
4453.059639508349,7819.324591591599
4453.08279772863,7572.731097476529
4453.105956069345,7159.287559892503
4453.129114530496,6686.46492442984
4453.152273112083,6255.237881494674
4453.175431814107,5871.946759661506
4453.198590636567,5775.244864627374
4453.221749579466,5957.909214533293
4453.244908642802,6340.437728602721
4453.268067826579,6864.952955528805
4453.291227130795,7552.630991553402
4453.314386555451,8427.339668104727
4453.337546100549,8968.073465870906
4453.360705766087,9513.625089605164
4453.3838655520685,9632.270664763135
4453.407025458493,9676.391013422275
4453.430185485361,9558.330944546637
4453.453345632673,9485.795844036827
4453.476505900429,9202.177967618853
4453.4996662886315,8770.24188268225
4453.52282679728,8516.626707092759
4453.545987426375,8045.899284563699
4453.569148175917,7839.8097135932785
4453.592309045907,7609.5127342760525
4453.615470036346,7665.174339098157
4453.638631147233,7953.0266920806835
4453.661792378571,8431.237533519456
4453.684953730359,8798.684960732151
4453.708115202598,9415.514597819885
4453.731276795288,9791.916054544005
4453.754438508431,10018.56747104639
4453.777600342027,10211.020786648678
4453.800762296077,10332.22928846344
4453.82392437058,10561.846287553832
4453.847086565538,10686.671302364768
4453.870248880952,10617.335841073893
4453.8934113168225,10645.990821604439
4453.916573873149,10606.578456256902
4453.939736549933,10336.578968358564
4453.962899347174,10269.916281726048
4453.986062264875,10055.489708840742
4454.009225303034,9744.785785205073
4454.032388461654,9495.722154669267
4454.055551740734,9003.161900155395
4454.078715140275,8508.759785414148
4454.101878660277,7896.078857553058
4454.125042300742,7186.3802033688935
4454.14820606167,6525.352394548491
4454.171369943061,5806.045622989373
4454.194533944917,5105.175546486108
4454.2176980672375,4451.339837855422
4454.240862310024,3852.6426631571107
4454.264026673275,3488.7600258171224
4454.287191156994,3440.6949227455643
4454.31035576118,3590.021886173558
4454.333520485834,3945.301988340688
4454.356685330957,4375.449931625977
4454.379850296548,4856.9328240657
4454.40301538261,5212.212282798169
4454.426180589142,5363.495934709798
4454.449345916145,5238.584596224134
4454.4725113636205,4981.572885763839
4454.495676931568,4638.227275368502
4454.5188426199875,4083.9440321085312
4454.542008428882,3453.658995150444
4454.565174358249,2983.3418653552435
4454.588340408092,2542.366552050362
4454.611506578411,2252.3031808148744
4454.634672869205,2006.2465391444441
4454.657839280476,1979.8361110986928
4454.681005812225,2052.5250528383513
4454.704172464451,2160.7019142260788
4454.727339237156,2466.987043528151
4454.750506130341,2832.668456900661
4454.773673144005,3191.249790183449
4454.79684027815,3633.345212269995
4454.820007532776,3839.229734371778
4454.843174907884,4117.895756595788
4454.866342403473,4118.877041316787
4454.889510019546,4344.767935560739
4454.912677756102,4487.891535362928
4454.935845613144,4640.782068317114
4454.959013590669,5080.909041622484
4454.982181688681,5635.831863337933
4455.005349907178,6097.4522961304965
4455.028518246162,6408.905432581066
4455.051686705633,6684.123665217729
4455.074855285593,6653.8415756924815
4455.098023986041,6464.198754727867
4455.121192806979,6045.892755703859
4455.144361748406,5594.896256940332
4455.167530810323,5229.628458838329
4455.190699992732,5032.163306321955
4455.213869295633,5063.74637466904
4455.237038719026,5478.395427729305
4455.260208262912,6129.661778793085
4455.283377927292,6779.1906639763365
4455.306547712166,7565.541743100629
4455.329717617535,8359.111856044876
4455.352887643399,8922.21790834576
4455.37605778976,9171.651016960905
4455.399228056617,9270.880311823546
4455.422398443972,9227.516945292995
4455.445568951825,9124.47533537428
4455.468739580177,8839.302289247664
4455.491910329028,8378.469795313044
4455.515081198378,7797.5678038072065
4455.538252188229,7279.108492946652
4455.561423298582,6774.174480408602
4455.584594529436,6293.861667457611
4455.607765880793,5899.484519528913
4455.630937352652,5451.305438472771
4455.654108945016,4818.145568358255
4455.677280657883,4243.655051540079
4455.700452491255,3691.3690826892425
4455.723624445134,3215.6533652409194
4455.746796519518,3034.8294687689063
4455.7699687144095,2962.9652027425077
4455.793141029808,3144.314882715882
4455.816313465714,3600.4686378923693
4455.83948602213,4276.477417923131
4455.862658699055,5100.174294140216
4455.885831496489,6013.5298939727745
4455.909004414434,6946.020383358606
4455.932177452891,7681.0993271044845
4455.955350611858,8259.566222210176
4455.978523891339,8453.330244244331
4456.001697291333,8672.535248441187
4456.024870811841,8835.792333212874
4456.048044452862,8699.907276852344
4456.071218214399,8442.768337274829
4456.094392096451,8112.592817514581
4456.117566099019,7749.09909633959
4456.140740222105,7120.892389511589
4456.163914465707,6497.596428722202
4456.187088829828,5978.939347819401
4456.210263314468,5437.552401132266
4456.233437919626,5008.20643235309
4456.256612645306,4884.54752109786
4456.279787491505,4868.290639409516
4456.302962458226,5230.301345286199
4456.326137545469,5522.75278318365
4456.349312753233,5923.554534336563
4456.372488081522,6190.153325724556
4456.395663530333,6326.894077644861
4456.41883909967,6198.001695479802
4456.442014789531,6049.020825059415
4456.465190599917,5638.17194990898
4456.488366530831,5308.692922817509
4456.5115425822705,5146.161380945117
4456.5347187542375,5258.298213129013
4456.557895046733,5663.04004950967
4456.581071459757,6300.182400130714
4456.604247993311,7098.962847105874
4456.627424647395,7929.687769383242
4456.650601422009,8572.356978170585
4456.673778317154,8956.617407445365
4456.696955332832,9367.317277254035
4456.720132469041,9535.640612859925
4456.7433097257845,9497.695721896054
4456.766487103061,9329.331795145317
4456.789664600872,9311.111837869104
4456.8128422192185,8786.161033043742
4456.8360199581,8665.019852730322
4456.859197817518,8329.66334633592
4456.882375797473,8069.291894750877
4456.905553897966,7792.579859389615
4456.928732118997,7656.829347223274
4456.951910460566,7771.555581848538
4456.975088922674,8043.652846407438
4456.998267505323,8316.67282549268
4457.021446208513,8650.287918212573
4457.044625032244,8915.661010568017
4457.067803976516,9004.73553792251
4457.090983041332,9036.704530757292
4457.1141622266905,8778.239562952449
4457.1373415325925,8525.704050059003
4457.160520959039,8140.995930950173
4457.183700506031,7728.3795696069765
4457.206880173568,7007.974197047482
4457.230059961651,6283.167801407139
4457.2532398702815,5737.0125977691705
4457.27641989946,5180.717288917963
4457.299600049186,4393.098433056594
4457.322780319461,3936.6103988358186
4457.345960710286,3726.9613358922393
4457.36914122166,3834.6599841554003
4457.392321853586,4013.7891679796267
4457.415502606062,4500.833258521186
4457.43868347909,5119.087746883386
4457.461864472672,5787.509812890763
4457.485045586805,6549.6903483423575
4457.508226821494,7292.050048271523
4457.5314081767365,8155.350577971845
4457.554589652534,8675.035445193636
4457.577771248887,9091.621133284501
4457.600952965797,9195.879345321551
4457.624134803263,9397.153682319922
4457.647316761288,9292.59269696063
4457.67049883987,9013.084883133768
4457.693681039011,9016.359614371479
4457.716863358712,9099.09416096236
4457.7400457989725,8945.195082019043
4457.763228359793,8843.682699317176
4457.7864110411765,8411.734478610277
4457.809593843121,8141.882098546899
4457.832776765628,7725.281413720095
4457.855959808699,7273.362416016761
4457.879142972333,6682.332857845395
4457.902326256532,6062.829659771598
4457.925509661296,5592.787006404197
4457.948693186626,5173.309122943095
4457.971876832522,4741.80124350286
4457.995060598985,4561.750617121233
4458.018244486016,4582.951348179369
4458.041428493615,4762.149829184513
4458.0646126217825,4817.6608486746145
4458.08779687052,4981.431183718959
4458.110981239827,5075.6459651246005
4458.134165729705,5250.226227140066
4458.157350340155,5466.08351301374
4458.180535071177,5803.804446765126
4458.203719922771,6290.41558894781
4458.226904894938,6711.048675522302
4458.2500899876795,7119.652795200978
4458.273275200995,7451.060154957064
4458.296460534886,7556.776042628114
4458.3196459893525,7441.995814622645
4458.342831564396,7186.245011782708
4458.366017260016,6846.077453160036
4458.389203076214,6513.464810991335
4458.4123890129895,6426.889106660572
4458.435575070344,6526.325830495851
4458.458761248279,6822.012747506305
4458.481947546794,7438.482548151756
4458.505133965889,8160.53102426236
4458.528320505566,8677.01477446157
4458.551507165825,9197.03084875006
4458.574693946666,9595.479926332573
4458.597880848091,9791.059465142549
4458.6210678701,9876.710193532464
4458.644255012693,9722.740198767202
4458.6674422758715,9402.487415736376
4458.690629659636,9029.225481825011
4458.713817163986,8624.422681963018
4458.737004788924,8153.984435018754
4458.76019253445,7535.02691158844
4458.783380400563,6923.7380079973755
4458.8065683872655,6215.985007036683
4458.829756494558,5452.230739198471
4458.85294472244,4782.782774714506
4458.876133070914,4100.131778317665
4458.899321539979,3332.080862699899
4458.922510129635,2771.4646349663885
4458.945698839884,2394.2268749411364
4458.968887670727,2059.984075604742
4458.992076622164,1983.4385483722253
4459.015265694195,2013.8890899822036
4459.0384548868215,2186.401852451941
4459.061644200044,2535.425235218808
4459.084833633862,2916.275638754955
4459.108023188278,3377.8349995696776
4459.131212863292,3850.5397643501246
4459.154402658904,4289.698280163411
4459.177592575114,4683.6104238783155
4459.200782611925,4936.79146844781
4459.223972769336,5040.844376386038
4459.247163047347,5235.765503499531
4459.27035344596,5693.189970495259
4459.293543965176,6413.701525346138
4459.316734604993,7178.44842223275
4459.339925365414,8003.839699480808
4459.363116246439,8657.271415132971
4459.386307248069,9172.772850638421
4459.409498370304,9537.089831564315
4459.432689613145,9643.341068975224
4459.455880976592,9645.848583166435
4459.479072460647,9513.135215475875
4459.502264065309,9207.46941911815
4459.52545579058,8795.922069613687
4459.5486476364595,8484.903209990933
4459.571839602949,8070.016863854564
4459.595031690048,7397.711514213346
4459.618223897759,7124.855137412153
4459.641416226081,7101.576168582981
4459.664608675014,7136.450563040382
4459.687801244561,7470.995905279136
4459.710993934721,8037.754916859
4459.734186745496,8595.602445086224
4459.757379676885,9013.799603826243
4459.780572728889,9441.031088683587
4459.803765901509,9743.745741706509
4459.8269591947455,9785.639862917853
4459.850152608599,9690.908688690397
4459.87334614307,9443.493530168844
4459.89653979816,9230.61063277349
4459.91973357387,8672.33649178821
4459.942927470198,8050.565402227296
4459.966121487147,7623.257439487628
4459.989315624717,6921.4445429546895
4460.0125098829085,6257.216068542523
4460.035704261722,5614.10599663669
4460.058898761158,4913.94198062341
4460.082093381218,4366.870795821491
4460.105288121902,3902.7300070150113
4460.12848298321,3674.470833529923
4460.151677965145,3726.57796643728
4460.1748730677045,4018.979784094351
4460.198068290891,4596.538386134749
4460.221263634704,5180.908269839777
4460.244459099145,5886.6182075469615
4460.267654684215,6698.309491748687
4460.290850389914,7495.014829743951
4460.314046216243,8245.462756327799
4460.337242163202,9089.252980893458
4460.360438230791,9561.880295592497
4460.383634419013,10023.544562281353
4460.406830727867,10282.863289909434
4460.430027157354,10471.336389386435
4460.453223707474,10416.40134484669
4460.476420378228,10539.10037251148
4460.499617169617,10425.400166474557
4460.522814081641,10529.048511278676
4460.5460111143,10480.257938595545
4460.569208267598,10313.433579803996
4460.592405541532,10262.091653660387
4460.615602936104,10064.253734689726
4460.638800451314,9715.332776252882
4460.661998087163,9752.39560234894
4460.685195843652,9527.179429594242
4460.708393720782,9532.378891820657
4460.731591718552,9546.148172870922
4460.754789836965,9318.707781379233
4460.777988076019,9336.511709929135
4460.801186435716,8916.311510581178
4460.824384916057,8526.880086890696
4460.847583517042,8186.012221658361
4460.870782238671,7487.985384930511
4460.893981080947,6762.560441853291
4460.917180043868,6117.040823995435
4460.940379127435,5328.995276216755
4460.963578331651,4634.555700141363
4460.986777656513,4041.217640594807
4461.009977102025,3632.859276504691
4461.033176668186,3444.111910013638
4461.056376354995,3290.191031328112
4461.079576162457,3308.415950712914
4461.102776090568,3400.3142748568876
4461.125976139332,3658.0306671224594
4461.149176308748,3862.9156966355195
4461.172376598816,4032.956932841078
4461.195577009538,4316.070598437716
4461.218777540915,4370.109863146081
4461.241978192946,4299.303491311999
4461.265178965633,4128.651811409931
4461.2883798589755,3934.466063118452
4461.311580872974,3576.0947646344976
4461.3347820076315,3417.088448844097
4461.357983262946,3376.966896226074
4461.381184638919,3428.290812540392
4461.404386135551,3432.5854702380857
4461.4275877528435,3249.5814619516
4461.4507894907965,3017.824733474008
4461.4739913494095,2793.333152724627
4461.497193328685,2511.2386899434114
4461.520395428623,2211.983685259397
4461.543597649224,2194.9062655310163
4461.566799990488,2299.7454791211712
4461.590002452416,2439.6945753042487
4461.61320503501,2852.437850256675
4461.636407738269,3434.6305048629015
4461.659610562193,4017.0909418681517
4461.682813506784,4548.043025499458
4461.706016572044,5200.8136308468465
4461.729219757971,5555.239560641311
4461.752423064566,5540.019526764645
4461.775626491831,5359.421286306318
4461.798830039766,5055.1305580691505
4461.82203370837,4633.637683737884
4461.845237497647,4074.503681375592
4461.868441407595,3764.777823943828
4461.891645438215,3641.5059011687204
4461.914849589509,3773.565596853109
4461.938053861475,4173.3141751967405
4461.961258254117,4762.81996565112
4461.984462767433,5302.104656375239
4462.007667401424,5913.066327813337
4462.030872156092,6564.594022919649
4462.0540770314365,6801.463850400086
4462.077282027459,6980.353668796866
4462.100487144158,7177.4658966856105
4462.123692381537,7112.905655587486
4462.146897739594,7106.28131553552
4462.170103218332,7055.6699369622565
4462.19330881775,6885.378835021641
4462.21651453785,6575.824143082077
4462.239720378631,6033.904556308718
4462.262926340095,5599.437154964134
4462.286132422241,5262.663179456234
4462.309338625071,4975.924797794045
4462.3325449485865,4878.76375231404
4462.355751392785,5142.340057444054
4462.3789579576705,5680.213714954001
4462.402164643242,6378.227224527764
4462.4253714495,7191.622730277408
4462.448578376446,7993.753293389873
4462.471785424079,8631.74853353274
4462.494992592401,8983.26200117646
4462.518199881412,9204.696338298889
4462.541407291114,9349.173797245929
4462.564614821506,9287.460233645677
4462.587822472589,9029.243131903188
4462.611030244365,8907.84794957102
4462.634238136832,8760.749493128249
4462.657446149992,8710.899726017846
4462.680654283847,8522.197329733954
4462.703862538396,8297.699869659546
4462.727070913639,8092.319825569248
4462.750279409578,7651.431907881342
4462.773488026214,7154.819893823512
4462.796696763546,6525.492537927616
