wave,flux
4450.003811362098,8587.216358416461
4450.026953690486,8744.601051191948
4450.050096139227,8754.77205126549
4450.073238708321,8745.617223025529
4450.096381397769,8476.197398673647
4450.119524207569,8365.372383901615
4450.142667137726,8006.7256889986
4450.165810188237,7660.449547940306
4450.188953359103,7228.01647495917
4450.212096650326,6823.90657353765
4450.2352400619075,6407.926273529287
4450.258383593846,5863.943162932664
4450.281527246142,5306.706834558551
4450.304671018797,4778.125398128196
4450.327814911813,4230.255699195707
4450.350958925188,3787.4158061923345
4450.374103058924,3335.957313084608
4450.3972473130225,2918.7101024188346
4450.420391687483,2665.490678180644
4450.443536182305,2456.821862773573
4450.466680797492,2354.7370786566808
4450.489825533042,2279.8086787546163
4450.512970388957,2218.34967056744
4450.536115365237,2324.106521747385
4450.559260461882,2480.267674778731
4450.582405678895,2711.364830616041
4450.605551016274,2983.4821137796757
4450.628696474022,3252.6365901971926
4450.651842052138,3699.0511880578883
4450.674987750623,4132.224913559716
4450.698133569476,4584.7836259310125
4450.721279508702,4655.1913892101165
4450.744425568297,4978.423087208479
4450.767571748264,5112.470755428191
4450.790718048604,5205.121745755073
4450.813864469315,5410.065286210623
4450.837011010401,5484.634291219092
4450.86015767186,5663.990457949409
4450.883304453694,5867.716053758561
4450.906451355903,6319.380886363804
4450.929598378489,6568.346554308287
4450.95274552145,6949.059149210821
4450.975892784789,7406.436183725911
4450.999040168505,7858.7614109326805
4451.022187672601,8401.3099450693
4451.045335297074,8897.605579123752
4451.068483041929,9394.964219547146
4451.091630907163,9779.04453959387
4451.114778892777,10081.390331593706
4451.137926998774,10267.97520978967
4451.161075225153,10351.15323563547
4451.184223571914,10386.393203487245
4451.207372039059,10269.743756847902
4451.230520626587,10121.03374792494
4451.253669334501,10061.84453307063
4451.2768181628,9837.318507155636
4451.299967111485,9490.678315984249
4451.323116180556,9373.964029471108
4451.346265370014,8973.064481146032
4451.369414679861,8519.644480394636
4451.392564110095,8176.608476536597
4451.415713660719,7652.396997204997
4451.438863331732,7256.73741397275
4451.462013123136,6829.160791359951
4451.48516303493,6234.472875195782
4451.508313067117,5874.838706976227
4451.531463219695,5471.808699318684
4451.554613492666,5104.077158036144
4451.577763886031,4811.5451214748855
4451.60091439979,4611.939927692816
4451.624065033943,4562.498074993127
4451.647215788492,4774.199383744571
4451.670366663436,5058.917241956206
4451.693517658777,5547.048136262816
4451.716668774516,6169.940590528935
4451.739820010652,6798.252585237016
4451.762971367186,7271.232646636563
4451.78612284412,7886.821648157509
4451.8092744414525,8166.154329117538
4451.832426159187,8283.584564236944
4451.855577997321,8375.46747621365
4451.878729955857,8322.318251325942
4451.901882034796,8216.964139818188
4451.925034234137,8124.56127397496
4451.948186553881,7918.004976551155
4451.97133899403,7427.9934871412
4451.994491554583,7164.831718261726
4452.017644235542,7208.734574984636
4452.040797036907,7223.093998527681
4452.063949958678,7220.290981580406
4452.087103000857,7352.080744380581
4452.1102561634425,7767.409305100093
4452.133409446437,8224.564383796765
4452.156562849841,8633.504456994204
4452.179716373655,9041.232443019146
4452.202870017878,9387.574244250109
4452.226023782513,9731.066746905652
4452.24917766756,9995.610031138178
4452.272331673018,10169.362335072914
4452.29548579889,10204.99849864592
4452.318640045174,10267.411939952472
4452.341794411874,10322.252230320893
4452.364948898987,10180.766250880146
4452.388103506516,10175.779581107136
4452.4112582344615,9939.215249204772
4452.434413082823,9760.382273501573
4452.457568051602,9464.090012337201
4452.480723140799,9166.9670910913
4452.503878350413,9016.770724796706
4452.527033680448,8606.00038301148
4452.550189130902,8384.151838144631
4452.5733447017765,8067.235339736868
4452.596500393071,7609.899398535003
4452.619656204789,7233.067775727423
4452.642812136928,7012.534309899338
4452.66596818949,6754.291248340554
4452.689124362475,6620.49442954673
4452.7122806558855,6504.350938047908
4452.735437069719,6434.440058759893
4452.7585936039795,6339.820278244417
4452.781750258665,6392.778289173228
4452.804907033777,6532.03354342226
4452.828063929317,6757.260068536088
4452.851220945285,6792.574957529304
4452.87437808168,6949.002283497621
4452.897535338506,7175.539191935582
4452.92069271576,7371.758499865949
4452.943850213445,7406.539067373027
4452.967007831562,7286.90102485952
4452.99016557011,7179.7528935423525
4453.01332342909,6970.46570934546
4453.036481408502,6852.241364332793
4453.059639508349,6879.296570779131
4453.08279772863,6757.294835081802
4453.105956069345,6761.47664672264
4453.129114530496,6912.520227102253
4453.152273112083,6957.451610556322
4453.175431814107,7007.2581762929985
4453.198590636567,6981.313997755262
4453.221749579466,6998.88841037298
4453.244908642802,6822.801271811263
4453.268067826579,6696.117821594264
4453.291227130795,6532.947822029208
4453.314386555451,6415.861550704024
4453.337546100549,6283.187582981539
4453.360705766087,6224.537777386843
4453.3838655520685,6383.661658475414
4453.407025458493,6705.875791429081
4453.430185485361,7049.7646586250785
4453.453345632673,7529.551735342533
4453.476505900429,7904.9090758055045
4453.4996662886315,8284.787935720842
4453.52282679728,8499.781223557797
4453.545987426375,8699.572190190354
4453.569148175917,8807.50928185474
4453.592309045907,8782.746251694958
4453.615470036346,8733.638401684226
4453.638631147233,8447.113800740284
4453.661792378571,8344.6607644266
4453.684953730359,8243.272196958775
4453.708115202598,8133.376277795219
4453.731276795288,8101.482800332991
4453.754438508431,7927.181539342189
4453.777600342027,8015.220896522707
4453.800762296077,8268.772154950213
4453.82392437058,8501.698267736576
4453.847086565538,8725.916566768306
4453.870248880952,9280.515834242056
4453.8934113168225,9618.729190468823
4453.916573873149,9715.906866666079
4453.939736549933,9872.103626699985
4453.962899347174,10010.350461433034
4453.986062264875,10009.363823438533
4454.009225303034,9955.864306002815
4454.032388461654,10046.833049484529
4454.055551740734,9930.997654779816
4454.078715140275,9705.253384294278
4454.101878660277,9452.014917857165
4454.125042300742,9202.583128456037
4454.14820606167,8903.29243024111
4454.171369943061,8379.887363272554
4454.194533944917,7918.940562976731
4454.2176980672375,7536.830735006672
4454.240862310024,7086.169861807761
4454.264026673275,6643.388501747033
4454.287191156994,6073.123758592667
4454.31035576118,5521.789966608209
4454.333520485834,5102.521305885867
4454.356685330957,4634.772314846932
4454.379850296548,4232.248210090119
4454.40301538261,3858.385048326383
4454.426180589142,3607.984800060962
4454.449345916145,3538.2560091734013
4454.4725113636205,3630.095308423076
4454.495676931568,3674.835385040838
4454.5188426199875,3883.952435972996
4454.542008428882,4075.2117414225713
4454.565174358249,4225.8030687378805
4454.588340408092,4237.9794437220025
4454.611506578411,4262.337682182814
4454.634672869205,4130.295471090718
4454.657839280476,3739.466788734541
4454.681005812225,3422.723642638802
4454.704172464451,3037.6341864483347
4454.727339237156,2748.2061085135633
4454.750506130341,2485.4298202692703
4454.773673144005,2352.7841929843594
4454.79684027815,2211.853298138107
4454.820007532776,2285.3484496504975
4454.843174907884,2209.373136899917
4454.866342403473,2415.483237470075
4454.889510019546,2594.477739394089
4454.912677756102,2966.399546896498
4454.935845613144,3215.7357379840673
4454.959013590669,3596.0738946988376
4454.982181688681,3748.8528920220306
4455.005349907178,4067.2611676517054
4455.028518246162,4262.313408537084
4455.051686705633,4396.45010730576
4455.074855285593,4496.102894214226
4455.098023986041,4599.381462455565
4455.121192806979,4887.053844189316
4455.144361748406,5190.812406609938
4455.167530810323,5381.113737016101
4455.190699992732,5580.755712694207
4455.213869295633,5753.23022078711
4455.237038719026,5746.9073036215705
4455.260208262912,5700.969243354178
4455.283377927292,5615.121669867392
4455.306547712166,5639.536302251263
4455.329717617535,5457.155685989838
4455.352887643399,5468.261600713943
4455.37605778976,5667.809612091621
4455.399228056617,5871.739753695263
4455.422398443972,6331.276153456166
4455.445568951825,6763.905408804212
4455.468739580177,7312.412725671462
4455.491910329028,7840.800610766593
4455.515081198378,8102.928528891722
4455.538252188229,8191.973035333892
4455.561423298582,8227.00477090558
4455.584594529436,8240.878289611323
4455.607765880793,7871.387434053482
4455.630937352652,7566.153385308552
4455.654108945016,7259.402187398151
4455.677280657883,6731.359900593034
4455.700452491255,6270.462719345326
4455.723624445134,5821.0158740857005
4455.746796519518,5462.520001397198
4455.7699687144095,5022.0882673955075
4455.793141029808,4560.480957635888
4455.816313465714,4292.950198562343
4455.83948602213,4005.178988329563
4455.862658699055,3707.6892093190745
4455.885831496489,3593.2073151819563
4455.909004414434,3592.208919025755
4455.932177452891,3632.48092824845
4455.955350611858,3911.0216419091075
4455.978523891339,4310.972407751681
4456.001697291333,4774.313964501469
4456.024870811841,5316.8999138311165
4456.048044452862,5926.544797303835
4456.071218214399,6603.094409066801
4456.094392096451,7121.16936552985
4456.117566099019,7466.670746177685
4456.140740222105,7652.816306022443
4456.163914465707,7663.881997747575
4456.187088829828,7570.96788734375
4456.210263314468,7514.362294521983
4456.233437919626,7300.678891027247
4456.256612645306,6981.55824846898
4456.279787491505,6820.467836393323
4456.302962458226,6350.3977879930735
4456.326137545469,5989.742408391258
4456.349312753233,5549.469382607752
4456.372488081522,5247.388774293197
4456.395663530333,5037.934695546577
4456.41883909967,4900.824474476105
4456.442014789531,4886.716501669042
4456.465190599917,4941.426641003286
4456.488366530831,5152.890009153229
4456.5115425822705,5343.491543116628
4456.5347187542375,5491.115308164929
4456.557895046733,5572.4540766478485
4456.581071459757,5680.288579629213
4456.604247993311,5668.551041736795
4456.627424647395,5657.310501459529
4456.650601422009,5623.983412780475
4456.673778317154,5730.6184793886605
4456.696955332832,5882.34631680096
4456.720132469041,6136.575430526161
4456.7433097257845,6667.478586152374
4456.766487103061,7108.960089499145
4456.789664600872,7621.7292886191735
4456.8128422192185,7917.215300135303
4456.8360199581,8391.388878889384
4456.859197817518,8507.251760950363
4456.882375797473,8629.860907820961
4456.905553897966,8638.977469873811
4456.928732118997,8704.672678400872
4456.951910460566,8509.658717168879
4456.975088922674,8283.025410897195
4456.998267505323,8092.61733688282
4457.021446208513,8111.128745770905
4457.044625032244,7958.6673644546645
4457.067803976516,7921.368082637651
4457.090983041332,7776.618458544865
4457.1141622266905,7696.361727737779
4457.1373415325925,7754.051612709644
4457.160520959039,7802.552209032432
4457.183700506031,7794.561856113851
4457.206880173568,7949.8102919668545
4457.230059961651,7915.312643230042
4457.2532398702815,7746.399257685392
4457.27641989946,7546.726628132065
4457.299600049186,7350.5488993561785
4457.322780319461,6839.941509509915
4457.345960710286,6387.846223186619
4457.36914122166,5908.316605853605
4457.392321853586,5541.792115135566
4457.415502606062,5161.137380213297
4457.43868347909,4751.0847175075905
4457.461864472672,4542.1630704648105
4457.485045586805,4259.5497617351975
4457.508226821494,4268.2402960472255
4457.5314081767365,4467.362088354738
4457.554589652534,4730.734286297631
4457.577771248887,5096.936461598954
4457.600952965797,5546.790297775414
4457.624134803263,6088.300312239842
4457.647316761288,6628.4646249928
4457.67049883987,7151.892750194065
4457.693681039011,7701.454808582615
4457.716863358712,8108.6984071392135
4457.7400457989725,8346.868670945136
4457.763228359793,8611.08300124515
4457.7864110411765,8695.345285043832
4457.809593843121,8567.21473278541
4457.832776765628,8414.110028102448
4457.855959808699,8225.623053603975
4457.879142972333,8154.73603230709
4457.902326256532,7913.176644434685
4457.925509661296,7677.28027614658
4457.948693186626,7379.9068560126
4457.971876832522,7007.977666877181
4457.995060598985,6714.379465283936
4458.018244486016,6349.4128621307045
4458.041428493615,5850.522823688202
4458.0646126217825,5503.765700565042
4458.08779687052,5166.3205021484155
4458.110981239827,4928.614828700766
4458.134165729705,4699.316794978889
4458.157350340155,4531.01024510697
4458.180535071177,4568.84924289272
4458.203719922771,4680.24242705276
4458.226904894938,4785.8698293378075
4458.2500899876795,4960.063569101988
4458.273275200995,5156.212920152528
4458.296460534886,5297.95875746747
4458.3196459893525,5403.546099267611
4458.342831564396,5568.670429725777
4458.366017260016,5941.398086180767
4458.389203076214,6338.460837452468
4458.4123890129895,6535.191982418857
4458.435575070344,6693.314935541043
4458.458761248279,6898.821203579887
4458.481947546794,6882.156200899175
4458.505133965889,6963.8784797462995
4458.528320505566,6839.1748482819
4458.551507165825,6635.980720824682
4458.574693946666,6683.595346723398
4458.597880848091,6867.1418199147365
4458.6210678701,7205.863933667035
4458.644255012693,7589.8577425731255
4458.6674422758715,8014.6983611261185
4458.690629659636,8475.13926408609
4458.713817163986,8662.771866761666
4458.737004788924,8729.679538576796
4458.76019253445,8901.933300677572
4458.783380400563,8707.41175821238
4458.8065683872655,8428.38983314789
4458.829756494558,8067.471589379618
4458.85294472244,7731.981261321337
4458.876133070914,7222.679847923596
4458.899321539979,6795.084533412082
4458.922510129635,6187.988193722901
4458.945698839884,5614.923704878523
4458.968887670727,5093.8790184204
4458.992076622164,4561.558549503826
4459.015265694195,4036.0468102232944
4459.0384548868215,3479.7920134190254
4459.061644200044,3014.3872143668614
4459.084833633862,2678.9359015466225
4459.108023188278,2410.0277750482874
4459.131212863292,2261.0957302570155
4459.154402658904,2262.9193297998813
4459.177592575114,2302.3195964972906
4459.200782611925,2461.193505446091
4459.223972769336,2772.004998602192
4459.247163047347,3071.992756640228
4459.27035344596,3489.2713237346907
4459.293543965176,3878.583017610678
4459.316734604993,4277.896395053742
4459.339925365414,4750.286435169938
4459.363116246439,5130.8507719576855
4459.386307248069,5452.972891022387
4459.409498370304,5805.305381387795
4459.432689613145,6155.46774213748
4459.455880976592,6643.52439377151
4459.479072460647,7144.374394689155
4459.502264065309,7600.478537808845
4459.52545579058,7935.41806963299
4459.5486476364595,8275.071794295476
4459.571839602949,8564.940014201024
4459.595031690048,8650.616972736674
4459.618223897759,8617.933504159224
4459.641416226081,8622.893822864427
4459.664608675014,8427.942023281155
4459.687801244561,8186.977940257156
4459.710993934721,7961.621474943611
4459.734186745496,7795.009301907296
4459.757379676885,7524.939210084979
4459.780572728889,7441.092609246787
4459.803765901509,7439.091326459536
4459.8269591947455,7452.960604621723
4459.850152608599,7690.161515185802
4459.87334614307,7916.831111669772
4459.89653979816,8261.968051592241
4459.91973357387,8524.081070146296
4459.942927470198,8745.472629873637
4459.966121487147,8712.910139037842
4459.989315624717,8630.928378476907
4460.0125098829085,8383.281572678145
4460.035704261722,8137.246111468952
4460.058898761158,7792.5818601496585
4460.082093381218,7443.543664536241
4460.105288121902,6979.38746966502
4460.12848298321,6572.293615769329
4460.151677965145,6059.391940776869
4460.1748730677045,5484.998405196588
4460.198068290891,5147.889223147838
4460.221263634704,4692.165179470222
4460.244459099145,4405.109712509554
4460.267654684215,4250.899274304136
4460.290850389914,4206.862852652221
4460.314046216243,4451.4720025045535
4460.337242163202,4664.423259475353
4460.360438230791,5133.17928638148
4460.383634419013,5728.545742707546
4460.406830727867,6422.126013734163
4460.430027157354,6976.336660393754
4460.453223707474,7623.194850906322
4460.476420378228,8194.931202543115
4460.499617169617,8732.504534337895
4460.522814081641,9082.084118964674
4460.5460111143,9430.91948449211
4460.569208267598,9878.355970480774
4460.592405541532,9873.749505560667
4460.615602936104,9916.345824019312
4460.638800451314,9996.61368483148
4460.661998087163,10015.948965299158
4460.685195843652,9994.698011492537
4460.708393720782,10013.187492269268
4460.731591718552,9733.234637049867
4460.754789836965,9793.067882400741
4460.777988076019,9431.952703042283
4460.801186435716,9411.118021472368
4460.824384916057,9085.310599611008
4460.847583517042,9000.466582319359
4460.870782238671,8873.650663485876
4460.893981080947,8693.972262193836
4460.917180043868,8250.117192887958
4460.940379127435,8117.902585933428
4460.963578331651,7716.785756208185
4460.986777656513,7334.699560686227
4461.009977102025,6835.944893374646
4461.033176668186,6358.317781585876
4461.056376354995,5895.023663248889
4461.079576162457,5273.472992745494
4461.102776090568,4764.840391901661
4461.125976139332,4384.284066590713
4461.149176308748,3965.682230286585
4461.172376598816,3687.139462319041
4461.195577009538,3470.828153832195
4461.218777540915,3315.8490054667027
4461.241978192946,3320.1856595130826
4461.265178965633,3306.578943123356
4461.2883798589755,3517.1573442051586
4461.311580872974,3587.2373697823805
4461.3347820076315,3609.193261016914
4461.357983262946,3706.719605464364
4461.381184638919,3712.635407894432
4461.404386135551,3676.238460926429
4461.4275877528435,3531.8229430339256
4461.4507894907965,3366.4886611727234
4461.4739913494095,3290.623397622973
4461.497193328685,3109.448657066673
4461.520395428623,2874.669619959798
4461.543597649224,2854.9462345034526
4461.566799990488,2809.904989950996
4461.590002452416,2691.3608545283823
4461.61320503501,2612.1886293873395
4461.636407738269,2573.903973678881
4461.659610562193,2470.6736071558016
4461.682813506784,2401.8274181084284
4461.706016572044,2424.937580429717
4461.729219757971,2464.2780422252945
4461.752423064566,2713.8137887129556
4461.775626491831,2981.4321512287715
4461.798830039766,3382.255035827756
4461.82203370837,3759.3895884734757
4461.845237497647,4143.17091284445
4461.868441407595,4416.271867425952
4461.891645438215,4548.919846004361
4461.914849589509,4604.055244034068
4461.938053861475,4627.219966607923
4461.961258254117,4450.056511589099
4461.984462767433,4327.422611253465
4462.007667401424,4256.865356633975
4462.030872156092,4060.163952056698
4462.0540770314365,4042.5703333446418
4462.077282027459,4228.331694207398
4462.100487144158,4492.952878071204
4462.123692381537,4864.409789810302
4462.146897739594,5315.397749144019
4462.170103218332,5635.055552813329
4462.19330881775,5993.888898704274
4462.21651453785,6257.707724660486
4462.239720378631,6371.83543919163
4462.262926340095,6360.992840875808
4462.286132422241,6252.085348223872
4462.309338625071,6211.487915352537
4462.3325449485865,6294.776896752482
4462.355751392785,6030.871859578517
4462.3789579576705,5904.014634736257
4462.402164643242,5819.14099321805
4462.4253714495,5669.077804262281
4462.448578376446,5565.706302185543
4462.471785424079,5484.2804670150645
4462.494992592401,5493.090056140688
4462.518199881412,5732.653016320978
4462.541407291114,5967.820257704828
4462.564614821506,6539.328478943794
4462.587822472589,7032.113369095371
4462.611030244365,7555.758887799507
4462.634238136832,8030.705017726248
4462.657446149992,8286.331451465025
4462.680654283847,8598.605909902208
4462.703862538396,8671.757250836043
4462.727070913639,8466.859868030184
4462.750279409578,8331.789760913041
4462.773488026214,8196.978311772715
4462.796696763546,8028.184585763349
4462.819905621575,7760.657084271099
