wave,flux
5000.025812696027,9503.484999197759
5000.051815424163,8933.070358333656
5000.0778182875265,8362.91107493657
5000.103821286119,7774.183456048177
5000.12982441994,7377.332265408121
5000.155827688991,6823.587858935474
5000.181831093272,6387.570129536661
5000.207834632784,6142.606553712805
5000.2338383075285,6158.042691845878
5000.259842117506,6431.104082737126
5000.285846062716,6852.709617592135
5000.311850143161,7389.475177516579
5000.33785435884,8109.911506702305
5000.363858709754,8874.965471922334
5000.389863195905,9363.019906989059
5000.415867817292,9694.245794359846
5000.441872573917,9861.945630392518
5000.4678774657805,9937.40565607837
5000.493882492882,9593.701769058627
5000.519887655224,9297.427241518733
5000.545892952806,8958.745413603503
5000.571898385629,8561.48543147656
5000.597903953694,8210.24226977943
5000.623909657001,7984.5542765713335
5000.649915495552,7957.3186058222855
5000.675921469346,8060.511937120309
5000.701927578384,8327.451799785858
5000.727933822669,8661.294716531544
5000.7539402021985,8798.514902835168
5000.779946716975,8822.144068061973
5000.805953366999,8764.470345414104
5000.831960152272,8896.91995895423
5000.857967072792,8954.404566989168
5000.883974128563,9090.324205739318
5000.9099813195835,9345.797364175143
5000.935988645855,9758.489710550904
5000.961996107378,10133.09845754165
5000.988003704153,10573.64227370605
5001.014011436181,10805.441055676403
5001.040019303464,10873.994286155978
5001.066027306,10884.791869169565
5001.092035443791,10806.510315361566
5001.118043716839,10774.33648425796
5001.1440521251425,10740.878040843085
5001.170060668704,10547.590611869982
5001.196069347523,10461.931667216988
5001.222078161601,10437.629417404201
5001.248087110937,10187.29699135288
5001.274096195534,10000.651938806119
5001.300105415392,9637.732126226056
5001.326114770512,9539.368574670294
5001.352124260892,9289.88949653725
5001.3781338865365,9103.375762148107
5001.4041436474445,9046.697276736028
5001.430153543616,9142.390520665713
5001.456163575053,9230.586686240491
5001.482173741756,9125.239854883239
5001.508184043724,8903.545112202384
5001.534194480961,8654.991378211604
5001.560205053464,8223.808633212933
5001.586215761236,7569.551444684075
5001.612226604278,6912.312429913445
5001.638237582589,6226.103530003408
5001.664248696171,5559.897852104448
5001.690259945024,4812.224512948913
5001.716271329149,4417.038785236586
5001.742282848547,4316.721290340618
5001.768294503218,4391.80318570832
5001.794306293164,4890.8451118910625
5001.820318218383,5610.101201939387
5001.84633027888,6450.5187373873005
5001.872342474651,7487.324601022708
5001.8983548056995,8477.565765253486
5001.924367272026,9284.542236785288
5001.9503798736305,10010.305319324116
5001.976392610514,10574.978047834971
5002.002405482678,10919.68349263183
5002.028418490122,11108.546430634755
5002.054431632847,11170.903563294036
5002.080444910854,11307.425931491842
5002.106458324142,11294.945668465856
5002.1324718727155,11461.26890213995
5002.158485556572,11403.625381726415
5002.184499375713,11421.475610048326
5002.210513330139,11235.315956212875
5002.236527419852,11250.968195430652
5002.262541644852,11140.690121111164
5002.288556005138,10986.50068121814
5002.314570500714,10838.594753989108
5002.340585131577,10575.675869494848
5002.36659989773,10438.71048585688
5002.392614799174,10287.121774710758
5002.418629835909,9873.9233231523
5002.444645007936,9630.19589867528
5002.4706603152545,9403.195089885667
5002.496675757866,8960.221280706097
5002.522691335772,8490.794337732694
5002.548707048972,8166.7020329276675
5002.574722897468,7641.74820627062
5002.600738881259,7123.398288065204
5002.626755000347,6610.502603852678
5002.652771254732,6323.261809164484
5002.678787644415,6305.124762245546
5002.704804169397,6545.305423304488
5002.730820829678,7046.793151029386
5002.75683762526,7809.944649253733
5002.782854556142,8782.367979794222
5002.8088716223265,9683.391183544207
5002.834888823812,10292.259546861405
5002.860906160601,10784.595822263364
5002.886923632695,11216.805707816553
5002.912941240092,11410.6246321115
5002.938958982793,11544.866115528424
5002.9649768608015,11546.814407629614
5002.990994874116,11606.217830182637
5003.017013022737,11622.036514842579
5003.043031306666,11585.663650222108
5003.069049725905,11505.531427092656
5003.095068280452,11500.671329625417
5003.121086970309,11611.829858837273
5003.147105795477,11532.936393150587
5003.173124755956,11528.831047541165
5003.199143851748,11554.146884702477
5003.225163082852,11452.310525691946
5003.251182449269,11395.316698398963
5003.277201951001,11357.783950994324
5003.3032215880485,11303.843077876269
5003.32924136041,11193.207605740945
5003.35526126809,11101.512064123359
5003.381281311085,11089.163026533142
5003.407301489398,11035.499884555735
5003.433321803031,10789.680626605033
5003.459342251982,10661.77565916649
5003.4853628362525,10535.770099086341
5003.511383555844,10183.218160978277
5003.537404410757,9850.023667643374
5003.563425400991,9452.157446172016
5003.589446526548,9082.837629040236
5003.615467787429,8883.846130510134
5003.641489183634,8847.571986695411
5003.667510715163,8883.94730432153
5003.693532382018,9106.749516155925
5003.719554184199,9416.805550715217
5003.745576121707,9600.558804637549
5003.771598194542,9765.661848758673
5003.797620402706,9550.06525584906
5003.823642746199,9386.640632915694
5003.849665225021,9139.593085245117
5003.875687839174,8717.604276311864
5003.901710588658,8387.965518981904
5003.927733473473,8365.977341513595
5003.953756493622,8369.493034321826
5003.979779649103,8669.131840464648
5004.005802939919,9030.940449197305
5004.031826366068,9481.180612952596
5004.057849927553,9842.795028750867
5004.083873624375,10052.787575520888
5004.109897456533,10220.273871324742
5004.135921424028,10218.19342315058
5004.161945526862,10191.835832696672
5004.187969765035,10339.105725129391
5004.213994138547,10398.941479847888
5004.240018647399,10376.119291485516
5004.266043291592,10360.327330247868
5004.292068071127,10571.916310379567
5004.318092986004,10801.592711319645
5004.344118036223,11143.02283717906
5004.370143221788,11209.256730680345
5004.396168542696,11449.013656417312
5004.422193998949,11535.075777410526
5004.448219590549,11533.43068370532
5004.474245317495,11531.738056947803
5004.500271179789,11441.851634535476
5004.52629717743,11519.008479321785
5004.5523233104195,11519.821271842955
5004.578349578759,11421.118493091917
5004.604375982449,11443.776085171245
5004.630402521489,11372.12458258496
5004.656429195881,11153.823304770433
5004.682456005625,10990.795984202314
5004.708482950721,10860.074666589624
5004.734510031172,10710.40689124098
5004.760537246977,10396.80498865733
5004.7865645981365,10124.338801435726
5004.812592084652,9938.718733943102
5004.838619706525,9735.49056659528
5004.8646474637535,9451.153380843807
5004.890675356341,9218.234264398116
5004.916703384286,8821.781674150792
5004.942731547591,8349.92472849653
5004.968759846256,7758.47395273549
5004.994788280281,7264.216883985385
5005.020816849668,6850.415521055207
5005.046845554417,6536.441142055361
5005.072874394528,6661.980315779089
5005.098903370003,7153.439747510324
5005.124932480842,7752.45056349536
5005.150961727047,8472.005481673914
5005.176991108617,9220.88583790908
5005.203020625552,9847.227392479734
5005.229050277856,10079.110261333963
5005.255080065526,10207.568727783177
5005.281109988566,10197.234446542594
5005.3071400469735,10037.644632808971
5005.333170240751,9609.100844583336
5005.3592005699,9209.747815816057
5005.38523103442,8694.623453849372
5005.411261634312,8160.626197522416
5005.4372923695755,7518.514705782164
5005.463323240213,6908.789330828617
5005.489354246225,6211.3979214491665
5005.515385387611,5585.6930615799765
5005.541416664373,5080.910122456876
5005.567448076511,4625.70234259234
5005.593479624025,4310.947780508057
5005.619511306918,4344.673538952752
5005.645543125189,4725.155818640057
5005.671575078838,5250.062336908125
5005.697607167867,5888.370230180892
5005.723639392277,6304.203435364393
5005.749671752068,6661.613697017619
5005.77570424724,6778.693753678394
5005.8017368777955,6795.709103426057
5005.8277696437335,6360.729090011156
5005.853802545055,5980.588177534233
5005.879835581762,5398.8807063323575
5005.905868753854,4731.985997886277
5005.931902061331,4199.027511929248
5005.957935504196,3725.163903264573
5005.983969082448,3504.43939146124
5006.010002796088,3588.6027187895597
5006.036036645117,3847.1477719939867
5006.062070629536,4412.099049327133
5006.088104749344,5159.632482101321
5006.114139004544,6051.0018386282845
5006.140173395135,7153.336994127896
5006.166207921118,8184.984433167655
5006.192242582495,9094.199688739287
5006.218277379266,9780.966758335104
5006.244312311431,10343.690198095657
5006.270347378991,10664.869322035516
5006.296382581946,10955.738797416428
5006.322417920299,11102.339457326689
5006.348453394048,11285.584782764048
5006.374489003196,11251.882359938345
5006.400524747743,11046.320762598125
5006.426560627688,11145.470676658153
5006.452596643034,11157.838610288833
5006.47863279378,11242.226462507591
5006.504669079928,11166.817096594445
5006.530705501478,11031.986361389685
5006.556742058431,11041.728812139127
5006.582778750788,11063.829718124955
5006.608815578549,11095.348068281222
5006.634852541715,11094.79705409434
5006.660889640287,10976.816529778032
5006.686926874265,10973.23428809151
5006.71296424365,11026.20611341871
5006.739001748444,10831.452419865156
5006.765039388645,10587.101527322824
5006.791077164256,10305.237274595242
5006.817115075277,10143.483058121901
5006.843153121708,9672.035339381322
5006.869191303552,9389.46393038847
5006.895229620806,8817.076927496086
5006.921268073474,8243.759436061302
5006.947306661555,7512.13796518805
5006.97334538505,6909.804320071742
5006.999384243961,6147.102254822355
5007.025423238286,5355.902301398583
5007.051462368028,4617.126931723738
5007.077501633187,4062.2621634446737
5007.103541033764,3771.7883579154795
5007.129580569759,3755.0104054916533
5007.155620241173,4070.1047559663893
5007.181660048007,4672.002213884037
5007.207699990262,5421.107421961383
5007.233740067937,6330.065345158243
5007.259780281035,7405.0645567626
5007.285820629555,8338.02709951448
5007.311861113499,9094.788273539292
5007.337901732866,9900.735691555996
5007.363942487658,10378.48939778013
5007.389983377876,10731.605182825435
5007.41602440352,10890.26726914703
5007.442065564591,11021.527085649288
5007.468106861089,10932.080272525887
5007.494148293015,10787.147686738204
5007.520189860371,10605.492618520126
5007.546231563156,10406.77063780557
5007.572273401372,10225.469843267101
5007.598315375018,10046.618786713118
5007.624357484096,10060.031834356481
5007.650399728607,10197.413938901058
5007.676442108551,10476.851921458865
5007.702484623929,10809.76580508971
5007.728527274741,11188.576787132895
5007.754570060989,11499.88849560009
5007.780612982673,11597.731889624809
5007.806656039793,11760.228744992097
5007.832699232351,11773.460838714871
5007.858742560347,11817.627788953572
5007.884786023782,11830.315162846944
5007.910829622656,11753.975901479536
5007.936873356971,11851.580841688732
5007.962917226726,11938.413163450055
5007.988961231923,11934.168382727119
5008.015005372563,11990.86642400209
5008.041049648646,11871.833511352965
5008.067094060171,12039.47569494464
5008.0931386071425,12026.8569832027
5008.119183289558,12014.524894738157
5008.14522810742,12062.898854481868
5008.171273060728,12058.031223862414
5008.197318149483,12079.827948025959
5008.223363373687,12123.706462115857
5008.249408733339,12201.936894489265
5008.27545422844,12196.544630885246
5008.301499858992,12032.330770800058
5008.327545624995,11881.260580158518
5008.353591526448,11813.958287479803
5008.379637563355,11732.88124521262
5008.405683735714,11559.49277204884
5008.431730043527,11376.62415921977
5008.457776486794,11186.595844972902
5008.483823065515,11124.689452856956
5008.509869779693,11115.373655677864
5008.535916629327,11135.404477180547
5008.561963614418,11164.906938933886
5008.588010734968,11363.007708717694
5008.614057990975,11603.502413667036
5008.640105382442,11749.298566191097
5008.666152909369,11862.995488174036
5008.692200571756,11862.758430737707
5008.718248369605,11888.078675573335
5008.744296302916,11857.511321905917
5008.77034437169,11952.167433480152
5008.796392575927,12093.67432185798
5008.822440915628,12059.251638746424
5008.848489390794,11962.954173096974
5008.874538001426,11987.558379672242
5008.900586747524,12013.538869068117
5008.926635629089,11956.44621724809
5008.952684646122,11993.783435318512
5008.978733798623,12045.743095673466
5009.004783086593,11988.26745181668
5009.030832510033,12025.127387537841
5009.056882068944,12012.238544281045
5009.082931763326,12042.95830584744
5009.108981593179,11914.360894131663
5009.135031558506,11958.204528813407
5009.161081659306,12032.77563521309
5009.187131895579,12024.461973279762
5009.213182267327,11970.249018325267
5009.239232774552,11838.119190306625
5009.265283417251,11599.65283252905
5009.291334195428,11506.672717235997
5009.317385109083,11394.5501569275
5009.343436158216,11243.01344432237
5009.369487342828,11122.227916435659
5009.395538662919,10993.612927290305
5009.421590118491,10791.713373159379
5009.447641709544,10559.154337433565
5009.473693436078,10376.416789431818
5009.499745298095,10227.832211556546
5009.525797295596,10088.41249671124
5009.55184942858,9993.79123672268
5009.577901697049,10138.849764050643
5009.603954101003,10531.142303461123
5009.630006640443,10748.090928355183
5009.65605931537,10825.315050941339
5009.682112125784,11032.324832129603
5009.708165071686,11142.903657894329
5009.7342181530785,10819.72117702784
5009.760271369959,10610.802315592067
5009.78632472233,10190.71247278668
5009.812378210192,9855.813913653696
5009.838431833546,9259.147137007672
5009.864485592391,8945.065550395602
5009.890539486731,8426.416556000211
5009.916593516564,8038.083286072987
5009.942647681891,7821.154468319199
5009.968701982713,7629.200311161746
5009.994756419032,7563.297378988242
5010.020810990847,7536.867354539237
5010.046865698159,7338.652975503889
5010.072920540969,7084.361945113096
5010.098975519279,7163.814408715862
5010.125030633087,7435.784918307419
5010.151085882395,7789.218527719645
5010.177141267204,8469.122087778884
5010.2031967875155,9309.075215685001
5010.229252443328,10003.556467523204
5010.255308234644,10511.782608613841
5010.281364161464,10965.27856386834
5010.307420223788,11446.579165376126
5010.333476421617,11644.389320549066
5010.359532754951,11824.827617534445
5010.3855892237925,12036.874537246384
5010.4116458281405,11953.97626216337
5010.437702567997,11956.961684607484
5010.463759443362,12050.573850945953
5010.489816454236,12051.236935514216
5010.51587360062,11937.115508702731
5010.541930882514,11789.166719283678
5010.56798829992,11602.611810915669
5010.5940458528385,11481.137545512442
5010.62010354127,11181.070472406122
5010.646161365214,10812.44911561615
5010.672219324672,10400.862755604378
5010.698277419646,9927.51661281046
5010.724335650135,9506.04066355934
5010.7503940161405,9062.868372164545
5010.7764525176635,8635.16715645834
5010.802511154703,8335.239983807696
5010.828569927262,8318.12436593301
5010.85462883534,8640.621968380037
5010.880687878937,9131.783509185136
5010.906747058056,9768.919297748502
5010.932806372695,10401.095082589021
5010.958865822856,10902.836916899658
5010.98492540854,11371.734521090575
5011.0109851297475,11532.857275393833
5011.0370449864795,11739.395253790844
5011.063104978735,11792.866483458036
5011.089165106517,11919.075339005747
5011.115225369825,11854.091358849904
5011.14128576866,11924.648887369429
5011.167346303022,12020.269042659518
5011.193406972913,11954.807037207951
5011.219467778333,12041.532759589441
5011.2455287192815,12124.73143189773
5011.271589795761,12073.698903640745
5011.297651007772,12100.268257627024
5011.323712355315,11989.415530454657
5011.34977383839,11858.31157811257
5011.375835456999,11724.58527418922
5011.401897211142,11526.05413520476
5011.427959100819,11386.797931799467
5011.454021126031,11184.24981224815
5011.4800832867795,11036.45618869023
5011.506145583065,10762.823624285662
5011.532208014888,10392.025363020352
5011.558270582248,10014.458502265257
5011.584333285148,9754.384068657157
5011.610396123588,9466.878025025979
5011.636459097567,9003.500545045286
5011.662522207088,8734.929725908112
5011.68858545215,8424.420868282226
5011.714648832754,8014.340442561244
5011.740712348902,7662.868855146528
5011.766776000594,7181.192383213543
5011.79283978783,6542.396431022198
5011.818903710611,5854.123998646167
5011.844967768939,5095.884051065355
5011.871031962813,4460.504539908948
5011.897096292234,3742.3808595529185
5011.923160757203,3437.9839660516536
5011.949225357721,3185.289543895073
5011.975290093788,3114.8234545301307
5012.001354965406,3361.851992359126
5012.027419972574,3858.815509370161
5012.053485115294,4561.590602344201
5012.079550393566,5610.130362648656
5012.105615807392,6651.361167639229
5012.13168135677,7307.8512543173465
5012.157747041703,7668.704392443475
5012.183812862192,8051.978737305237
5012.209878818236,8146.9549801373705
5012.235944909837,8029.630997920004
5012.262011136994,7718.169258893505
5012.28807749971,7435.749193027401
5012.3141439979845,7249.762936797583
5012.340210631818,7277.411890643379
5012.366277401212,7532.338684999553
5012.392344306166,7872.772764492267
5012.418411346682,8380.402283066858
5012.44447852276,8838.557205354888
5012.470545834401,9134.997215403288
5012.496613281605,9229.987717116506
5012.522680864374,9231.102864894448
5012.548748582707,9164.774793532457
5012.574816436606,9106.419673819588
5012.600884426071,9347.800347684728
5012.626952551104,9660.477029586511
5012.653020811705,10063.04994189897
5012.679089207873,10516.357285655644
5012.705157739611,10876.161011732127
5012.73122640692,11176.737522221492
5012.757295209798,11351.106282384357
5012.7833641482475,11565.940715085428
5012.80943322227,11609.153231518721
5012.835502431864,11638.764763162713
5012.861571777033,11662.865011762047
5012.887641257775,11588.924696980617
5012.9137108740915,11415.069372027427
5012.939780625984,11170.675503333916
5012.965850513452,10947.312697122765
5012.991920536498,10587.356498206622
5013.017990695121,10200.73694048692
5013.044060989323,9853.91167785249
5013.070131419104,9303.388235012108
5013.096201984464,8736.422071452238
5013.122272685405,8147.119513710753
5013.148343521927,7557.423988507535
5013.17441449403,7181.139569129968
5013.200485601717,7032.941679045585
5013.226556844987,7220.343916348225
5013.2526282238405,7595.830195742383
5013.278699738279,7988.333568953017
5013.304771388303,8388.938588185998
5013.330843173913,8558.506915564207
5013.35691509511,8569.480119142687
5013.382987151894,8329.721166134146
5013.409059344267,7965.9709369890825
5013.435131672228,7492.862577669115
5013.46120413578,6901.170831486336
5013.487276734921,6237.555479104023
5013.513349469653,5770.82672658189
5013.539422339977,5326.299657946782
5013.565495345894,5037.9045739202165
5013.5915684874035,5079.7515188667385
5013.617641764507,5414.067870709104
5013.643715177206,5986.600287658138
5013.6697887254995,6900.6703604972145
5013.695862409389,7583.18647659467
5013.721936228875,8260.379803797887
5013.748010183958,8759.091316041126
5013.77408427464,9094.939743479654
5013.800158500921,9191.706711431607
5013.826232862801,9255.39585188941
5013.852307360281,9109.426205025415
5013.8783819933615,8955.510253722632
5013.904456762045,8653.556891866743
5013.930531666329,8284.234005195634
5013.956606706218,7755.384932276632
5013.982681881709,6920.651641649663
5014.008757192805,6094.311804095029
5014.034832639507,5367.953556330528
5014.060908221814,4742.52285783849
5014.086983939728,4258.584535027046
5014.113059793249,4011.4418065020286
5014.139135782378,4075.080064465143
5014.165211907116,4434.198822888394
5014.1912881674625,5100.84403548199
5014.21736456342,5932.25882510422
5014.243441094988,6917.960424758934
5014.269517762167,7943.519034638355
5014.295594564959,8893.213585219244
