wave,flux
5000.025812696027,54819.946178745566
5000.051815424163,54897.001080750466
5000.0778182875265,54986.61941301063
5000.103821286119,54102.35602404069
5000.12982441994,53188.894426429055
5000.155827688991,52108.17386291403
5000.181831093272,51052.4074762064
5000.207834632784,50610.2434309565
5000.2338383075285,50615.84053827448
5000.259842117506,50895.01878238299
5000.285846062716,51537.6162067665
5000.311850143161,52409.957742458966
5000.33785435884,53328.26292982186
5000.363858709754,54117.32643202183
5000.389863195905,54678.87337984114
5000.415867817292,55243.33006756686
5000.441872573917,56270.553909793794
5000.4678774657805,57177.35153646717
5000.493882492882,57393.51033570095
5000.519887655224,57855.97029290772
5000.545892952806,58346.37481378337
5000.571898385629,58943.69503425157
5000.597903953694,59521.866467541295
5000.623909657001,59802.17726555288
5000.649915495552,59716.76832418628
5000.675921469346,59389.430121288206
5000.701927578384,59296.01928128476
5000.727933822669,58978.25203218533
5000.7539402021985,58491.47451108764
5000.779946716975,57484.35061784569
5000.805953366999,56426.367874245356
5000.831960152272,54866.97253582807
5000.857967072792,52842.07191426099
5000.883974128563,51233.50999567851
5000.9099813195835,49224.414156159015
5000.935988645855,47646.35765482093
5000.961996107378,46847.23688422723
5000.988003704153,46388.19024628028
5001.014011436181,46552.64774656274
5001.040019303464,47269.019222079296
5001.066027306,47760.3337851497
5001.092035443791,48029.231323129956
5001.118043716839,48252.553689322405
5001.1440521251425,47882.583761554335
5001.170060668704,46768.71806293872
5001.196069347523,44903.60321408404
5001.222078161601,42560.11997893899
5001.248087110937,39837.24904730542
5001.274096195534,37248.025999525045
5001.300105415392,34912.8329329481
5001.326114770512,33497.15311207352
5001.352124260892,32797.99492835021
5001.3781338865365,33129.827622702716
5001.4041436474445,34510.102138823895
5001.430153543616,36332.34565147081
5001.456163575053,38749.07367652888
5001.482173741756,41822.94475818405
5001.508184043724,44568.31375283823
5001.534194480961,46998.70989738882
5001.560205053464,50025.601499558325
5001.586215761236,52142.9272420886
5001.612226604278,54181.741338933214
5001.638237582589,56209.09645221092
5001.664248696171,57639.79806157956
5001.690259945024,58855.80328415529
5001.716271329149,59716.675446761
5001.742282848547,60641.581940937
5001.768294503218,61121.26261493546
5001.794306293164,61567.24677019845
5001.820318218383,61936.447520834095
5001.84633027888,61879.256742288715
5001.872342474651,61810.12544815258
5001.8983548056995,62010.91921058166
5001.924367272026,62065.42346569048
5001.9503798736305,61553.8116038889
5001.976392610514,61466.23799110692
5002.002405482678,61086.58515342237
5002.028418490122,60768.511613293806
5002.054431632847,60142.17709046958
5002.080444910854,59585.87543765353
5002.106458324142,58244.0441363701
5002.1324718727155,57085.4574430502
5002.158485556572,55648.73553291925
5002.184499375713,53644.59245118131
5002.210513330139,51823.954807577175
5002.236527419852,50293.78587491714
5002.262541644852,49374.971158752836
5002.288556005138,49272.524851706214
5002.314570500714,49787.41788827912
5002.340585131577,50793.901863147286
5002.36659989773,51820.28089938166
5002.392614799174,53541.388068949906
5002.418629835909,54841.306701134876
5002.444645007936,56540.69810804651
5002.4706603152545,57288.54938622225
5002.496675757866,58899.14620251393
5002.522691335772,59672.01176191299
5002.548707048972,60432.76845238568
5002.574722897468,60997.987211001484
5002.600738881259,61451.780463456635
5002.626755000347,61939.685918745236
5002.652771254732,62150.363870270754
5002.678787644415,62138.49552845951
5002.704804169397,62480.56025522768
5002.730820829678,62800.14010081108
5002.75683762526,62571.84762321477
5002.782854556142,62516.12083801121
5002.8088716223265,62703.21010456408
5002.834888823812,62666.96257362921
5002.860906160601,62429.559237742855
5002.886923632695,62782.91771365482
5002.912941240092,62705.58517336501
5002.938958982793,62597.23242992122
5002.9649768608015,62695.10315935103
5002.990994874116,62714.0389420753
5003.017013022737,62412.308196001555
5003.043031306666,62339.042331640194
5003.069049725905,62187.876209842136
5003.095068280452,62245.33579344867
5003.121086970309,62070.62150099599
5003.147105795477,61645.10323780945
5003.173124755956,61354.00212516262
5003.199143851748,60922.85268354309
5003.225163082852,60716.266227276625
5003.251182449269,60401.3858196411
5003.277201951001,60300.617521024586
5003.3032215880485,60047.654396683596
5003.32924136041,60206.623976706054
5003.35526126809,59777.46845322307
5003.381281311085,59476.357579098
5003.407301489398,58660.2622866668
5003.433321803031,57787.258504657366
5003.459342251982,57024.70077319085
5003.4853628362525,56136.838632050356
5003.511383555844,55738.76486495272
5003.537404410757,55410.447834543935
5003.563425400991,55024.863109470534
5003.589446526548,55169.318157964815
5003.615467787429,55560.943987330575
5003.641489183634,55815.611049983214
5003.667510715163,56235.7579908823
5003.693532382018,56823.35784970202
5003.719554184199,57353.55919900848
5003.745576121707,58050.39824151508
5003.771598194542,58518.621014280994
5003.797620402706,59439.504829969184
5003.823642746199,59677.96864992516
5003.849665225021,60161.471771184835
5003.875687839174,60815.74592423802
5003.901710588658,61229.69415274067
5003.927733473473,61273.747654738494
5003.953756493622,61677.02914958801
5003.979779649103,61943.596100484436
5004.005802939919,62168.470649856354
5004.031826366068,62366.68467785126
5004.057849927553,62393.747028156606
5004.083873624375,62575.49875813896
5004.109897456533,62761.1741932186
5004.135921424028,62946.488795834455
5004.161945526862,63160.15692490784
5004.187969765035,62938.2760431594
5004.213994138547,62602.19362206941
5004.240018647399,62767.69448440564
5004.266043291592,62357.16560495767
5004.292068071127,62185.36009505134
5004.318092986004,61828.27203551839
5004.344118036223,61117.09047245719
5004.370143221788,60878.37925612583
5004.396168542696,60355.15743523339
5004.422193998949,59862.287294939306
5004.448219590549,59044.335058713405
5004.474245317495,57917.03149808081
5004.500271179789,56176.109187472204
5004.52629717743,54031.628918940274
5004.5523233104195,52133.762408960734
5004.578349578759,50012.88874548929
5004.604375982449,47917.90390234384
5004.630402521489,46613.436692379284
5004.656429195881,46222.30618955139
5004.682456005625,46538.118031902006
5004.708482950721,47632.720018839704
5004.734510031172,49016.62185063794
5004.760537246977,50655.05982749504
5004.7865645981365,51986.02068008143
5004.812592084652,53419.8692294859
5004.838619706525,54520.32888783629
5004.8646474637535,55233.19166276883
5004.890675356341,55654.32368622004
5004.916703384286,55756.996519126136
5004.942731547591,55597.1546578633
5004.968759846256,54728.375989406646
5004.994788280281,53249.87477691151
5005.020816849668,51469.8162704584
5005.046845554417,49130.082900540474
5005.072874394528,46171.645874017915
5005.098903370003,42868.665556949585
5005.124932480842,40065.33534907268
5005.150961727047,37773.69364012121
5005.176991108617,35934.562715708606
5005.203020625552,35226.76512990686
5005.229050277856,35506.512325758995
5005.255080065526,36308.18741187406
5005.281109988566,37155.15281947398
5005.3071400469735,38549.78623175055
5005.333170240751,39907.53183492896
5005.3592005699,40495.521180535936
5005.38523103442,40778.87726842286
5005.411261634312,40427.22958723086
5005.4372923695755,39116.554127189374
5005.463323240213,37454.988193625955
5005.489354246225,35560.78548059027
5005.515385387611,33348.78371721532
5005.541416664373,31313.32728393369
5005.567448076511,30067.03706767896
5005.593479624025,29921.55714797011
5005.619511306918,30446.7490342745
5005.645543125189,31746.802979219985
5005.671575078838,33522.10738444784
5005.697607167867,36135.03707043526
5005.723639392277,38836.389416969745
5005.749671752068,42012.2255837842
5005.77570424724,45068.759599661294
5005.8017368777955,47728.80219615892
5005.8277696437335,50271.32563825026
5005.853802545055,52673.29408835162
5005.879835581762,54526.81071158907
5005.905868753854,56113.69385649491
5005.931902061331,57403.75032744367
5005.957935504196,58392.279438031524
5005.983969082448,59312.83952443573
5006.010002796088,60002.27963420584
5006.036036645117,60632.791210336814
5006.062070629536,61161.56890346918
5006.088104749344,61275.19422671745
5006.114139004544,61539.563025394404
5006.140173395135,61450.56993002994
5006.166207921118,61754.081029721216
5006.192242582495,61662.108252579164
5006.218277379266,61438.563110497766
5006.244312311431,61509.51656313324
5006.270347378991,61647.51038645825
5006.296382581946,61166.661836846535
5006.322417920299,61308.422615163465
5006.348453394048,61151.161529442885
5006.374489003196,60493.003695992214
5006.400524747743,60056.4553982299
5006.426560627688,59548.49223907311
5006.452596643034,58689.42761175998
5006.47863279378,57658.80744930159
5006.504669079928,56151.36080487961
5006.530705501478,54338.84430784798
5006.556742058431,52081.494627496606
5006.582778750788,49013.839838873435
5006.608815578549,45844.038597024875
5006.634852541715,42563.09929706169
5006.660889640287,39694.10236197779
5006.686926874265,37287.77214371051
5006.71296424365,35715.8141920399
5006.739001748444,35139.680798788606
5006.765039388645,35636.02025258648
5006.791077164256,36748.29098229169
5006.817115075277,38791.0057095688
5006.843153121708,41245.19995395131
5006.869191303552,43897.42445181704
5006.895229620806,46418.14299789113
5006.921268073474,49069.29827016574
5006.947306661555,51166.58475469255
5006.97334538505,53503.65715139477
5006.999384243961,55288.14935463472
5007.025423238286,56389.17473718938
5007.051462368028,57600.538067052665
5007.077501633187,58333.24956981194
5007.103541033764,58691.5815616038
5007.129580569759,59288.56136025224
5007.155620241173,59548.44709158021
5007.181660048007,59388.42426880539
5007.207699990262,59697.931909634586
5007.233740067937,59813.66571506281
5007.259780281035,60165.08324914123
5007.285820629555,60776.63161839167
5007.311861113499,60884.30066298238
5007.337901732866,61600.369799659245
5007.363942487658,62076.87365109422
5007.389983377876,62274.21894547134
5007.41602440352,62475.764363794275
5007.442065564591,62920.33439679166
5007.468106861089,63030.0414988043
5007.494148293015,63475.73740074541
5007.520189860371,63476.917629608084
5007.546231563156,63329.18034376055
5007.572273401372,63496.10995157803
5007.598315375018,63608.97897497209
5007.624357484096,63690.33376976984
5007.650399728607,63913.71491112725
5007.676442108551,63968.22690938557
5007.702484623929,63745.34474134551
5007.728527274741,63912.981019668165
5007.754570060989,63982.43244420226
5007.780612982673,63929.092127676195
5007.806656039793,63872.597416036646
5007.832699232351,64255.731801807764
5007.858742560347,64057.206693509106
5007.884786023782,63809.61271697261
5007.910829622656,63875.57314494935
5007.936873356971,64017.87879224284
5007.962917226726,63923.238974890846
5007.988961231923,63680.642506844226
5008.015005372563,63432.189346879895
5008.041049648646,62912.23272416195
5008.067094060171,62815.49124195796
5008.0931386071425,62641.60824481482
5008.119183289558,62647.94654035473
5008.14522810742,62645.88331604645
5008.171273060728,62580.96998660884
5008.197318149483,62720.093306212
5008.223363373687,62742.67164330308
5008.249408733339,62921.198507656234
5008.27545422844,63191.7531980263
5008.301499858992,63294.03766681146
5008.327545624995,63449.645291161374
5008.353591526448,63480.0762548347
5008.379637563355,63376.2795960054
5008.405683735714,63407.61302144675
5008.431730043527,63505.70601349345
5008.457776486794,63470.41296184279
5008.483823065515,63357.87574230355
5008.509869779693,63598.09959390304
5008.535916629327,63628.70815092199
5008.561963614418,63930.11863841809
5008.588010734968,63949.10766937577
5008.614057990975,64106.73732015752
5008.640105382442,63870.41231154986
5008.666152909369,63932.2922475051
5008.692200571756,63982.2854631423
5008.718248369605,64115.800209000074
5008.744296302916,64151.834645748255
5008.77034437169,64007.34110257636
5008.796392575927,63910.91758877366
5008.822440915628,63797.52344255913
5008.848489390794,63859.62231110376
5008.874538001426,63842.84627558623
5008.900586747524,63891.16165716691
5008.926635629089,63831.0343765566
5008.952684646122,63535.885367614916
5008.978733798623,63579.712758133064
5009.004783086593,63327.7778502461
5009.030832510033,63315.94135508209
5009.056882068944,63310.657818218475
5009.082931763326,62954.09160295644
5009.108981593179,62773.27778944287
5009.135031558506,62776.734728403804
5009.161081659306,63049.42804952031
5009.187131895579,62660.851555189794
5009.213182267327,62450.47939015159
5009.239232774552,62319.95833629369
5009.265283417251,62339.941847139016
5009.291334195428,62352.545691757485
5009.317385109083,62016.291642909884
5009.343436158216,61616.05127018817
5009.369487342828,60879.46687449563
5009.395538662919,60132.46524951058
5009.421590118491,59617.18280415513
5009.447641709544,58356.46520873605
5009.473693436078,56728.22974826811
5009.499745298095,55577.377646323206
5009.525797295596,54383.17269135708
5009.55184942858,52598.51905691706
5009.577901697049,50371.27911615644
5009.603954101003,48775.76660203031
5009.630006640443,46572.281627664524
5009.65605931537,45334.33449811032
5009.682112125784,44587.02106339586
5009.708165071686,44743.64323035429
5009.7342181530785,45581.28983386909
5009.760271369959,47297.23466777044
5009.78632472233,48858.7666299503
5009.812378210192,50926.944874525034
5009.838431833546,52775.451099203136
5009.864485592391,54688.41755556681
5009.890539486731,56500.417089967406
5009.916593516564,57916.21128789397
5009.942647681891,59090.64981577466
5009.968701982713,59970.84937081602
5009.994756419032,60864.21105905972
5010.020810990847,61632.6338586131
5010.046865698159,62256.81599669408
5010.072920540969,62824.926812285186
5010.098975519279,63112.97329855291
5010.125030633087,63277.03079551629
5010.151085882395,63250.13550690924
5010.177141267204,63245.55123408844
5010.2031967875155,63155.20994831542
5010.229252443328,62673.27890408724
5010.255308234644,62115.27825897804
5010.281364161464,61544.489282690665
5010.307420223788,60568.167732988906
5010.333476421617,59412.41972825111
5010.359532754951,58273.05758099946
5010.3855892237925,57817.322383694634
5010.4116458281405,57299.30452221828
5010.437702567997,56927.684210376414
5010.463759443362,57433.507010427806
5010.489816454236,57549.09922219923
5010.51587360062,58104.04473018626
5010.541930882514,59190.8667637543
5010.56798829992,59980.25264624225
5010.5940458528385,60678.60997808186
5010.62010354127,61334.29668313134
5010.646161365214,61754.998358155535
5010.672219324672,62157.24147764237
5010.698277419646,62676.77631574068
5010.724335650135,62823.362495391106
5010.7503940161405,63137.77852776247
5010.7764525176635,63613.25054461579
5010.802511154703,63501.61542659299
5010.828569927262,63590.730457037374
5010.85462883534,63625.61786893657
5010.880687878937,63752.727698279545
5010.906747058056,63972.06869914092
5010.932806372695,63979.46195413495
5010.958865822856,63924.756273852945
5010.98492540854,64008.66580478983
5011.0109851297475,63760.28072237394
5011.0370449864795,63352.025313159815
5011.063104978735,62972.1629548855
5011.089165106517,62754.520485859066
5011.115225369825,62558.97901304992
5011.14128576866,62088.083647185704
5011.167346303022,61158.287327116785
5011.193406972913,60372.00660776912
5011.219467778333,59817.307136828014
5011.2455287192815,58870.473135497086
5011.271589795761,57834.02218980182
5011.297651007772,56548.928037177895
5011.323712355315,54630.07872216859
5011.34977383839,52726.770281010766
5011.375835456999,50306.05363615309
5011.401897211142,47291.479391611625
5011.427959100819,44026.225404672776
5011.454021126031,40404.81580646741
5011.4800832867795,37050.98619837687
5011.506145583065,34486.810884934974
5011.532208014888,32652.127052499058
5011.558270582248,31642.512753321702
5011.584333285148,31659.453350741016
5011.610396123588,32418.32895822271
5011.636459097567,34073.00544772237
5011.662522207088,36338.6278014705
5011.68858545215,38809.40079606565
5011.714648832754,41389.111240176884
5011.740712348902,43579.57895764282
5011.766776000594,46173.654880579365
5011.79283978783,47323.07291260941
5011.818903710611,48364.35104599663
5011.844967768939,48556.764507507745
5011.871031962813,48972.67211335721
5011.897096292234,49295.120375431114
5011.923160757203,49861.525717078766
5011.949225357721,50934.49060612734
5011.975290093788,51842.769094667376
5012.001354965406,52837.741966433954
5012.027419972574,53732.59110838951
5012.053485115294,54571.922252192686
5012.079550393566,55150.14524041012
5012.105615807392,55451.80800362911
5012.13168135677,56050.702297380274
5012.157747041703,56276.35269748777
5012.183812862192,56696.5027687801
5012.209878818236,57434.28708785001
5012.235944909837,57984.326191957225
5012.262011136994,58781.07391665287
5012.28807749971,59402.08200391305
5012.3141439979845,59968.58920554017
5012.340210631818,60495.61119214398
5012.366277401212,60967.72121760558
5012.392344306166,61391.07997810982
5012.418411346682,61719.468561884125
5012.44447852276,61741.363898783966
5012.470545834401,61924.5797504854
5012.496613281605,61961.88620260361
5012.522680864374,62182.87647916486
5012.548748582707,62294.14928415594
5012.574816436606,61973.11754945532
5012.600884426071,61047.76356458266
5012.626952551104,60611.81331351357
5012.653020811705,59306.326736633935
5012.679089207873,57983.697774306514
5012.705157739611,56581.419624574046
5012.73122640692,54663.345133769326
5012.757295209798,53488.95741069259
5012.7833641482475,52161.79453087879
5012.80943322227,51718.569181459534
5012.835502431864,51397.10338461203
5012.861571777033,51408.679631161576
5012.887641257775,51614.57147001082
5012.9137108740915,51489.9095968755
5012.939780625984,50825.97603995141
5012.965850513452,50020.59283724201
5012.991920536498,48866.5044402224
5013.017990695121,46979.63498444689
5013.044060989323,44790.279608432276
5013.070131419104,42394.37812157848
5013.096201984464,39789.91884930973
5013.122272685405,37532.31876385897
5013.148343521927,36285.28046210681
5013.17441449403,36183.29506559799
5013.200485601717,36779.066764711475
5013.226556844987,38155.21661024269
5013.2526282238405,40275.67715575133
5013.278699738279,42337.23086120443
5013.304771388303,44562.76796018383
5013.330843173913,46603.30552080316
5013.35691509511,48936.770791683055
5013.382987151894,50823.60268506904
5013.409059344267,52494.43126819177
5013.435131672228,53972.396525296186
5013.46120413578,54667.936593672064
5013.487276734921,55351.83642654003
5013.513349469653,55479.14080111193
5013.539422339977,54841.61314659588
5013.565495345894,54051.16201219737
5013.5915684874035,52788.66955454852
5013.617641764507,50421.4980836735
5013.643715177206,48417.08219403679
5013.6697887254995,46374.08245323369
5013.695862409389,44747.25125413745
5013.721936228875,43717.4256820673
5013.748010183958,43629.38328350265
5013.77408427464,44011.393848383945
5013.800158500921,45271.2183796523
5013.826232862801,46930.09352799468
5013.852307360281,48777.67212971818
5013.8783819933615,50939.843678461315
5013.904456762045,52876.13142266117
5013.930531666329,54466.447739827985
5013.956606706218,55738.278355436625
5013.982681881709,56996.10105185475
5014.008757192805,57998.33335941677
5014.034832639507,58490.52328865797
5014.060908221814,59073.52172644395
5014.086983939728,59289.47717330285
5014.113059793249,59036.0732773527
5014.139135782378,58486.39766074725
5014.165211907116,58115.57832880091
5014.1912881674625,57128.35651824104
5014.21736456342,55436.49700695163
5014.243441094988,53754.125656710814
5014.269517762167,51325.07752365741
5014.295594564959,48663.094297236574
5014.321671503363,45626.31036385121
5014.347748577381,42664.668169914024
