wave,flux
4450.003811362098,15214.196232369328
4450.026953690486,15191.17456915953
4450.050096139227,16282.127931999625
4450.073238708321,18003.759926851944
4450.096381397769,20362.13763017137
4450.119524207569,23052.885082597622
4450.142667137726,25976.687808491824
4450.165810188237,28897.80009374089
4450.188953359103,30964.886895783395
4450.212096650326,32576.21432169701
4450.2352400619075,34083.41017306435
4450.258383593846,35787.40331345964
4450.281527246142,37380.07806134791
4450.304671018797,38916.18226213842
4450.327814911813,40329.15661155988
4450.350958925188,41556.541508067574
4450.374103058924,42599.279421522515
4450.3972473130225,43425.62670029675
4450.420391687483,44966.1756504984
4450.443536182305,46690.950694606014
4450.466680797492,48655.225841322426
4450.489825533042,50728.56073894416
4450.512970388957,52795.09288593116
4450.536115365237,54665.72554734401
4450.559260461882,55923.8381477697
4450.582405678895,57307.935508678325
4450.605551016274,58197.61490625952
4450.628696474022,59122.591887020346
4450.651842052138,59787.598404143835
4450.674987750623,59946.80594765628
4450.698133569476,60211.302783504536
4450.721279508702,60313.62614121995
4450.744425568297,60085.068289659335
4450.767571748264,59595.298787892774
4450.790718048604,59021.48029985789
4450.813864469315,58632.27025296463
4450.837011010401,58079.5769229899
4450.86015767186,57297.794141008766
4450.883304453694,55969.92549955595
4450.906451355903,54147.73938042136
4450.929598378489,52136.65879384053
4450.95274552145,49505.74460221017
4450.975892784789,46291.59925974637
4450.999040168505,42714.32237142844
4451.022187672601,39333.709845395395
4451.045335297074,35791.551897128076
4451.068483041929,32979.32391561188
4451.091630907163,31571.923569540384
4451.114778892777,31602.772697836903
4451.137926998774,33108.51070826202
4451.161075225153,35172.35162070276
4451.184223571914,38323.69014801856
4451.207372039059,41619.1348692716
4451.230520626587,44819.085344066836
4451.253669334501,47863.81931816128
4451.2768181628,50658.41646406243
4451.299967111485,52348.933229227936
4451.323116180556,54480.95051862421
4451.346265370014,55076.29953135134
4451.369414679861,55361.47549317955
4451.392564110095,55394.59050510822
4451.415713660719,54889.913708034466
4451.438863331732,54186.17384664475
4451.462013123136,52737.26599942098
4451.48516303493,51251.59486712198
4451.508313067117,50468.28815950726
4451.531463219695,50729.75171441709
4451.554613492666,50566.50337836881
4451.577763886031,50926.4136468998
4451.60091439979,52030.66268519385
4451.624065033943,52902.15026966148
4451.647215788492,53952.89684498083
4451.670366663436,55217.38903873027
4451.693517658777,56027.72206575728
4451.716668774516,57164.8387095859
4451.739820010652,58446.48437228581
4451.762971367186,59055.28942441306
4451.78612284412,59555.456435092405
4451.8092744414525,59867.661154096284
4451.832426159187,60343.98069005544
4451.855577997321,60670.35812177319
4451.878729955857,60579.58022674333
4451.901882034796,60563.627115992844
4451.925034234137,59951.04183509278
4451.948186553881,59947.26955322729
4451.97133899403,59624.33944063362
4451.994491554583,58266.858693295326
4452.017644235542,57541.06813888096
4452.040797036907,56175.0463408808
4452.063949958678,55126.65668685144
4452.087103000857,54010.19116381625
4452.1102561634425,52502.33845254528
4452.133409446437,51291.85927977585
4452.156562849841,50122.54097210168
4452.179716373655,49094.71714139457
4452.202870017878,48017.34166304921
4452.226023782513,47639.02737779251
4452.24917766756,47530.25166663915
4452.272331673018,47630.63476996167
4452.29548579889,48403.97499819428
4452.318640045174,49984.78009277701
4452.341794411874,51016.090347861005
4452.364948898987,52065.08727507749
4452.388103506516,52879.15379894391
4452.4112582344615,52718.79861900119
4452.434413082823,52147.3804099078
4452.457568051602,51599.136081990095
4452.480723140799,50627.1708501074
4452.503878350413,49704.816843282395
4452.527033680448,49434.65344473237
4452.550189130902,49628.49562219966
4452.5733447017765,50115.941127046906
4452.596500393071,51000.784818275955
4452.619656204789,51623.12263717765
4452.642812136928,51825.47319200249
4452.66596818949,51771.725777802676
4452.689124362475,51376.24024467152
4452.7122806558855,50686.380217877806
4452.735437069719,49367.713751635005
4452.7585936039795,48072.33794515353
4452.781750258665,46558.565635162
4452.804907033777,44536.1507494294
4452.828063929317,43635.98306069559
4452.851220945285,43478.48726546477
4452.87437808168,44275.06848988705
4452.897535338506,45889.17931343598
4452.92069271576,48251.86641097222
4452.943850213445,50015.36755404038
4452.967007831562,52043.41399639219
4452.99016557011,53677.51476646326
4453.01332342909,54963.98904129448
4453.036481408502,55927.19961725282
4453.059639508349,56213.92353262496
4453.08279772863,56661.41814892787
4453.105956069345,56457.35802436472
4453.129114530496,55863.4734347409
4453.152273112083,55255.95075735376
4453.175431814107,54325.016867126695
4453.198590636567,53365.33047450216
4453.221749579466,52926.931266496504
4453.244908642802,53044.276371765634
4453.268067826579,53108.01890788605
4453.291227130795,54053.06634317469
4453.314386555451,55025.16149342953
4453.337546100549,55599.7478747436
4453.360705766087,56558.29000444698
4453.3838655520685,57434.60782512695
4453.407025458493,57906.11624400011
4453.430185485361,58453.91215922167
4453.453345632673,59134.72988484632
4453.476505900429,59229.21687764217
4453.4996662886315,59578.01091778465
4453.52282679728,59566.1650157213
4453.545987426375,59607.16782177966
4453.569148175917,59642.337243281676
4453.592309045907,59306.216380338374
4453.615470036346,58942.91005154686
4453.638631147233,58305.25241867091
4453.661792378571,57541.5998083194
4453.684953730359,56573.61516057067
4453.708115202598,54892.51907252739
4453.731276795288,53264.59961727561
4453.754438508431,51019.497445160705
4453.777600342027,47860.47890982917
4453.800762296077,44537.99498072854
4453.82392437058,40562.35668931721
4453.847086565538,36850.19502776235
4453.870248880952,33706.42258511182
4453.8934113168225,31182.694803885035
4453.916573873149,30154.893471973766
4453.939736549933,30439.583910068213
4453.962899347174,31556.414021560264
4453.986062264875,33380.61610839734
4454.009225303034,35148.90450895221
4454.032388461654,36469.654294416534
4454.055551740734,37431.68405098525
4454.078715140275,36954.11302036675
4454.101878660277,35836.05749175056
4454.125042300742,34100.021398385055
4454.14820606167,31764.1762433079
4454.171369943061,28864.398140765883
4454.194533944917,26234.03836557364
4454.2176980672375,23361.641641928385
4454.240862310024,21089.123237439726
4454.264026673275,19025.79229107988
4454.287191156994,17616.035287990868
4454.31035576118,17563.07991181674
4454.333520485834,17997.233320253043
4454.356685330957,19629.004334061698
4454.379850296548,21726.276995380333
4454.40301538261,23449.61438841733
4454.426180589142,25672.80020666937
4454.449345916145,27330.23235791158
4454.4725113636205,28373.3446016979
4454.495676931568,29264.33858450638
4454.5188426199875,29959.99944294843
4454.542008428882,30989.439741766022
4454.565174358249,32857.71183061395
4454.588340408092,35169.76684412378
4454.611506578411,37982.70901654895
4454.634672869205,40081.39183338772
4454.657839280476,41546.78156010165
4454.681005812225,42310.58707610663
4454.704172464451,42320.42475919979
4454.727339237156,41482.420030170026
4454.750506130341,40103.14327979242
4454.773673144005,38188.652650562304
4454.79684027815,36715.97043167843
4454.820007532776,36285.37302037075
4454.843174907884,36954.6688716647
4454.866342403473,38680.024091831714
4454.889510019546,40762.50339242453
4454.912677756102,43477.43455129569
4454.935845613144,46358.07458840581
4454.959013590669,48636.978229312364
4454.982181688681,50650.74857043675
4455.005349907178,52452.880034820366
4455.028518246162,53672.0441726149
4455.051686705633,54349.06108586729
4455.074855285593,54796.35714574837
4455.098023986041,54319.03685895166
4455.121192806979,53356.72443046635
4455.144361748406,52406.19936277699
4455.167530810323,51016.235449774955
4455.190699992732,49326.49573403931
4455.213869295633,47230.25319784707
4455.237038719026,44774.12118496393
4455.260208262912,41898.87296654111
4455.283377927292,38789.89942709825
4455.306547712166,35225.54741019827
4455.329717617535,31720.58176826619
4455.352887643399,28670.41891708361
4455.37605778976,26177.07313688857
4455.399228056617,25216.30977501294
4455.422398443972,25488.79519432273
4455.445568951825,27087.469264753487
4455.468739580177,29712.971238651164
4455.491910329028,32896.4278923806
4455.515081198378,36412.736589840555
4455.538252188229,39996.86196569962
4455.561423298582,43280.77547716322
4455.584594529436,46160.55719041256
4455.607765880793,48474.13870737266
4455.630937352652,50389.5191168187
4455.654108945016,52010.176942688595
4455.677280657883,52968.84400802816
4455.700452491255,53347.31209093006
4455.723624445134,52748.133732308976
4455.746796519518,51930.38403353919
4455.7699687144095,50441.94219526842
4455.793141029808,48028.50419160222
4455.816313465714,46390.29326239238
4455.83948602213,44138.569289997264
4455.862658699055,42254.77170618351
4455.885831496489,41681.247214785435
4455.909004414434,41165.59874797957
4455.932177452891,41796.96666633048
4455.955350611858,42715.83218023209
4455.978523891339,43391.72496769365
4456.001697291333,43942.75890212841
4456.024870811841,43852.917199203555
4456.048044452862,43032.29613341708
4456.071218214399,41287.45129057921
4456.094392096451,39775.09171823487
4456.117566099019,37408.68931155767
4456.140740222105,36678.52119991725
4456.163914465707,36086.03866066284
4456.187088829828,36727.0725766348
4456.210263314468,38411.15338394862
4456.233437919626,40815.725394169625
4456.256612645306,43350.28214393721
4456.279787491505,45828.0379100626
4456.302962458226,48466.655508963544
4456.326137545469,50411.751677656845
4456.349312753233,51790.762820892625
4456.372488081522,52772.911663820545
4456.395663530333,53242.165486116566
4456.41883909967,53503.83630744789
4456.442014789531,53686.036226811746
4456.465190599917,53650.972566750126
4456.488366530831,52774.894228697325
4456.5115425822705,52381.138050637455
4456.5347187542375,51572.64017351926
4456.557895046733,51544.8658153979
4456.581071459757,51735.440681975284
4456.604247993311,52068.85333505573
4456.627424647395,52867.666983785435
4456.650601422009,53872.349931196935
4456.673778317154,54463.75738601708
4456.696955332832,54590.21894716445
4456.720132469041,55016.83617221102
4456.7433097257845,54794.82751853316
4456.766487103061,53748.12196009074
4456.789664600872,52446.22894498994
4456.8128422192185,50769.702739264976
4456.8360199581,48262.669412702235
4456.859197817518,45341.06882171799
4456.882375797473,41996.818852022516
4456.905553897966,38640.70939387684
4456.928732118997,35700.245464390304
4456.951910460566,33423.73736378091
4456.975088922674,32132.29145688969
4456.998267505323,31824.91024580715
4457.021446208513,32422.86255786486
4457.044625032244,33728.2254204197
4457.067803976516,35610.12654057388
4457.090983041332,37908.074964864725
4457.1141622266905,40824.08608208798
4457.1373415325925,44399.98234418795
4457.160520959039,47284.578154415525
4457.183700506031,49603.29185596763
4457.206880173568,51608.84580227955
4457.230059961651,52936.7354825528
4457.2532398702815,53926.36442071814
4457.27641989946,54893.959154942604
4457.299600049186,55186.4602758825
4457.322780319461,55093.50698563655
4457.345960710286,55306.70273978053
4457.36914122166,55503.61013590129
4457.392321853586,55421.98772206009
4457.415502606062,54784.46232772723
4457.43868347909,53776.08354391697
4457.461864472672,52275.38656813222
4457.485045586805,50427.44841022513
4457.508226821494,48252.7343763759
4457.5314081767365,45663.60702356322
4457.554589652534,43345.66257347582
4457.577771248887,41138.68580529386
4457.600952965797,39151.93326743945
4457.624134803263,38161.71283252008
4457.647316761288,37807.068107816376
4457.67049883987,37700.5116236031
4457.693681039011,37610.499032596
4457.716863358712,37511.830274075284
4457.7400457989725,37430.62013338079
4457.763228359793,37489.541894672555
4457.7864110411765,38610.10249945955
4457.809593843121,40472.57145740592
4457.832776765628,42572.86160727186
4457.855959808699,44657.19645619764
4457.879142972333,46554.21239465191
4457.902326256532,47965.84513073694
4457.925509661296,48389.406134967445
4457.948693186626,48168.5737051351
4457.971876832522,47771.23503502135
4457.995060598985,47074.70830141184
4458.018244486016,46222.082096312406
4458.041428493615,45547.01369932539
4458.0646126217825,45596.75321573851
4458.08779687052,46635.082467377106
4458.110981239827,48386.23712245921
4458.134165729705,50118.07564115887
4458.157350340155,51775.73268678807
4458.180535071177,52935.6963323127
4458.203719922771,54262.04756642243
4458.226904894938,55160.963423442896
4458.2500899876795,55796.67141926202
4458.273275200995,56270.06630780143
4458.296460534886,56387.51819439047
4458.3196459893525,55348.442664982445
4458.342831564396,54266.60556382382
4458.366017260016,52938.496008684095
4458.389203076214,50922.152111999705
4458.4123890129895,48333.85137328405
4458.435575070344,45165.98140712944
4458.458761248279,41692.28249942609
4458.481947546794,37948.540122823426
4458.505133965889,33561.80163551435
4458.528320505566,29192.530827176022
4458.551507165825,25751.98902523358
4458.574693946666,22553.442370338245
4458.597880848091,20329.508036289993
4458.6210678701,19076.457568633923
4458.644255012693,19006.39043153592
4458.6674422758715,19701.979970998946
4458.690629659636,21468.82635008275
4458.713817163986,23850.259304838375
4458.737004788924,26248.092418516022
4458.76019253445,28513.72498453513
4458.783380400563,30553.055578674204
4458.8065683872655,32004.42452326685
4458.829756494558,32753.6229020123
4458.85294472244,34067.43922161619
4458.876133070914,35486.30544151622
4458.899321539979,37605.410073410865
4458.922510129635,40164.30271370351
4458.945698839884,43200.527294930085
4458.968887670727,46147.75691645862
4458.992076622164,48781.07081445256
4459.015265694195,51276.18372603858
4459.0384548868215,53086.331435369735
4459.061644200044,54255.275496167356
4459.084833633862,55298.830460294645
4459.108023188278,56098.318001040534
4459.131212863292,56132.45204833672
4459.154402658904,55627.4471426
4459.177592575114,55095.03961197394
4459.200782611925,54312.00762114236
4459.223972769336,53401.96988312207
4459.247163047347,52461.428664242805
4459.27035344596,52005.945078562094
4459.293543965176,51904.266477311874
4459.316734604993,52628.61897622387
4459.339925365414,53291.88309825314
4459.363116246439,54450.195127187646
4459.386307248069,55446.385102301574
4459.409498370304,56013.509700080635
4459.432689613145,56613.97798216949
4459.455880976592,56959.78572488924
4459.479072460647,57113.892177924004
4459.502264065309,56719.044414381315
4459.52545579058,56196.352451422164
4459.5486476364595,55212.46398060181
4459.571839602949,53719.641014957706
4459.595031690048,51420.68944144446
4459.618223897759,48907.06377272699
4459.641416226081,45860.72839709633
4459.664608675014,42264.64862998179
4459.687801244561,38661.15573440497
4459.710993934721,35735.369201425405
4459.734186745496,33618.64866064976
4459.757379676885,32793.77837500213
4459.780572728889,33344.02867858622
4459.803765901509,34657.96162247748
4459.8269591947455,36545.58910252014
4459.850152608599,38929.89673429365
4459.87334614307,41471.877804298936
4459.89653979816,44258.51600725272
4459.91973357387,47049.019427501604
4459.942927470198,49711.27990411652
4459.966121487147,52199.6228229947
4459.989315624717,54042.30672785491
4460.0125098829085,55565.97535529029
4460.035704261722,56918.22551523708
4460.058898761158,57549.150602010915
4460.082093381218,58158.236153034486
4460.105288121902,58986.42629423825
4460.12848298321,59465.53416594971
4460.151677965145,59531.16986278109
4460.1748730677045,59387.29348271734
4460.198068290891,59330.64314498396
4460.221263634704,59023.73106520491
4460.244459099145,58828.457247576865
4460.267654684215,58352.4505084696
4460.290850389914,57912.43217714221
4460.314046216243,57467.78431120446
4460.337242163202,57402.618641885834
4460.360438230791,57118.03113962999
4460.383634419013,56785.460310448245
4460.406830727867,56729.636057513155
4460.430027157354,55705.33784499465
4460.453223707474,54633.087554241196
4460.476420378228,53177.576053307705
4460.499617169617,51108.24114335747
4460.522814081641,48252.115755499995
4460.5460111143,45438.744132386724
4460.569208267598,42072.5907711571
4460.592405541532,38473.25288174177
4460.615602936104,35386.350201993926
4460.638800451314,32789.155356224524
4460.661998087163,30598.663131975733
4460.685195843652,28913.414025872968
4460.708393720782,27924.554193341733
4460.731591718552,27325.898385533354
4460.754789836965,27521.503532241564
4460.777988076019,28362.07034016871
4460.801186435716,29203.163950363996
4460.824384916057,29951.74459785189
4460.847583517042,29825.900310497425
4460.870782238671,28841.302448257982
4460.893981080947,27866.933425830186
4460.917180043868,26753.725268145667
4460.940379127435,25741.223676055444
4460.963578331651,25349.23114417203
4460.986777656513,25430.64909179931
4461.009977102025,25596.899366105463
4461.033176668186,25364.00236088466
4461.056376354995,24946.616195507497
4461.079576162457,24182.588090651207
4461.102776090568,22715.34709334472
4461.125976139332,21199.96702295161
4461.149176308748,20270.15326638648
4461.172376598816,19710.705591752776
4461.195577009538,20161.167643440836
4461.218777540915,21744.982687135664
4461.241978192946,24107.769049488907
4461.265178965633,27101.23456664543
4461.2883798589755,30506.179304137335
4461.311580872974,33267.22420814186
4461.3347820076315,35618.6600617807
4461.357983262946,37476.99349524709
4461.381184638919,38256.5483561285
4461.404386135551,37268.30022137764
4461.4275877528435,35886.794286837605
4461.4507894907965,33998.51120713719
4461.4739913494095,32114.97548547136
4461.497193328685,30596.67018990921
4461.520395428623,30002.833173101484
4461.543597649224,30470.802002263426
4461.566799990488,31819.3748398298
4461.590002452416,34606.77172503597
4461.61320503501,37251.72151027361
4461.636407738269,40104.964290238146
4461.659610562193,42475.37805612518
4461.682813506784,44390.540311371915
4461.706016572044,46082.315377413826
4461.729219757971,47269.218536053384
4461.752423064566,48367.76275248263
4461.775626491831,49313.67546082838
4461.798830039766,49744.20357369766
4461.82203370837,49079.48721403719
4461.845237497647,48091.134941325174
4461.868441407595,45968.69451021485
4461.891645438215,44067.40525447792
4461.914849589509,41924.03849064035
4461.938053861475,39776.15004963435
4461.961258254117,39069.08487692171
4461.984462767433,39116.5596464556
4462.007667401424,40603.02950272446
4462.030872156092,42585.97520688479
4462.0540770314365,45146.98869734854
4462.077282027459,47754.1881785862
4462.100487144158,49518.85935218397
4462.123692381537,51673.64244563638
4462.146897739594,52728.29604282791
4462.170103218332,54158.348543321816
4462.19330881775,54512.13542337024
4462.21651453785,54748.51778010802
4462.239720378631,55058.59170679531
4462.262926340095,54845.74537231266
4462.286132422241,54931.73842227699
4462.309338625071,54827.73847119945
4462.3325449485865,54515.60411872396
4462.355751392785,53541.842287157924
4462.3789579576705,52253.64536560323
4462.402164643242,50342.66810980563
4462.4253714495,48251.340339897026
4462.448578376446,45652.75855195495
4462.471785424079,43330.99156657351
4462.494992592401,41875.85138116361
4462.518199881412,41172.7113402635
4462.541407291114,41280.99053148746
4462.564614821506,42608.131156659365
4462.587822472589,43907.82667809003
4462.611030244365,45727.37699836051
4462.634238136832,47482.5599057874
4462.657446149992,48873.51173237279
4462.680654283847,50239.02502151566
4462.703862538396,51573.19813794359
4462.727070913639,52220.20794662012
4462.750279409578,52787.785661852744
4462.773488026214,52885.494670206026
