wave,flux
5000.025812696027,20240.787502326963
5000.051815424163,22165.126636211382
5000.0778182875265,24591.342522045878
5000.103821286119,27036.12965052848
5000.12982441994,28945.426170522496
5000.155827688991,30311.115999527654
5000.181831093272,31140.857445992522
5000.207834632784,31402.020271276913
5000.2338383075285,30929.12143947895
5000.259842117506,29460.53046741954
5000.285846062716,27756.852651851135
5000.311850143161,25418.620845822097
5000.33785435884,23830.250452735
5000.363858709754,22978.201179540058
5000.389863195905,23072.406787396834
5000.415867817292,23991.476842674372
5000.441872573917,25275.909563423647
5000.4678774657805,26340.29897924293
5000.493882492882,27318.367700766288
5000.519887655224,27669.431247895158
5000.545892952806,27439.417070372663
5000.571898385629,27325.16462376499
5000.597903953694,27474.325554794923
5000.623909657001,27766.831603775634
5000.649915495552,28370.192111603392
5000.675921469346,29778.16917382884
5000.701927578384,30839.525124903183
5000.727933822669,32097.61332750352
5000.7539402021985,32865.75836574717
5000.779946716975,33180.22290462965
5000.805953366999,33060.26721921401
5000.831960152272,32775.54871283606
5000.857967072792,32567.263241859317
5000.883974128563,32491.694245268838
5000.9099813195835,32322.578123785923
5000.935988645855,32236.32182641138
5000.961996107378,31946.680558468342
5000.988003704153,31084.69569060529
5001.014011436181,29834.234458526313
5001.040019303464,28146.355545323324
5001.066027306,26317.22456020486
5001.092035443791,24760.89864497859
5001.118043716839,24335.58670199143
5001.1440521251425,24990.18317480497
5001.170060668704,26217.87474970775
5001.196069347523,27921.09561392147
5001.222078161601,28753.34729653428
5001.248087110937,29355.582437774272
5001.274096195534,29318.629760623473
5001.300105415392,28652.114588133907
5001.326114770512,27334.00202125309
5001.352124260892,25311.226940037945
5001.3781338865365,22706.897639352694
5001.4041436474445,19676.30102466665
5001.430153543616,16679.55271756941
5001.456163575053,14303.516452487645
5001.482173741756,12966.452811805182
5001.508184043724,12725.24404793918
5001.534194480961,13832.74727607463
5001.560205053464,15961.03788982258
5001.586215761236,18824.248761497034
5001.612226604278,22107.22202862269
5001.638237582589,25147.997844747584
5001.664248696171,27545.359898569524
5001.690259945024,29593.908228566605
5001.716271329149,31092.92305340525
5001.742282848547,32377.930797635807
5001.768294503218,33079.29395637556
5001.794306293164,33481.50089421657
5001.820318218383,33959.686231167274
5001.84633027888,34032.57252004612
5001.872342474651,34299.58560539066
5001.8983548056995,34224.97382987969
5001.924367272026,34388.95502254497
5001.9503798736305,34191.87555083921
5001.976392610514,33852.80940644162
5002.002405482678,33708.64485725649
5002.028418490122,33837.91560951609
5002.054431632847,33415.0667914887
5002.080444910854,32938.405872594856
5002.106458324142,32786.35712193231
5002.1324718727155,32338.15591052784
5002.158485556572,31800.544787126182
5002.184499375713,31407.73463236766
5002.210513330139,30990.13025919186
5002.236527419852,30502.30074505653
5002.262541644852,29905.29458284593
5002.288556005138,28929.91767136698
5002.314570500714,27106.033876607587
5002.340585131577,24889.988829530943
5002.36659989773,22084.71102854229
5002.392614799174,20058.899353955698
5002.418629835909,19011.568892973035
5002.444645007936,19564.774581446894
5002.4706603152545,21411.899057255054
5002.496675757866,23880.144170152704
5002.522691335772,26529.67512822335
5002.548707048972,28887.8453349835
5002.574722897468,30830.633362682172
5002.600738881259,32345.055415965828
5002.626755000347,33335.993707342546
5002.652771254732,33780.41500405827
5002.678787644415,34007.23082428189
5002.704804169397,34333.74729764785
5002.730820829678,34483.5798316499
5002.75683762526,34492.381332114455
5002.782854556142,34715.60334161074
5002.8088716223265,34356.50294838653
5002.834888823812,34518.248193883985
5002.860906160601,34516.38875092635
5002.886923632695,34378.06730792098
5002.912941240092,34339.526944572586
5002.938958982793,34287.46799476678
5002.9649768608015,34372.493122253945
5002.990994874116,34289.673107606366
5003.017013022737,34096.773707183995
5003.043031306666,33878.77829209166
5003.069049725905,33696.94269941297
5003.095068280452,33628.520759056315
5003.121086970309,33557.75206735867
5003.147105795477,33569.2240732141
5003.173124755956,33746.79765224629
5003.199143851748,33909.73491796787
5003.225163082852,33964.94246446849
5003.251182449269,33131.312654428075
5003.277201951001,32098.522380232742
5003.3032215880485,30800.230334171334
5003.32924136041,29425.403746818844
5003.35526126809,28286.91041802761
5003.381281311085,27998.04277432474
5003.407301489398,28376.92854204939
5003.433321803031,29288.94555664916
5003.459342251982,30461.702562437516
5003.4853628362525,31230.427280402662
5003.511383555844,31693.190623462546
5003.537404410757,31581.374150226093
5003.563425400991,30581.70836632307
5003.589446526548,29287.62003074053
5003.615467787429,27614.17126147216
5003.641489183634,25999.242577172066
5003.667510715163,25099.7055572998
5003.693532382018,25114.120425669364
5003.719554184199,25970.88534366202
5003.745576121707,27675.120382271456
5003.771598194542,28993.01392115214
5003.797620402706,29954.952409855043
5003.823642746199,30753.496950688525
5003.849665225021,31050.089851088152
5003.875687839174,31461.557748331965
5003.901710588658,31685.919604409064
5003.927733473473,31663.250927073856
5003.953756493622,31406.79259746034
5003.979779649103,31250.315207677533
5004.005802939919,31483.590284257392
5004.031826366068,31938.142036974124
5004.057849927553,32590.122304246335
5004.083873624375,33188.75154537439
5004.109897456533,33928.65430336299
5004.135921424028,33968.474188565124
5004.161945526862,34314.705727562025
5004.187969765035,34569.277836306195
5004.213994138547,34196.466413128415
5004.240018647399,34325.210143017306
5004.266043291592,34498.04891605936
5004.292068071127,34662.53394511449
5004.318092986004,34634.262537846196
5004.344118036223,34420.46007916348
5004.370143221788,34406.79878153498
5004.396168542696,34100.07966225868
5004.422193998949,33571.8750028634
5004.448219590549,33199.41158384733
5004.474245317495,32649.121768018987
5004.500271179789,31970.87483040872
5004.52629717743,31661.659372557766
5004.5523233104195,31785.12066382403
5004.578349578759,31827.43116992171
5004.604375982449,31411.735858915858
5004.630402521489,30969.013078790565
5004.656429195881,29513.150522974134
5004.682456005625,28018.154936858828
5004.708482950721,25520.811742612954
5004.734510031172,22611.303043738862
5004.760537246977,19988.09411744351
5004.7865645981365,18473.325586730905
5004.812592084652,18454.609661177445
5004.838619706525,19704.367185808856
5004.8646474637535,21969.826229233193
5004.890675356341,24767.565318511173
5004.916703384286,27373.23770757365
5004.942731547591,29283.74378606992
5004.968759846256,30571.37802135883
5004.994788280281,31612.928395647912
5005.020816849668,32130.701782819964
5005.046845554417,31840.488607089617
5005.072874394528,31589.36796876178
5005.098903370003,30934.57579687776
5005.124932480842,30132.671916663046
5005.150961727047,29053.825073803237
5005.176991108617,27730.494400393167
5005.203020625552,25480.572083293704
5005.229050277856,22848.00978537399
5005.255080065526,20090.70904937375
5005.281109988566,17206.869389313615
5005.3071400469735,14750.578821273564
5005.333170240751,13349.93440017369
5005.3592005699,13346.558322210758
5005.38523103442,14530.97962425989
5005.411261634312,16475.128306429684
5005.4372923695755,18893.700516898687
5005.463323240213,21260.43542711885
5005.489354246225,23156.775796215068
5005.515385387611,24328.892215369313
5005.541416664373,24348.572455548736
5005.567448076511,23851.162243357972
5005.593479624025,22122.317324103347
5005.619511306918,20087.584696156937
5005.645543125189,17549.634696528086
5005.671575078838,14831.692960704702
5005.697607167867,12587.177886325486
5005.723639392277,11261.835105821792
5005.749671752068,10827.8793240782
5005.77570424724,11471.12568246617
5005.8017368777955,13092.995673369413
5005.8277696437335,15502.531883517728
5005.853802545055,18492.155167558394
5005.879835581762,21602.867279626636
5005.905868753854,24549.425374897826
5005.931902061331,27177.22335011447
5005.957935504196,29396.89543053603
5005.983969082448,31076.217445219336
5006.010002796088,32127.149194116315
5006.036036645117,32949.41983101238
5006.062070629536,33396.77698703173
5006.088104749344,33691.659205109885
5006.114139004544,33945.876364057
5006.140173395135,33728.64673347804
5006.166207921118,33823.02892975887
5006.192242582495,33665.83436071158
5006.218277379266,33581.96114314051
5006.244312311431,33308.69615101614
5006.270347378991,33366.53947316516
5006.296382581946,33300.59164339264
5006.322417920299,33348.956668957646
5006.348453394048,33338.18969873097
5006.374489003196,33235.85180503628
5006.400524747743,33221.0981583436
5006.426560627688,33114.421964685054
5006.452596643034,33026.508737915006
5006.47863279378,32945.04399016628
5006.504669079928,32702.844269666213
5006.530705501478,32607.082234885842
5006.556742058431,32345.360291986948
5006.582778750788,31801.25686488438
5006.608815578549,31326.403695890058
5006.634852541715,30517.620011379007
5006.660889640287,29323.47166847311
5006.686926874265,27748.417319508375
5006.71296424365,25728.02161596281
5006.739001748444,22857.560887263553
5006.765039388645,19815.096955956207
5006.791077164256,16817.945237649405
5006.817115075277,14054.657395926984
5006.843153121708,12243.453773061921
5006.869191303552,11488.081349286269
5006.895229620806,11844.66692935195
5006.921268073474,13377.924387263813
5006.947306661555,15784.674644806948
5006.97334538505,18813.222697011493
5006.999384243961,22054.158664153063
5007.025423238286,24904.609552765964
5007.051462368028,27375.934176823303
5007.077501633187,29593.58351356934
5007.103541033764,31278.227967831306
5007.129580569759,32515.390969596334
5007.155620241173,33138.562935088885
5007.181660048007,33625.72670068614
5007.207699990262,33798.40297106203
5007.233740067937,33489.58369257685
5007.259780281035,32770.81142624615
5007.285820629555,32004.732500338927
5007.311861113499,31108.09829659289
5007.337901732866,30285.32074917608
5007.363942487658,29963.161753898716
5007.389983377876,30362.863327928906
5007.41602440352,31384.858967795746
5007.442065564591,32466.37638688377
5007.468106861089,33548.48155544293
5007.494148293015,34226.405448725025
5007.520189860371,34670.85445831054
5007.546231563156,34979.68900259709
5007.572273401372,35084.23867104837
5007.598315375018,35327.85982143124
5007.624357484096,35108.82766597967
5007.650399728607,35021.61872541012
5007.676442108551,35138.35052974437
5007.702484623929,35106.48769343296
5007.728527274741,35185.27239108354
5007.754570060989,35329.550879427414
5007.780612982673,35371.596339145486
5007.806656039793,35518.124460166524
5007.832699232351,35335.11152134623
5007.858742560347,35513.59188463568
5007.884786023782,35728.90184981751
5007.910829622656,35564.04439072585
5007.936873356971,35651.83108345147
5007.962917226726,35751.91667193788
5007.988961231923,35756.38695226594
5008.015005372563,35933.271727037856
5008.041049648646,35860.88039067332
5008.067094060171,35554.92227280493
5008.0931386071425,35470.35499327063
5008.119183289558,35409.91207693311
5008.14522810742,35056.59448886853
5008.171273060728,34702.5871526038
5008.197318149483,34388.261048864035
5008.223363373687,33550.772160599
5008.249408733339,32902.343681834405
5008.27545422844,32776.1197415097
5008.301499858992,32884.7745892445
5008.327545624995,33306.58604345481
5008.353591526448,33977.57611816637
5008.379637563355,34720.013495552936
5008.405683735714,35037.70729300478
5008.431730043527,35177.924862022555
5008.457776486794,35172.79027005941
5008.483823065515,35533.388194568084
5008.509869779693,35569.82720088562
5008.535916629327,35324.50889278069
5008.561963614418,35408.70567304448
5008.588010734968,35336.508139021054
5008.614057990975,34986.87134665135
5008.640105382442,35245.071430898286
5008.666152909369,35527.51717059592
5008.692200571756,35408.062055726106
5008.718248369605,35453.85561990098
5008.744296302916,35526.91143894571
5008.77034437169,35553.04100343674
5008.796392575927,35464.3178429257
5008.822440915628,35411.45632301258
5008.848489390794,35453.75557187575
5008.874538001426,35499.64474641662
5008.900586747524,35596.02878482437
5008.926635629089,35745.910879983705
5008.952684646122,35457.504395652635
5008.978733798623,35308.6981639905
5009.004783086593,35286.3945630115
5009.030832510033,35142.29375918338
5009.056882068944,34868.941821183864
5009.082931763326,34439.72398084088
5009.108981593179,34588.088385293966
5009.135031558506,34505.557238899644
5009.161081659306,34242.31535330568
5009.187131895579,33709.336810122
5009.213182267327,32866.206767162366
5009.239232774552,32176.35841857241
5009.265283417251,31519.688039892186
5009.291334195428,31404.319673590235
5009.317385109083,31890.117823874763
5009.343436158216,32454.33338345022
5009.369487342828,33159.20734617177
5009.395538662919,33455.890772063256
5009.421590118491,33680.24238122446
5009.447641709544,34003.55043418408
5009.473693436078,33812.150173537804
5009.499745298095,33561.005999611254
5009.525797295596,33115.525972218675
5009.55184942858,32044.109619041716
5009.577901697049,30639.030064258128
5009.603954101003,29092.67123193102
5009.630006640443,27527.39639481241
5009.65605931537,26299.148484008732
5009.682112125784,25750.69717937959
5009.708165071686,25441.220744879734
5009.7342181530785,24798.522373836688
5009.760271369959,23485.57036999528
5009.78632472233,21634.843110447327
5009.812378210192,20117.56032451504
5009.838431833546,19345.955603244165
5009.864485592391,19925.103958283675
5009.890539486731,21663.436194801096
5009.916593516564,23813.569037537374
5009.942647681891,26268.908972439523
5009.968701982713,28617.88103850254
5009.994756419032,30559.251296823157
5010.020810990847,32223.48538022385
5010.046865698159,33368.723791423334
5010.072920540969,34176.80114844413
5010.098975519279,34727.059067450005
5010.125030633087,35117.492158412686
5010.151085882395,35236.815287349316
5010.177141267204,35592.026575064054
5010.2031967875155,35654.67399184695
5010.229252443328,35484.95833936935
5010.255308234644,35794.944754495074
5010.281364161464,35333.73749787609
5010.307420223788,35204.980396338324
5010.333476421617,35131.41380767011
5010.359532754951,34660.49542933714
5010.3855892237925,34309.64498862761
5010.4116458281405,33719.59845170836
5010.437702567997,32651.383284168634
5010.463759443362,31192.25764873476
5010.489816454236,29131.23144306644
5010.51587360062,27036.371749707596
5010.541930882514,25541.368089238746
5010.56798829992,24766.80664812674
5010.5940458528385,25347.741643053847
5010.62010354127,27133.229619882462
5010.646161365214,29239.779474556453
5010.672219324672,31119.164192685716
5010.698277419646,32435.521120107835
5010.724335650135,33639.678736983034
5010.7503940161405,34680.98899236984
5010.7764525176635,35125.80123548267
5010.802511154703,35121.053989971224
5010.828569927262,35055.167421924576
5010.85462883534,35324.090661594826
5010.880687878937,35482.57684601452
5010.906747058056,35259.47014566876
5010.932806372695,35585.262903187315
5010.958865822856,35490.138382338846
5010.98492540854,35609.494682969715
5011.0109851297475,35870.770211795934
5011.0370449864795,35916.85758597865
5011.063104978735,35875.68695890639
5011.089165106517,35870.398835547334
5011.115225369825,35647.975241000495
5011.14128576866,35370.363874541064
5011.167346303022,34986.144560290435
5011.193406972913,34665.94136623581
5011.219467778333,34265.01469329518
5011.2455287192815,33419.685762920555
5011.271589795761,32339.516057700268
5011.297651007772,31232.314212157093
5011.323712355315,30171.844605706767
5011.34977383839,29290.572768918842
5011.375835456999,28599.0163092607
5011.401897211142,28239.462097015246
5011.427959100819,28249.537574915663
5011.454021126031,28217.020549989356
5011.4800832867795,27702.591350219544
5011.506145583065,26621.468124251387
5011.532208014888,25007.74894508604
5011.558270582248,22648.009985561403
5011.584333285148,19876.942427378483
5011.610396123588,17011.287730676726
5011.636459097567,13956.12707763467
5011.662522207088,11808.09829768764
5011.68858545215,10466.807360223076
5011.714648832754,10048.62144551235
5011.740712348902,10501.083682067336
5011.766776000594,11748.337158540719
5011.79283978783,14063.819539886641
5011.818903710611,16855.362212294094
5011.844967768939,19895.49658565509
5011.871031962813,22859.07550809398
5011.897096292234,25390.825456894883
5011.923160757203,27074.294077869934
5011.949225357721,27511.249839334767
5011.975290093788,26822.361915471552
5012.001354965406,25430.967885934595
5012.027419972574,23660.867635236285
5012.053485115294,22234.259645265847
5012.079550393566,21949.215437868294
5012.105615807392,22849.06844861321
5012.13168135677,24553.2744803326
5012.157747041703,26550.542332536734
5012.183812862192,28254.92334478898
5012.209878818236,29352.90461168738
5012.235944909837,29636.187518415813
5012.262011136994,29072.95190153446
5012.28807749971,28081.29861257585
5012.3141439979845,27370.54594288384
5012.340210631818,27676.77255111293
5012.366277401212,28514.61331870418
5012.392344306166,29673.467411133617
5012.418411346682,31052.163719173972
5012.44447852276,32411.74636383812
5012.470545834401,33187.15214009712
5012.496613281605,33828.92538918158
5012.522680864374,33946.85698768998
5012.548748582707,34505.68087352067
5012.574816436606,34709.49997108543
5012.600884426071,34526.2827518081
5012.626952551104,34535.10698997732
5012.653020811705,34507.819916236534
5012.679089207873,34601.41102408057
5012.705157739611,34542.36223275597
5012.73122640692,34281.93485608544
5012.757295209798,33540.859048628154
5012.7833641482475,32681.92626548923
5012.80943322227,31206.950292874662
5012.835502431864,29201.061401340452
5012.861571777033,26861.904414281144
5012.887641257775,24184.874912559346
5012.9137108740915,22163.268845935203
5012.939780625984,21303.16386972707
5012.965850513452,21585.81721339096
5012.991920536498,22895.72184597211
5013.017990695121,24716.174689046784
5013.044060989323,26528.386296424345
5013.070131419104,27907.35947679444
5013.096201984464,28660.15588984693
5013.122272685405,28583.240926922772
5013.148343521927,27759.601519193584
5013.17441449403,25962.784921167688
5013.200485601717,23549.080009092195
5013.226556844987,20891.614282601575
5013.2526282238405,18059.48981010366
5013.278699738279,15687.692394476797
5013.304771388303,14332.210497762857
5013.330843173913,14290.224223392643
5013.35691509511,15682.114081534563
5013.382987151894,17662.288788633025
5013.409059344267,20320.57060545113
5013.435131672228,22821.538851781694
5013.46120413578,25221.15708627158
5013.487276734921,26866.73238196852
5013.513349469653,27935.971457399937
5013.539422339977,28648.66366379491
5013.565495345894,29440.32389162326
5013.5915684874035,30106.263131326094
5013.617641764507,30498.190944313385
5013.643715177206,30602.189270807743
5013.6697887254995,30074.45049147791
5013.695862409389,28699.668578799672
5013.721936228875,26429.374990393342
5013.748010183958,23502.04276108619
5013.77408427464,20294.74383761014
5013.800158500921,17318.26789557545
5013.826232862801,14950.36779194546
5013.852307360281,13400.498508581288
5013.8783819933615,12946.219820196522
5013.904456762045,13571.018092982922
5013.930531666329,15360.67680657128
5013.956606706218,18077.20777389508
5013.982681881709,21391.897353394103
5014.008757192805,24507.757061575263
5014.034832639507,27205.542154403494
5014.060908221814,29278.776523958175
5014.086983939728,30961.430097760633
5014.113059793249,31793.308754551952
5014.139135782378,32086.353598007874
5014.165211907116,32083.0262199738
5014.1912881674625,32330.01305327785
5014.21736456342,32181.996405694947
5014.243441094988,32146.59493415881
5014.269517762167,32166.126570233577
