wave,flux
4450.003811362098,19617.6039560251
4450.026953690486,18178.31035475289
4450.050096139227,16473.239960755902
4450.073238708321,14565.841935932309
4450.096381397769,12626.252054443234
4450.119524207569,10728.976567219512
4450.142667137726,9225.424580043507
4450.165810188237,8150.442513305916
4450.188953359103,7415.388856595188
4450.212096650326,6841.328052324202
4450.2352400619075,6241.746056780422
4450.258383593846,5611.078101176007
4450.281527246142,5065.465956531878
4450.304671018797,4915.220680929304
4450.327814911813,5033.659012711483
4450.350958925188,5660.039047047039
4450.374103058924,6714.529939316377
4450.3972473130225,8161.8230304191575
4450.420391687483,9776.873036625382
4450.443536182305,11416.410654542018
4450.466680797492,12649.053417729401
4450.489825533042,13215.764550710848
4450.512970388957,13186.491396531937
4450.536115365237,12891.87291975262
4450.559260461882,12653.491980073737
4450.582405678895,12792.41897603942
4450.605551016274,13284.303791786193
4450.628696474022,13911.500020233205
4450.651842052138,14584.112268074745
4450.674987750623,14979.655212285654
4450.698133569476,15164.255427112716
4450.721279508702,15721.994306747587
4450.744425568297,16867.939589198108
4450.767571748264,18664.727701380478
4450.790718048604,20584.75244116883
4450.813864469315,22475.158419954256
4450.837011010401,24184.580657753126
4450.86015767186,25070.76694600657
4450.883304453694,25766.982205317407
4450.906451355903,26411.017434493933
4450.929598378489,26523.770825615265
4450.95274552145,26579.33133775726
4450.975892784789,26600.95680182052
4450.999040168505,26577.162405804695
4451.022187672601,26338.425292761523
4451.045335297074,26002.949858644748
4451.068483041929,25985.675274741407
4451.091630907163,25490.007893089143
4451.114778892777,25062.509696989542
4451.137926998774,24364.43897859769
4451.161075225153,23998.210258374787
4451.184223571914,23110.270764947865
4451.207372039059,22013.52853724985
4451.230520626587,20948.77652331936
4451.253669334501,19475.370757317294
4451.2768181628,17641.338269074146
4451.299967111485,15571.173087277084
4451.323116180556,13424.552030754856
4451.346265370014,11468.201899053849
4451.369414679861,9909.21779440404
4451.392564110095,9219.500243508079
4451.415713660719,9336.961016184468
4451.438863331732,10449.450167332307
4451.462013123136,12415.20808445733
4451.48516303493,14788.12657464074
4451.508313067117,17205.292633877936
4451.531463219695,19688.10352169446
4451.554613492666,21553.359937288915
4451.577763886031,22872.493645313625
4451.60091439979,23521.624308777744
4451.624065033943,23827.446404779737
4451.647215788492,23804.019927814705
4451.670366663436,23160.437357112296
4451.693517658777,22418.96791226024
4451.716668774516,21243.62888119204
4451.739820010652,19868.44603445692
4451.762971367186,18266.837831001998
4451.78612284412,16829.011382935896
4451.8092744414525,15961.982943896051
4451.832426159187,15742.52829198232
4451.855577997321,16653.370035718443
4451.878729955857,18039.161249283457
4451.901882034796,19461.45184837232
4451.925034234137,20671.677565173795
4451.948186553881,22217.023685252985
4451.97133899403,23123.959721187402
4451.994491554583,24314.851219105734
4452.017644235542,25386.296475645875
4452.040797036907,26056.42055364717
4452.063949958678,26406.51314874164
4452.087103000857,26378.26303175523
4452.1102561634425,26704.57824417026
4452.133409446437,26361.023214935813
4452.156562849841,26536.33691189685
4452.179716373655,26493.74360690696
4452.202870017878,26011.556550841327
4452.226023782513,25724.20953988367
4452.24917766756,25223.405930684487
4452.272331673018,24670.624941793096
4452.29548579889,23938.0368852975
4452.318640045174,23042.50491782263
4452.341794411874,21910.847440686008
4452.364948898987,20756.49364937145
4452.388103506516,19528.61829905272
4452.4112582344615,18404.92118016891
4452.434413082823,17448.45134072484
4452.457568051602,16823.765944893585
4452.480723140799,16275.107638342617
4452.503878350413,15718.514236022093
4452.527033680448,15363.437817425534
4452.550189130902,15323.831866168706
4452.5733447017765,15883.918727169937
4452.596500393071,16992.785359921545
4452.619656204789,18406.39018726482
4452.642812136928,19700.474645072238
4452.66596818949,20626.897836801185
4452.689124362475,21136.659653699862
4452.7122806558855,20889.809919316933
4452.735437069719,20252.112768354404
4452.7585936039795,19248.588961427227
4452.781750258665,17945.824985716772
4452.804907033777,16798.506264908392
4452.828063929317,16500.37026085678
4452.851220945285,16755.426461753337
4452.87437808168,17795.657505513267
4452.897535338506,19256.669909674092
4452.92069271576,20251.404706152567
4452.943850213445,20854.07790757006
4452.967007831562,20666.704291880178
4452.99016557011,20248.775311805355
4453.01332342909,19350.614158398876
4453.036481408502,18423.697022839195
4453.059639508349,17268.860135479765
4453.08279772863,15819.137987001945
4453.105956069345,14369.348561272536
4453.129114530496,13598.288388266377
4453.152273112083,13879.797222945439
4453.175431814107,14934.474018321756
4453.198590636567,17025.77658030626
4453.221749579466,19447.439785017566
4453.244908642802,21409.832976899794
4453.268067826579,22941.75908860631
4453.291227130795,23816.890952180678
4453.314386555451,24279.586498368397
4453.337546100549,24332.102903537692
4453.360705766087,24026.724106678383
4453.3838655520685,23701.53158037093
4453.407025458493,23097.99292902136
4453.430185485361,22383.345917128085
4453.453345632673,21257.436565225493
4453.476505900429,19909.169534933244
4453.4996662886315,18767.516271797504
4453.52282679728,18212.915782659962
4453.545987426375,18412.283192244584
4453.569148175917,19388.79220357973
4453.592309045907,20789.763934159735
4453.615470036346,22226.746213205577
4453.638631147233,23270.748571938584
4453.661792378571,24095.01390953151
4453.684953730359,24819.399659106486
4453.708115202598,25121.251126811134
4453.731276795288,25417.24687804164
4453.754438508431,25644.887516411527
4453.777600342027,25874.17405203275
4453.800762296077,25954.0084886158
4453.82392437058,25815.045073760106
4453.847086565538,25763.0205652448
4453.870248880952,25598.263437696627
4453.8934113168225,25323.239867927856
4453.916573873149,24837.05610351267
4453.939736549933,24373.641720062566
4453.962899347174,23799.130145111052
4453.986062264875,22838.787779916867
4454.009225303034,22017.937634980546
4454.032388461654,20829.061726880038
4454.055551740734,19117.49435181125
4454.078715140275,17299.103759486487
4454.101878660277,15431.654168749727
4454.125042300742,13313.378621431972
4454.14820606167,11223.715759222992
4454.171369943061,9346.653907004482
4454.194533944917,8242.262697964921
4454.2176980672375,8234.08950509445
4454.240862310024,8712.287099285853
4454.264026673275,10102.473556063276
4454.287191156994,11887.358357079818
4454.31035576118,13520.004811864905
4454.333520485834,14636.48746631214
4454.356685330957,14893.11358999459
4454.379850296548,14674.175466426246
4454.40301538261,13563.31924774673
4454.426180589142,12075.692128547962
4454.449345916145,10321.87113170301
4454.4725113636205,8676.847406641822
4454.495676931568,7384.795338627991
4454.5188426199875,6340.0866323688
4454.542008428882,5473.668716094899
4454.565174358249,4963.508177526935
4454.588340408092,4719.270762118747
4454.611506578411,4896.326342427355
4454.634672869205,5495.535188263709
4454.657839280476,6359.543383807632
4454.681005812225,7700.315289013473
4454.704172464451,9015.080451323016
4454.727339237156,10128.050020629726
4454.750506130341,10767.124794363539
4454.773673144005,10968.527663372628
4454.79684027815,10700.887535170092
4454.820007532776,10419.6693159026
4454.843174907884,10633.702679112912
4454.866342403473,11398.424320858992
4454.889510019546,12768.72117227136
4454.912677756102,14583.324133618535
4454.935845613144,16145.479316348186
4454.959013590669,17427.061816141784
4454.982181688681,18102.736447988937
4455.005349907178,17758.21634531891
4455.028518246162,16854.66241173428
4455.051686705633,15548.853646230376
4455.074855285593,13939.88599807049
4455.098023986041,12379.241479258048
4455.121192806979,11711.912979198996
4455.144361748406,11970.895080137665
4455.167530810323,12965.31134819274
4455.190699992732,14942.187926442344
4455.213869295633,17269.24891342028
4455.237038719026,19403.264318247362
4455.260208262912,21381.70686422213
4455.283377927292,22647.30130431188
4455.306547712166,23235.406960669654
4455.329717617535,23562.077841278453
4455.352887643399,23394.578307838932
4455.37605778976,22969.715213770418
4455.399228056617,22157.302519320874
4455.422398443972,20852.28505474831
4455.445568951825,19724.26946071498
4455.468739580177,18476.439949686748
4455.491910329028,17408.229097854804
4455.515081198378,16660.064417515456
4455.538252188229,15671.220949017317
4455.561423298582,14421.811170554343
4455.584594529436,12867.102462370001
4455.607765880793,10840.727915416914
4455.630937352652,9069.305724498116
4455.654108945016,7767.981928366538
4455.677280657883,6899.297144446663
4455.700452491255,6754.187884883044
4455.723624445134,7239.140594986802
4455.746796519518,8560.456316940905
4455.7699687144095,10610.264945733214
4455.793141029808,12875.328223528248
4455.816313465714,15335.271659647018
4455.83948602213,17706.12608769212
4455.862658699055,19436.604310696806
4455.885831496489,20857.856827048592
4455.909004414434,21857.214987348158
4455.932177452891,22308.301959763117
4455.955350611858,22236.82944130111
4455.978523891339,22487.718503362095
4456.001697291333,22037.826306775703
4456.024870811841,21296.92344241382
4456.048044452862,20162.16475569811
4456.071218214399,18449.63364861363
4456.094392096451,16555.76054771398
4456.117566099019,14613.711883690332
4456.140740222105,12749.798137523012
4456.163914465707,11502.154371220911
4456.187088829828,11500.959345813137
4456.210263314468,12169.169890612897
4456.233437919626,13083.249889328328
4456.256612645306,14486.995391842418
4456.279787491505,15809.976084632124
4456.302962458226,16602.268513314742
4456.326137545469,16838.533668158954
4456.349312753233,16368.091182599372
4456.372488081522,15292.074600751954
4456.395663530333,13922.9599326474
4456.41883909967,12611.863668188522
4456.442014789531,11686.170598102675
4456.465190599917,11964.005544947388
4456.488366530831,13274.307112712171
4456.5115425822705,15106.253236690507
4456.5347187542375,17354.985758044422
4456.557895046733,19644.62336445752
4456.581071459757,21503.48372703034
4456.604247993311,22891.480895597586
4456.627424647395,23547.985449330823
4456.650601422009,23864.25930941844
4456.673778317154,23764.84933560591
4456.696955332832,23503.140963545706
4456.720132469041,22894.9686993558
4456.7433097257845,22240.363756217666
4456.766487103061,21578.02590633021
4456.789664600872,20622.829393994314
4456.8128422192185,19574.752568584805
4456.8360199581,18792.28915316442
4456.859197817518,18259.518106035324
4456.882375797473,18507.01088755269
4456.905553897966,19426.651786627142
4456.928732118997,20463.690842580203
4456.951910460566,21567.849190012803
4456.975088922674,22416.59264187551
4456.998267505323,22814.194483968276
4457.021446208513,22940.904280186776
4457.044625032244,22771.979958671993
4457.067803976516,22144.08127297209
4457.090983041332,21283.32976258691
4457.1141622266905,20145.819032579646
4457.1373415325925,18508.84911910601
4457.160520959039,16623.235029390395
4457.183700506031,14440.001869213005
4457.206880173568,12288.257271304241
4457.230059961651,10660.791923174414
4457.2532398702815,9488.680130317663
4457.27641989946,8989.868772840848
4457.299600049186,9131.62161096697
4457.322780319461,9733.243259961599
4457.345960710286,10786.76466872727
4457.36914122166,12323.942682402485
4457.392321853586,13948.035930322723
4457.415502606062,16153.367915715937
4457.43868347909,18757.798107587125
4457.461864472672,20792.2774464518
4457.485045586805,22310.517983434438
4457.508226821494,23003.075761137166
4457.5314081767365,23085.314465616746
4457.554589652534,22919.041269186724
4457.577771248887,22598.08125233553
4457.600952965797,22466.71174453922
4457.624134803263,22336.947722744455
4457.647316761288,22571.708744978183
4457.67049883987,22720.761641280955
4457.693681039011,22501.33812954028
4457.716863358712,21943.93393925546
4457.7400457989725,21098.358990153385
4457.763228359793,19986.5171606124
4457.7864110411765,18686.127597511037
4457.809593843121,17168.455991593088
4457.832776765628,15469.158733451568
4457.855959808699,14067.378642881564
4457.879142972333,12817.155864054943
4457.902326256532,11678.876226859385
4457.925509661296,11579.318778037707
4457.948693186626,11997.875341036042
4457.971876832522,12632.51974706681
4457.995060598985,12845.640427857397
4458.018244486016,12816.485011858962
4458.041428493615,12561.937380202167
4458.0646126217825,12385.825981340811
4458.08779687052,13010.042228006656
4458.110981239827,14305.71420075289
4458.134165729705,16080.224798582416
4458.157350340155,17866.632319118427
4458.180535071177,19253.95540175556
4458.203719922771,20066.44141959502
4458.226904894938,19964.281094436552
4458.2500899876795,19313.081213491136
4458.273275200995,18131.17412372796
4458.296460534886,16573.030822998673
4458.3196459893525,15362.21865600115
4458.342831564396,14767.104226395126
4458.366017260016,15255.5863056486
4458.389203076214,16578.40597806086
4458.4123890129895,18208.289692513146
4458.435575070344,20407.298760824964
4458.458761248279,22121.44505852728
4458.481947546794,23204.734756614063
4458.505133965889,23882.490539417082
4458.528320505566,24255.257037648717
4458.551507165825,24243.429857432293
4458.574693946666,24102.373263079382
4458.597880848091,23522.216395310086
4458.6210678701,22711.39966553305
4458.644255012693,21860.57787847917
4458.6674422758715,20753.873194705404
4458.690629659636,19627.232845175586
4458.713817163986,18184.58192755903
4458.737004788924,16594.64595589929
4458.76019253445,14462.737341682574
4458.783380400563,12357.174135717396
4458.8065683872655,10294.094033745016
4458.829756494558,8195.686104721444
4458.85294472244,6706.835027132494
4458.876133070914,5553.092519742498
4458.899321539979,4883.41223901549
4458.922510129635,4649.461237285431
4458.945698839884,4840.4211298904775
4458.968887670727,5479.744184185788
4458.992076622164,6482.900837192346
4459.015265694195,7728.912632264522
4459.0384548868215,9233.24900347405
4459.061644200044,10646.658768186884
4459.084833633862,11661.522260877093
4459.108023188278,12194.960633328861
4459.131212863292,12241.324438584152
4459.154402658904,12274.53024497523
4459.177592575114,12668.58640716654
4459.200782611925,13628.706506257666
4459.223972769336,15465.94562329099
4459.247163047347,17855.214800221947
4459.27035344596,20159.119506565898
4459.293543965176,21927.770388813075
4459.316734604993,23034.971520194893
4459.339925365414,23793.812535753394
4459.363116246439,24327.319462613774
4459.386307248069,24436.91473096585
4459.409498370304,24254.99654925178
4459.432689613145,23547.73563355207
4459.455880976592,22462.07973406775
4459.479072460647,21561.586048787372
4459.502264065309,20254.756292983657
4459.52545579058,18528.582443880838
4459.5486476364595,17352.58188011777
4459.571839602949,16711.381220843614
4459.595031690048,17220.312834851095
4459.618223897759,18209.940543603047
4459.641416226081,19619.942510028195
4459.664608675014,21121.46147626321
4459.687801244561,22526.334304853495
4459.710993934721,23449.060737526837
4459.734186745496,24100.83979743906
4459.757379676885,24298.86236632893
4459.780572728889,24432.715203811436
4459.803765901509,23960.212934030693
4459.8269591947455,23188.49996094868
4459.850152608599,22218.03485732426
4459.87334614307,21131.01352380477
4459.89653979816,19754.049112576526
4459.91973357387,18091.345082044452
4459.942927470198,16265.611208104345
4459.966121487147,14004.951745595681
4459.989315624717,11887.837043871414
4460.0125098829085,10141.59948165155
4460.035704261722,9051.477947120991
4460.058898761158,8633.862926232132
4460.082093381218,8843.011910202238
4460.105288121902,9797.885517755354
4460.12848298321,11135.709845688498
4460.151677965145,12711.626567076964
4460.1748730677045,14599.326569534196
4460.198068290891,16722.636311312162
4460.221263634704,18887.289749456795
4460.244459099145,20659.330669337684
4460.267654684215,22479.854448675407
4460.290850389914,23924.081032925835
4460.314046216243,24652.610747103587
4460.337242163202,24995.847084113433
4460.360438230791,25367.772083601943
4460.383634419013,25532.1091014884
4460.406830727867,25719.64005146565
4460.430027157354,26023.77680138144
4460.453223707474,25944.388227641633
4460.476420378228,25716.070002078544
4460.499617169617,25536.41371570913
4460.522814081641,25175.457092452612
4460.5460111143,24451.674863034146
4460.569208267598,23834.384113325315
4460.592405541532,23486.662860251014
4460.615602936104,23376.879643636046
4460.638800451314,23481.962523359965
4460.661998087163,23647.10706034102
4460.685195843652,23999.730055756325
4460.708393720782,23850.226927203817
4460.731591718552,23164.47058483425
4460.754789836965,22402.75317256586
4460.777988076019,21099.464219564306
4460.801186435716,19370.861887963274
4460.824384916057,17571.636012387287
4460.847583517042,15560.164073330328
4460.870782238671,13312.379213260909
4460.893981080947,11327.99630351593
4460.917180043868,9785.50527783762
4460.940379127435,8760.44845898997
4460.963578331651,8191.309330313556
4460.986777656513,7944.117746981556
4461.009977102025,8103.744913898521
4461.033176668186,8398.167079033097
4461.056376354995,8925.842346684973
4461.079576162457,9964.11495897107
4461.102776090568,10974.434173239835
4461.125976139332,11567.291122681487
4461.149176308748,11695.755940737678
4461.172376598816,11138.534321789126
4461.195577009538,10317.789679284031
4461.218777540915,9448.687193379645
4461.241978192946,8803.377540153075
4461.265178965633,8594.0263770803
4461.2883798589755,8718.719472501769
4461.311580872974,9073.075626594331
4461.3347820076315,9398.082423480637
4461.357983262946,9146.09916053321
4461.381184638919,8571.87380901243
4461.404386135551,7634.52277737897
4461.4275877528435,6431.587142964137
4461.4507894907965,5578.887186357413
4461.4739913494095,5207.257836347035
4461.497193328685,5450.427188752435
4461.520395428623,6226.533066484266
4461.543597649224,7378.202994289897
4461.566799990488,9170.586573683155
4461.590002452416,11100.321079667978
4461.61320503501,12929.396664235159
4461.636407738269,14525.004910626694
4461.659610562193,15503.544379328034
4461.682813506784,15511.46799071945
4461.706016572044,14846.137305505299
4461.729219757971,13362.409885943991
4461.752423064566,11728.64125476765
4461.775626491831,10145.035264142767
4461.798830039766,9026.201083607006
4461.82203370837,8552.363326032346
4461.845237497647,9033.816296925492
4461.868441407595,10327.27710231082
4461.891645438215,11931.692050446414
4461.914849589509,13804.96686928482
4461.938053861475,15571.390731829415
4461.961258254117,16975.716546523105
4461.984462767433,17562.310395081895
4462.007667401424,17723.058351705124
4462.030872156092,18036.892360731486
4462.0540770314365,18379.173939592427
4462.077282027459,18809.34269466988
4462.100487144158,18777.857724520345
4462.123692381537,18383.721384588527
4462.146897739594,17296.00322934786
4462.170103218332,15766.626138328731
4462.19330881775,14131.770159099555
4462.21651453785,12611.978605701494
4462.239720378631,11566.832289621227
4462.262926340095,11340.02937920186
4462.286132422241,12031.665491274487
4462.309338625071,13608.733064803011
4462.3325449485865,15882.641312492648
4462.355751392785,18406.83507762297
4462.3789579576705,20609.058390469272
4462.402164643242,22058.309007996817
4462.4253714495,23020.724157871737
4462.448578376446,23295.00010698878
4462.471785424079,23165.981207819113
4462.494992592401,22841.854057957007
4462.518199881412,22426.053275002294
4462.541407291114,21954.316009887243
4462.564614821506,21800.263965682196
4462.587822472589,21774.109681709462
4462.611030244365,21601.026625004703
4462.634238136832,21457.92541706944
