wave,flux
4450.003811362098,11772.45533185951
4450.026953690486,11602.607790428037
4450.050096139227,11254.774916225842
4450.073238708321,10878.526499153531
4450.096381397769,10489.070997730221
4450.119524207569,9949.573791070783
4450.142667137726,9220.879379767253
4450.165810188237,8559.068119240716
4450.188953359103,7769.060843741405
4450.212096650326,6978.727295585232
4450.2352400619075,6226.989254769603
4450.258383593846,5516.646887686134
4450.281527246142,4695.636050517521
4450.304671018797,4157.511345133522
4450.327814911813,3689.6312113861727
4450.350958925188,3324.692425211302
4450.374103058924,3047.0038305942853
4450.3972473130225,2842.3131353121853
4450.420391687483,2715.0876101484196
4450.443536182305,2723.9299738864147
4450.466680797492,2889.771098525204
4450.489825533042,3081.6878328418084
4450.512970388957,3368.195711344183
4450.536115365237,3953.995785675979
4450.559260461882,4494.551506086305
4450.582405678895,5043.987939078473
4450.605551016274,5585.461048179658
4450.628696474022,6098.27424746439
4450.651842052138,6284.662696604673
4450.674987750623,6401.191263574987
4450.698133569476,6413.66727488391
4450.721279508702,6456.894081653525
4450.744425568297,6525.857214030042
4450.767571748264,6871.805831299395
4450.790718048604,7243.1104201372455
4450.813864469315,7537.232277302875
4450.837011010401,7919.769798343886
4450.86015767186,8341.691688802273
4450.883304453694,8885.934200790049
4450.906451355903,9517.00232017366
4450.929598378489,10359.503703227032
4450.95274552145,11161.004020345843
4450.975892784789,11856.511620117777
4450.999040168505,12549.047119876828
4451.022187672601,13032.537706571238
4451.045335297074,13338.80689289035
4451.068483041929,13606.903197766982
4451.091630907163,13525.731555381679
4451.114778892777,13680.189983451428
4451.137926998774,13905.900680840994
4451.161075225153,13686.030317347751
4451.184223571914,13559.725549634108
4451.207372039059,13306.717540393915
4451.230520626587,13004.047904738214
4451.253669334501,12574.871242133888
4451.2768181628,12055.15633639176
4451.299967111485,11638.21439540961
4451.323116180556,10951.70742282775
4451.346265370014,10328.497856973581
4451.369414679861,9701.712442475024
4451.392564110095,8876.193369911434
4451.415713660719,8193.72609042775
4451.438863331732,7410.53022219335
4451.462013123136,6733.349942634403
4451.48516303493,6068.454647412714
4451.508313067117,5614.482193509441
4451.531463219695,5386.453516841959
4451.554613492666,5417.3032140022115
4451.577763886031,5786.624248916335
4451.60091439979,6460.142447642494
4451.624065033943,7310.805112905939
4451.647215788492,8320.851237582983
4451.670366663436,9304.993574704367
4451.693517658777,10105.769113063496
4451.716668774516,10749.93256832213
4451.739820010652,11097.110081214376
4451.762971367186,11335.036788734462
4451.78612284412,11441.482539665738
4451.8092744414525,11124.85061064859
4451.832426159187,10698.07048671996
4451.855577997321,10427.10791961967
4451.878729955857,9938.098485833121
4451.901882034796,9512.007130465468
4451.925034234137,9279.265470840339
4451.948186553881,8914.415716554386
4451.97133899403,8914.518955306616
4451.994491554583,8933.060110534369
4452.017644235542,9458.29430690456
4452.040797036907,10106.688103418604
4452.063949958678,10778.434194916335
4452.087103000857,11319.443608127865
4452.1102561634425,11904.295623248287
4452.133409446437,12585.219943508646
4452.156562849841,13042.91952794463
4452.179716373655,13336.681321559037
4452.202870017878,13528.329167111344
4452.226023782513,13588.493481876323
4452.24917766756,13696.901592388558
4452.272331673018,13785.345887140358
4452.29548579889,13628.1505663095
4452.318640045174,13499.406054992134
4452.341794411874,13404.302921670906
4452.364948898987,13005.222125173652
4452.388103506516,12641.939650362418
4452.4112582344615,12348.104145766067
4452.434413082823,11983.83460195433
4452.457568051602,11448.138033560554
4452.480723140799,10943.480632732677
4452.503878350413,10418.19066468417
4452.527033680448,9832.696960800436
4452.550189130902,9291.16111325043
4452.5733447017765,9005.583168516756
4452.596500393071,8752.077097544547
4452.619656204789,8292.889669776841
4452.642812136928,8111.013535019723
4452.66596818949,8155.061612934873
4452.689124362475,8164.990261872061
4452.7122806558855,8331.019600795717
4452.735437069719,8608.05200881077
4452.7585936039795,8808.229994495421
4452.781750258665,9076.206886931452
4452.804907033777,9407.559370709123
4452.828063929317,9694.238763719026
4452.851220945285,9904.162921795509
4452.87437808168,9685.792117464918
4452.897535338506,9561.424252569896
4452.92069271576,9304.081453601179
4452.943850213445,8963.650717551502
4452.967007831562,8881.261112758468
4452.99016557011,8741.554861511182
4453.01332342909,8803.487883436881
4453.036481408502,8999.950086168104
4453.059639508349,9219.084491460964
4453.08279772863,9361.832522303046
4453.105956069345,9410.915602192807
4453.129114530496,9508.850400532914
4453.152273112083,9003.19881766094
4453.175431814107,8766.028104202685
4453.198590636567,8438.406838270872
4453.221749579466,8128.833934084669
4453.244908642802,7818.374029918536
4453.268067826579,7685.93916490699
4453.291227130795,7723.347837030847
4453.314386555451,7998.218728321166
4453.337546100549,8613.403213488802
4453.360705766087,9306.519543943808
4453.3838655520685,10063.013684513498
4453.407025458493,10807.928828404041
4453.430185485361,11332.850591618952
4453.453345632673,11663.998731055883
4453.476505900429,11819.343464392532
4453.4996662886315,11773.643868754336
4453.52282679728,11650.329573642906
4453.545987426375,11427.796199021333
4453.569148175917,11076.665630863265
4453.592309045907,10652.251156853135
4453.615470036346,10352.002277299312
4453.638631147233,10067.201684957494
4453.661792378571,9993.010873332372
4453.684953730359,9993.591072034838
4453.708115202598,10048.334851697677
4453.731276795288,10524.799759132486
4453.754438508431,11105.917891308087
4453.777600342027,11657.034646070671
4453.800762296077,12113.776993091937
4453.82392437058,12639.403777879821
4453.847086565538,12943.996266225142
4453.870248880952,13162.461203731553
4453.8934113168225,13281.50025367797
4453.916573873149,13277.017334686907
4453.939736549933,13373.752134738097
4453.962899347174,13368.105809837136
4453.986062264875,13302.393660169011
4454.009225303034,13066.89223880318
4454.032388461654,12967.948395320664
4454.055551740734,12640.306785140498
4454.078715140275,11971.496820894516
4454.101878660277,11526.692389082928
4454.125042300742,11035.052989371003
4454.14820606167,10331.670795456279
4454.171369943061,9505.337806659847
4454.194533944917,8846.753196733049
4454.2176980672375,8024.025431009315
4454.240862310024,7156.863874907143
4454.264026673275,6456.82000092329
4454.287191156994,5704.148440848395
4454.31035576118,5097.951300424284
4454.333520485834,4712.69274765691
4454.356685330957,4491.372878785815
4454.379850296548,4552.827802175583
4454.40301538261,4783.96466025576
4454.426180589142,5130.801135828434
4454.449345916145,5491.125197500374
4454.4725113636205,5855.884284062078
4454.495676931568,6148.839455062735
4454.5188426199875,6041.731011072476
4454.542008428882,5857.352343517411
4454.565174358249,5440.973135626595
4454.588340408092,4806.881430717614
4454.611506578411,4231.8718236117165
4454.634672869205,3700.6094069609608
4454.657839280476,3316.597748367785
4454.681005812225,2994.9898444590062
4454.704172464451,2737.203896651299
4454.727339237156,2584.377657688992
4454.750506130341,2636.5165771768293
4454.773673144005,2824.5755090873595
4454.79684027815,3009.853225786988
4454.820007532776,3362.430894614366
4454.843174907884,3846.0087851396047
4454.866342403473,4215.711974746606
4454.889510019546,4678.590359055163
4454.912677756102,5090.2660798126
4454.935845613144,5282.358665808101
4454.959013590669,5444.71252696809
4454.982181688681,5633.931222103353
4455.005349907178,5809.696689566528
4455.028518246162,6218.293162810069
4455.051686705633,6711.662176441513
4455.074855285593,7030.359479357522
4455.098023986041,7344.759351289553
4455.121192806979,7678.154543000037
4455.144361748406,7899.525667899533
4455.167530810323,7738.990988221647
4455.190699992732,7451.124777985241
4455.213869295633,7108.992024848645
4455.237038719026,6820.339839944066
4455.260208262912,6754.086789687083
4455.283377927292,6710.871570726044
4455.306547712166,7059.836198178959
4455.329717617535,7771.802857074936
4455.352887643399,8358.153817985596
4455.37605778976,9292.97147387216
4455.399228056617,10049.237535498196
4455.422398443972,10599.796264456638
4455.445568951825,11022.710594234775
4455.468739580177,11213.297272252408
4455.491910329028,11297.722960699333
4455.515081198378,11226.04352593311
4455.538252188229,10736.93852402437
4455.561423298582,10102.262618101393
4455.584594529436,9662.621981391176
4455.607765880793,9000.152615116698
4455.630937352652,8420.438040595498
4455.654108945016,7829.280984109582
4455.677280657883,7115.261394859072
4455.700452491255,6513.882840757032
4455.723624445134,5950.977792199575
4455.746796519518,5329.244393671796
4455.7699687144095,4837.539159736216
4455.793141029808,4385.175419905344
4455.816313465714,4116.783719835847
4455.83948602213,3986.9066203407215
4455.862658699055,4192.67093918143
4455.885831496489,4796.0503376741135
4455.909004414434,5489.159416417022
4455.932177452891,6323.27606046497
4455.955350611858,7481.4915570090225
4455.978523891339,8297.857320327093
4456.001697291333,9146.357027346205
4456.024870811841,9781.593464874923
4456.048044452862,10248.177495899767
4456.071218214399,10471.545958290846
4456.094392096451,10560.996216207664
4456.117566099019,10442.469206724234
4456.140740222105,10099.459063409708
4456.163914465707,9825.29974355787
4456.187088829828,9248.31759800179
4456.210263314468,8675.222384989229
4456.233437919626,8153.893455908359
4456.256612645306,7502.338283869914
4456.279787491505,6985.584720349291
4456.302962458226,6559.935996328381
4456.326137545469,6271.833297430255
4456.349312753233,6217.678429697707
4456.372488081522,6474.091131074724
4456.395663530333,6635.976233052823
4456.41883909967,6861.556182652825
4456.442014789531,7024.472942404212
4456.465190599917,7298.7497503686955
4456.488366530831,7342.05658743902
4456.5115425822705,7211.786620901621
4456.5347187542375,7080.174641803953
4456.557895046733,6977.69679176914
4456.581071459757,6952.243570526945
4456.604247993311,7099.296934721424
4456.627424647395,7325.356815773968
4456.650601422009,7929.7440299628415
4456.673778317154,8706.568887652915
4456.696955332832,9522.978128029608
4456.720132469041,10301.474492687035
4456.7433097257845,10974.568651447835
4456.766487103061,11479.193197417857
4456.789664600872,11636.77885754824
4456.8128422192185,11559.112234489174
4456.8360199581,11637.593138796774
4456.859197817518,11544.339650825677
4456.882375797473,11211.55231735419
4456.905553897966,10943.143562997597
4456.928732118997,10621.13068610161
4456.951910460566,10308.604816755393
4456.975088922674,10119.77586225081
4456.998267505323,9966.531899330623
4457.021446208513,9954.089186805735
4457.044625032244,10145.952100754446
4457.067803976516,10343.040376022207
4457.090983041332,10571.445796091308
4457.1141622266905,10814.564655337008
4457.1373415325925,10891.873102536621
4457.160520959039,10866.209916892241
4457.183700506031,10696.557980681702
4457.206880173568,10303.189657896788
4457.230059961651,9816.1172684569
4457.2532398702815,9163.510038772578
4457.27641989946,8428.034534983226
4457.299600049186,7830.229959391885
4457.322780319461,7131.878063176555
4457.345960710286,6404.068088613437
4457.36914122166,5815.928286546366
4457.392321853586,5355.018014394582
4457.415502606062,5105.560940023066
4457.43868347909,5103.988023297833
4457.461864472672,5366.622232152341
4457.485045586805,5839.065869679014
4457.508226821494,6505.704720903065
4457.5314081767365,7171.865516314608
4457.554589652534,7937.132581171836
4457.577771248887,8821.101128441564
4457.600952965797,9792.29118877295
4457.624134803263,10470.51131754755
4457.647316761288,10990.986085116747
4457.67049883987,11282.617468244687
4457.693681039011,11516.20092315742
4457.716863358712,11553.661134502412
4457.7400457989725,11448.50278346293
4457.763228359793,11404.024513233075
4457.7864110411765,11232.670581740786
4457.809593843121,10945.37782373229
4457.832776765628,10724.58933177766
4457.855959808699,10344.01555529567
4457.879142972333,9974.72028367999
4457.902326256532,9411.17230469835
4457.925509661296,8807.762875965498
4457.948693186626,8253.186697923149
4457.971876832522,7706.636788733947
4457.995060598985,7088.810200344878
4458.018244486016,6579.342988381784
4458.041428493615,6180.127597449692
4458.0646126217825,5846.079690598545
4458.08779687052,5746.616396801232
4458.110981239827,5875.156902385994
4458.134165729705,5955.917501361136
4458.157350340155,6240.049348660194
4458.180535071177,6381.2510793551955
4458.203719922771,6519.313113272297
4458.226904894938,6716.6377116282965
4458.2500899876795,6899.708276693482
4458.273275200995,7494.4702249909
4458.296460534886,7939.032622661311
4458.3196459893525,8473.322730955053
4458.342831564396,8785.744259391158
4458.366017260016,9008.38763718519
4458.389203076214,9093.69991980389
4458.4123890129895,9019.483332083784
4458.435575070344,8578.894334454333
4458.458761248279,8396.028518066236
4458.481947546794,8296.885859703329
4458.505133965889,8406.216444816975
4458.528320505566,8814.110986882426
4458.551507165825,9399.087004944216
4458.574693946666,9935.741348201425
4458.597880848091,10643.812336212164
4458.6210678701,11208.759719360702
4458.644255012693,11783.206498247788
4458.6674422758715,12002.192309288159
4458.690629659636,11970.251197131696
4458.713817163986,11957.054537215543
4458.737004788924,11710.26052270692
4458.76019253445,11188.770860575365
4458.783380400563,10480.17378475658
4458.8065683872655,9829.015749037075
4458.829756494558,9161.988833943995
4458.85294472244,8375.612526344881
4458.876133070914,7584.182400027554
4458.899321539979,6678.855177421069
4458.922510129635,5785.178524459705
4458.945698839884,4945.113516568309
4458.968887670727,4312.140114108687
4458.992076622164,3641.7796641215514
4459.015265694195,3160.575863156428
4459.0384548868215,2782.7018534086924
4459.061644200044,2648.6668499797142
4459.084833633862,2720.0203650343115
4459.108023188278,2897.8112260177068
4459.131212863292,3181.4569313745396
4459.154402658904,3574.987743954441
4459.177592575114,4048.4088270634834
4459.200782611925,4534.044682842803
4459.223972769336,5079.7719888472475
4459.247163047347,5505.799700534175
4459.27035344596,6005.499985010479
4459.293543965176,6421.296856287369
4459.316734604993,6779.991138912503
4459.339925365414,7318.2792977260415
4459.363116246439,7933.124464642658
4459.386307248069,8764.053569666032
4459.409498370304,9483.225724574868
4459.432689613145,10424.31815875096
4459.455880976592,11033.318199427094
4459.479072460647,11498.250924855742
4459.502264065309,11647.082945603355
4459.52545579058,11705.92266154984
4459.5486476364595,11435.238647598788
4459.571839602949,11176.631933139313
4459.595031690048,10968.36188761902
4459.618223897759,10417.682332962091
4459.641416226081,10030.421386453714
4459.664608675014,9723.569331355438
4459.687801244561,9364.066045855769
4459.710993934721,9227.25553194762
4459.734186745496,9278.919560715853
4459.757379676885,9479.110457735078
4459.780572728889,10042.489876483456
4459.803765901509,10631.991620031446
4459.8269591947455,11085.007263187195
4459.850152608599,11500.880265052552
4459.87334614307,11783.409167571985
4459.89653979816,11997.961370317425
4459.91973357387,11830.448338792623
4459.942927470198,11543.867293445413
4459.966121487147,11183.787449528503
4459.989315624717,10649.814599566052
4460.0125098829085,9950.314729246453
4460.035704261722,9319.518649225705
4460.058898761158,8502.229521022384
4460.082093381218,7795.647738276064
4460.105288121902,6888.8632245899025
4460.12848298321,6198.747336963828
4460.151677965145,5664.560288350772
4460.1748730677045,5071.155532013907
4460.198068290891,4914.4383638006975
4460.221263634704,5110.311964738545
4460.244459099145,5264.715551581075
4460.267654684215,5861.193540910044
4460.290850389914,6598.029153108335
4460.314046216243,7414.359132372326
4460.337242163202,8248.213881024813
4460.360438230791,9239.436072959095
4460.383634419013,10258.44549699977
4460.406830727867,10967.406852063723
4460.430027157354,11705.083695981168
4460.453223707474,12400.947662897168
4460.476420378228,12652.74811801168
4460.499617169617,13071.60804259667
4460.522814081641,13266.458056960855
4460.5460111143,13214.890795318886
4460.569208267598,13218.590017832174
4460.592405541532,13191.092682286957
4460.615602936104,13286.188406104866
4460.638800451314,13135.871379822946
4460.661998087163,12963.586985607366
4460.685195843652,12806.711156761145
4460.708393720782,12569.627629898481
4460.731591718552,12347.786320050503
4460.754789836965,12241.123961543613
4460.777988076019,12002.80037283322
4460.801186435716,11778.187507613164
4460.824384916057,11569.151744670617
4460.847583517042,11277.31162709711
4460.870782238671,10903.923037172903
4460.893981080947,10373.572688968863
4460.917180043868,9802.826706877377
4460.940379127435,9082.109649069365
4460.963578331651,8296.68006351303
4460.986777656513,7540.961177720985
4461.009977102025,6779.6549427141945
4461.033176668186,5972.3350961388105
4461.056376354995,5323.0855375078045
4461.079576162457,4814.944463183371
4461.102776090568,4523.472249106396
4461.125976139332,4302.890707126182
4461.149176308748,4133.575455131868
4461.172376598816,4249.023836127915
4461.195577009538,4462.693970337026
4461.218777540915,4531.308083114785
4461.241978192946,4730.699824639088
4461.265178965633,4992.061321620075
4461.2883798589755,5076.2213558784815
4461.311580872974,5062.230981241408
4461.3347820076315,5029.764352239261
4461.357983262946,4889.262783056799
4461.381184638919,4579.633565022458
4461.404386135551,4370.783590893478
4461.4275877528435,4142.56230210293
4461.4507894907965,4001.4496919124886
4461.4739913494095,3877.6076133734423
4461.497193328685,3720.6375045464383
4461.520395428623,3486.8190943537606
4461.543597649224,3317.007338612054
4461.566799990488,3110.1932198756
4461.590002452416,2973.980965803503
4461.61320503501,2937.18629475723
4461.636407738269,2922.8118514869507
4461.659610562193,3198.9683552062297
4461.682813506784,3671.215466013337
4461.706016572044,4204.239687494526
4461.729219757971,4830.009379329262
4461.752423064566,5310.063410520343
4461.775626491831,5754.648720296556
4461.798830039766,6007.821578871317
4461.82203370837,6307.932909651291
4461.845237497647,6243.410355686604
4461.868441407595,6117.0226664392285
4461.891645438215,5665.709260118416
4461.914849589509,5278.309751031241
4461.938053861475,5060.658209427289
4461.961258254117,4917.94057980691
4461.984462767433,5054.622890931831
4462.007667401424,5174.901357846373
4462.030872156092,5757.426375830236
4462.0540770314365,6398.156833721946
4462.077282027459,7194.138642032204
4462.100487144158,7524.659902908284
4462.123692381537,8097.133025449633
4462.146897739594,8492.458201136471
4462.170103218332,8489.3662770293
4462.19330881775,8614.283215979622
4462.21651453785,8494.408431204436
4462.239720378631,8383.186495774455
4462.262926340095,8237.51286387998
4462.286132422241,7949.449889624758
4462.309338625071,7664.988664991251
4462.3325449485865,7214.383073598302
4462.355751392785,6821.098642462509
4462.3789579576705,6674.319263510722
4462.402164643242,6642.088761094951
4462.4253714495,6728.705291556846
4462.448578376446,7191.942448895458
4462.471785424079,7830.391011687887
4462.494992592401,8677.587365345218
4462.518199881412,9548.470462351734
4462.541407291114,10395.161723641753
4462.564614821506,10969.394563603035
4462.587822472589,11412.683082671892
4462.611030244365,11518.068637759352
4462.634238136832,11520.147173157558
4462.657446149992,11373.382542508081
4462.680654283847,11233.716646976909
4462.703862538396,10929.823457915629
4462.727070913639,10633.320278038798
4462.750279409578,10408.911102162167
