wave,flux
4450.003811362098,14772.39417732691
4450.026953690486,14620.067081986464
4450.050096139227,14408.187764321783
4450.073238708321,14023.151619467439
4450.096381397769,13381.932525153163
4450.119524207569,12764.285679829378
4450.142667137726,12021.522077944584
4450.165810188237,11063.806253724646
4450.188953359103,10150.436132632747
4450.212096650326,9294.985282713678
4450.2352400619075,8272.424576309724
4450.258383593846,7155.57147103415
4450.281527246142,6391.12350201876
4450.304671018797,5644.198690493717
4450.327814911813,4844.2713928575495
4450.350958925188,4463.472461943653
4450.374103058924,4063.917351856956
4450.3972473130225,3663.0218078335724
4450.420391687483,3546.89982879535
4450.443536182305,3447.8960452054375
4450.466680797492,3561.068310305738
4450.489825533042,3700.6813094945683
4450.512970388957,4166.921998508207
4450.536115365237,4647.389552899923
4450.559260461882,5314.336136733344
4450.582405678895,5987.908893452375
4450.605551016274,6771.87704001724
4450.628696474022,7376.809140664183
4450.651842052138,7646.411268076414
4450.674987750623,7976.436826071225
4450.698133569476,8156.484642870865
4450.721279508702,8177.230623506419
4450.744425568297,8277.076796721041
4450.767571748264,8438.602184492522
4450.790718048604,8829.27484534303
4450.813864469315,9292.960747382223
4450.837011010401,9795.027843834187
4450.86015767186,10393.370740609433
4450.883304453694,10839.795769895889
4450.906451355903,11522.992683435008
4450.929598378489,12547.84240124783
4450.95274552145,13512.806688307239
4450.975892784789,14587.666991804468
4450.999040168505,15426.427825532537
4451.022187672601,15965.539570734556
4451.045335297074,16572.675821454668
4451.068483041929,16860.118388942592
4451.091630907163,17293.428646056407
4451.114778892777,17237.031261254604
4451.137926998774,17143.154054698243
4451.161075225153,17108.36335845128
4451.184223571914,16968.506047305174
4451.207372039059,16704.203192612615
4451.230520626587,16353.858418788031
4451.253669334501,16051.150696826879
4451.2768181628,15367.500504265605
4451.299967111485,14743.110496179572
4451.323116180556,14132.982498035828
4451.346265370014,13275.996193346553
4451.369414679861,12470.640491783926
4451.392564110095,11719.847115510891
4451.415713660719,10605.259940790682
4451.438863331732,9812.088798014454
4451.462013123136,8922.634431647697
4451.48516303493,8101.6757030996805
4451.508313067117,7394.7150231336345
4451.531463219695,6959.793234985206
4451.554613492666,6832.016203453839
4451.577763886031,7119.138565038388
4451.60091439979,7790.211250646882
4451.624065033943,8632.561912652607
4451.647215788492,9719.523238044816
4451.670366663436,10929.553004662266
4451.693517658777,12095.280897079978
4451.716668774516,13096.063782922189
4451.739820010652,13781.391556191064
4451.762971367186,14100.019594147434
4451.78612284412,14068.035295916003
4451.8092744414525,13986.144314940952
4451.832426159187,13791.887273636046
4451.855577997321,13399.347803614357
4451.878729955857,12783.174489567182
4451.901882034796,12155.08618834643
4451.925034234137,11745.63080904876
4451.948186553881,11274.328737395612
4451.97133899403,11127.718575525441
4451.994491554583,11200.650115934168
4452.017644235542,11611.511564930728
4452.040797036907,12227.587536130713
4452.063949958678,12855.27926800724
4452.087103000857,13871.375757793958
4452.1102561634425,14750.474788143792
4452.133409446437,15284.915298789307
4452.156562849841,16094.685227327214
4452.179716373655,16670.300284207395
4452.202870017878,16918.689920915018
4452.226023782513,17154.166972899115
4452.24917766756,17400.927912409326
4452.272331673018,17329.948065119203
4452.29548579889,17133.84047043199
4452.318640045174,16941.442241306715
4452.341794411874,16686.24349137199
4452.364948898987,16513.618933470854
4452.388103506516,16265.388108044775
4452.4112582344615,15949.4618427175
4452.434413082823,15248.36097758227
4452.457568051602,14580.818133140467
4452.480723140799,14021.26798931237
4452.503878350413,13318.894896680056
4452.527033680448,12750.081909787346
4452.550189130902,12170.571650690656
4452.5733447017765,11529.310598738379
4452.596500393071,11039.791603298701
4452.619656204789,10695.814913348779
4452.642812136928,10436.750309906793
4452.66596818949,10290.58185859017
4452.689124362475,10301.032096449868
4452.7122806558855,10331.4345545494
4452.735437069719,10512.583112114473
4452.7585936039795,10820.656789961084
4452.781750258665,11115.561790499198
4452.804907033777,11647.284803615308
4452.828063929317,12052.952775103158
4452.851220945285,12120.626980080644
4452.87437808168,12198.256093114505
4452.897535338506,12128.401859599124
4452.92069271576,11848.916059259116
4452.943850213445,11598.053196241002
4452.967007831562,11338.818309658116
4452.99016557011,11069.821033435039
4453.01332342909,11030.360124978524
4453.036481408502,11190.420317217484
4453.059639508349,11511.36010813985
4453.08279772863,11686.987866815463
4453.105956069345,11979.850087043496
4453.129114530496,11794.23623900284
4453.152273112083,11493.884812345994
4453.175431814107,11240.489892122316
4453.198590636567,10734.324650912102
4453.221749579466,10327.336125108106
4453.244908642802,10096.016375143381
4453.268067826579,9868.497420474778
4453.291227130795,9848.449245182734
4453.314386555451,10022.993519143609
4453.337546100549,10472.596901334293
4453.360705766087,11269.857821906107
4453.3838655520685,12131.204938390145
4453.407025458493,13089.283111809005
4453.430185485361,13996.666138598819
4453.453345632673,14612.20949923153
4453.476505900429,14847.152483796528
4453.4996662886315,14788.795804097017
4453.52282679728,14692.309856826234
4453.545987426375,14466.485556992086
4453.569148175917,14102.954629686705
4453.592309045907,13711.281987475886
4453.615470036346,13416.283845944552
4453.638631147233,13013.078772277455
4453.661792378571,12800.825245277103
4453.684953730359,12751.53451497024
4453.708115202598,12687.413490926729
4453.731276795288,13061.444233758739
4453.754438508431,13736.608233064482
4453.777600342027,14350.459556313479
4453.800762296077,14977.627763663402
4453.82392437058,15650.573217730669
4453.847086565538,16051.932175561917
4453.870248880952,16359.880343985778
4453.8934113168225,16535.184176788436
4453.916573873149,16662.94149351337
4453.939736549933,16797.781985551344
4453.962899347174,16625.412108923814
4453.986062264875,16628.724836484686
4454.009225303034,16622.73618631808
4454.032388461654,16272.543541970717
4454.055551740734,15805.194383632052
4454.078715140275,15382.581295368938
4454.101878660277,14954.365140733278
4454.125042300742,14009.90825564689
4454.14820606167,13180.529697111195
4454.171369943061,12385.918525440615
4454.194533944917,11393.243877095809
4454.2176980672375,10477.953463018091
4454.240862310024,9541.764941169718
4454.264026673275,8484.605142861705
4454.287191156994,7579.55613127257
4454.31035576118,6726.8055414839055
4454.333520485834,6116.75276190495
4454.356685330957,5759.010613879385
4454.379850296548,5684.665435553363
4454.40301538261,5826.831288131994
4454.426180589142,6192.558689027468
4454.449345916145,6607.328894512868
4454.4725113636205,7069.947276608674
4454.495676931568,7384.981506132932
4454.5188426199875,7473.663434702093
4454.542008428882,7417.042789052808
4454.565174358249,7015.00973621359
4454.588340408092,6441.335014606664
4454.611506578411,5754.20831726524
4454.634672869205,5080.67681939945
4454.657839280476,4401.446227717154
4454.681005812225,3935.675084977511
4454.704172464451,3612.2540918832833
4454.727339237156,3282.140731180057
4454.750506130341,3282.25400734536
4454.773673144005,3404.761984520137
4454.79684027815,3669.4633279121954
4454.820007532776,4138.3052678208505
4454.843174907884,4533.063124176555
4454.866342403473,5052.883982922367
4454.889510019546,5709.890597727064
4454.912677756102,6237.359458481664
4454.935845613144,6494.668324871177
4454.959013590669,6645.716154190866
4454.982181688681,7005.866891103737
4455.005349907178,7228.676639016501
4455.028518246162,7449.349133274494
4455.051686705633,7986.416546440009
4455.074855285593,8432.472751087595
4455.098023986041,8891.152627744359
4455.121192806979,9454.913594798716
4455.144361748406,9622.22208326516
4455.167530810323,9481.931260940295
4455.190699992732,9333.036861375938
4455.213869295633,9053.451936484315
4455.237038719026,8753.79405178667
4455.260208262912,8557.445469996954
4455.283377927292,8523.144633953789
4455.306547712166,8691.806531516291
4455.329717617535,9316.540541224704
4455.352887643399,10150.390991320548
4455.37605778976,11036.57114266841
4455.399228056617,12019.448199168972
4455.422398443972,13065.313585161835
4455.445568951825,13587.24346527539
4455.468739580177,13976.021108108687
4455.491910329028,14152.862445349976
4455.515081198378,14056.742132098716
4455.538252188229,13762.958904536883
4455.561423298582,13114.671035983823
4455.584594529436,12590.772347797663
4455.607765880793,11774.341157804944
4455.630937352652,10929.657160749879
4455.654108945016,9960.572284487545
4455.677280657883,9254.99558363526
4455.700452491255,8649.824698494642
4455.723624445134,7890.763983469501
4455.746796519518,7180.2629112187415
4455.7699687144095,6473.183343894728
4455.793141029808,5828.377766552877
4455.816313465714,5446.886478523662
4455.83948602213,5310.377022504769
4455.862658699055,5280.543158944207
4455.885831496489,5735.650069285287
4455.909004414434,6466.216294105464
4455.932177452891,7365.310316408252
4455.955350611858,8528.438508236559
4455.978523891339,9719.367900303016
4456.001697291333,11044.203170663503
4456.024870811841,11899.759062517136
4456.048044452862,12721.643119965362
4456.071218214399,13035.487683214622
4456.094392096451,13333.55440278566
4456.117566099019,13141.159367593616
4456.140740222105,12931.045273141066
4456.163914465707,12511.460801855377
4456.187088829828,11972.119399477711
4456.210263314468,11377.411749066441
4456.233437919626,10509.475942385137
4456.256612645306,9813.195247113024
4456.279787491505,9128.365841560837
4456.302962458226,8538.475121762878
4456.326137545469,8142.413512342619
4456.349312753233,7785.654794481727
4456.372488081522,7894.842301170881
4456.395663530333,8145.565064071913
4456.41883909967,8563.528675881364
4456.442014789531,8635.82233715369
4456.465190599917,9055.672024621277
4456.488366530831,9237.371045919024
4456.5115425822705,9176.797721741588
4456.5347187542375,9089.003801165527
4456.557895046733,8991.633929750906
4456.581071459757,8855.680177225875
4456.604247993311,8701.46453774535
4456.627424647395,8991.496563908888
4456.650601422009,9606.645777775635
4456.673778317154,10498.976365220222
4456.696955332832,11577.451538940672
4456.720132469041,12489.538183361197
4456.7433097257845,13246.383455339575
4456.766487103061,13965.440614818555
4456.789664600872,14446.03555353881
4456.8128422192185,14507.45704552494
4456.8360199581,14445.622790943858
4456.859197817518,14342.779388262245
4456.882375797473,14177.651375761956
4456.905553897966,13690.028386991171
4456.928732118997,13416.280797455218
4456.951910460566,13068.846594165303
4456.975088922674,12730.052220494588
4456.998267505323,12713.208986715796
4457.021446208513,12645.259884837778
4457.044625032244,12593.574505778164
4457.067803976516,12809.085358998513
4457.090983041332,13120.641478902413
4457.1141622266905,13386.71583223858
4457.1373415325925,13570.177844722857
4457.160520959039,13607.63688123194
4457.183700506031,13402.25758434996
4457.206880173568,13042.345207335584
4457.230059961651,12518.321239675295
4457.2532398702815,11776.65139703981
4457.27641989946,11081.988425493872
4457.299600049186,10312.142331146371
4457.322780319461,9286.273072764143
4457.345960710286,8293.519011454076
4457.36914122166,7604.95633505962
4457.392321853586,7021.8921715521665
4457.415502606062,6486.017997488586
4457.43868347909,6390.040037789703
4457.461864472672,6663.883805027715
4457.485045586805,7113.380941743283
4457.508226821494,7838.229367945478
4457.5314081767365,8601.234900675103
4457.554589652534,9583.542724477602
4457.577771248887,10682.974164769596
4457.600952965797,11661.912947459059
4457.624134803263,12657.20267938246
4457.647316761288,13460.542417803996
4457.67049883987,13980.490658374916
4457.693681039011,14360.65379140673
4457.716863358712,14626.090416488913
4457.7400457989725,14526.239300342146
4457.763228359793,14359.730111253952
4457.7864110411765,14116.447483295493
4457.809593843121,13919.56153820003
4457.832776765628,13558.316937712463
4457.855959808699,13169.783154490146
4457.879142972333,12743.614834825865
4457.902326256532,12096.530545832142
4457.925509661296,11392.11471139339
4457.948693186626,10750.401284214495
4457.971876832522,9957.020408570908
4457.995060598985,9175.637265793004
4458.018244486016,8556.135838530776
4458.041428493615,8040.421412472162
4458.0646126217825,7590.745716919358
4458.08779687052,7248.538192493296
4458.110981239827,7173.562031696366
4458.134165729705,7312.725953663736
4458.157350340155,7578.546584348126
4458.180535071177,7789.26748495671
4458.203719922771,8039.862157694446
4458.226904894938,8438.80277454241
4458.2500899876795,8773.283115656652
4458.273275200995,9216.099664637193
4458.296460534886,9730.043704194539
4458.3196459893525,10192.185389068409
4458.342831564396,10710.550687629184
4458.366017260016,11163.996718161456
4458.389203076214,11352.055635857767
4458.4123890129895,11274.99141303863
4458.435575070344,11020.820983659572
4458.458761248279,10787.149058626033
4458.481947546794,10689.610390915906
4458.505133965889,10551.04471233416
4458.528320505566,10914.919085528032
4458.551507165825,11385.676717220784
4458.574693946666,12171.781312814697
4458.597880848091,13157.715419067166
4458.6210678701,13872.155959284017
4458.644255012693,14473.495014278367
4458.6674422758715,14937.16227382527
4458.690629659636,15135.531009041772
4458.713817163986,14977.040064753657
4458.737004788924,14733.847832758094
4458.76019253445,14071.57353489802
4458.783380400563,13466.244662369676
4458.8065683872655,12754.344982796354
4458.829756494558,11724.23885722143
4458.85294472244,10847.477167116653
4458.876133070914,9891.013055915477
4458.899321539979,8987.567753457084
4458.922510129635,7882.167358056787
4458.945698839884,6838.563317316243
4458.968887670727,5892.282800105495
4458.992076622164,4979.396897246214
4459.015265694195,4394.680974359369
4459.0384548868215,3836.398753609845
4459.061644200044,3422.6373400417383
4459.084833633862,3361.839479996658
4459.108023188278,3533.5326525021405
4459.131212863292,3767.6713875367946
4459.154402658904,4230.919182246199
4459.177592575114,4808.656526675803
4459.200782611925,5394.766111614996
4459.223972769336,6028.119498972633
4459.247163047347,6734.097747211799
4459.27035344596,7377.667349210487
4459.293543965176,7785.189732072475
4459.316734604993,8536.2153911295
4459.339925365414,9008.617919352982
4459.363116246439,9555.69778265476
4459.386307248069,10440.926220670537
4459.409498370304,11449.367945047648
4459.432689613145,12565.009930486225
4459.455880976592,13436.203929695559
4459.479072460647,14123.115704573473
4459.502264065309,14638.983253150118
4459.52545579058,14696.725714818274
4459.5486476364595,14450.393443379668
4459.571839602949,14253.875221410392
4459.595031690048,13905.350082989538
4459.618223897759,13213.748173577033
4459.641416226081,12757.24991416021
4459.664608675014,12409.321947639202
4459.687801244561,11965.154001718462
4459.710993934721,11736.3759713515
4459.734186745496,11607.67276596541
4459.757379676885,11865.491570762997
4459.780572728889,12340.239307155123
4459.803765901509,12993.848776469074
4459.8269591947455,13559.234475732888
4459.850152608599,14217.731634406548
4459.87334614307,14652.556555729136
4459.89653979816,14857.742324404702
4459.91973357387,14927.246070393086
4459.942927470198,14546.955745435129
4459.966121487147,14099.560697024746
4459.989315624717,13556.355684305068
4460.0125098829085,12804.801954818777
4460.035704261722,12054.821909066255
4460.058898761158,11028.868426053003
4460.082093381218,10158.645239688765
4460.105288121902,9262.664339682251
4460.12848298321,8354.913053339336
4460.151677965145,7487.570773049494
4460.1748730677045,6808.109905059898
4460.198068290891,6482.44623390901
4460.221263634704,6335.963343307195
4460.244459099145,6549.258269880161
4460.267654684215,7198.965889189716
4460.290850389914,8029.6173640671295
4460.314046216243,8936.587613906511
4460.337242163202,9928.954017295779
4460.360438230791,11110.110150509992
4460.383634419013,12314.843114586889
4460.406830727867,13263.935707734201
4460.430027157354,14202.921209618165
4460.453223707474,15209.083372984242
4460.476420378228,15814.538028758006
4460.499617169617,16130.584161701769
4460.522814081641,16440.631584131297
4460.5460111143,16606.84288805304
4460.569208267598,16535.989914835787
4460.592405541532,16469.795883117
4460.615602936104,16529.71189710083
4460.638800451314,16505.236167931376
4460.661998087163,16366.206871806313
4460.685195843652,16062.015423447843
4460.708393720782,15786.434926644346
4460.731591718552,15648.520673563511
4460.754789836965,15372.988702843177
4460.777988076019,15077.220013053804
4460.801186435716,14883.61955197572
4460.824384916057,14692.28295076654
4460.847583517042,14378.998331563162
4460.870782238671,13956.795615740939
4460.893981080947,13323.207778716518
4460.917180043868,12599.842435429586
4460.940379127435,11834.961132602599
4460.963578331651,10836.972898060636
4460.986777656513,9888.311596168582
4461.009977102025,8982.092458744528
4461.033176668186,8058.444797001384
4461.056376354995,7046.362981800912
4461.079576162457,6310.801188199416
4461.102776090568,5849.675074878933
4461.125976139332,5510.042147042262
4461.149176308748,5431.729690653945
4461.172376598816,5395.578381479115
4461.195577009538,5533.216770962969
4461.218777540915,5695.589415914682
4461.241978192946,5836.083664774776
4461.265178965633,6108.093917982176
4461.2883798589755,6343.169322079298
4461.311580872974,6406.192982568425
4461.3347820076315,6383.13573837213
4461.357983262946,6220.143876249646
4461.381184638919,5824.360874722143
4461.404386135551,5510.37824234573
4461.4275877528435,5202.8525451808255
4461.4507894907965,4977.447080557978
4461.4739913494095,4847.282921206165
4461.497193328685,4687.880993197234
4461.520395428623,4543.650202798376
4461.543597649224,4273.5074089582695
4461.566799990488,4082.601598544569
4461.590002452416,3805.6015911138293
4461.61320503501,3638.80941302471
4461.636407738269,3587.051185934475
4461.659610562193,3809.901087036914
4461.682813506784,4309.879475700922
4461.706016572044,4953.952943839391
4461.729219757971,5606.355009070305
4461.752423064566,6382.356295040256
4461.775626491831,6991.21556109232
4461.798830039766,7486.81277352955
4461.82203370837,7881.454720319117
4461.845237497647,7865.505200873509
4461.868441407595,7647.156201824257
4461.891645438215,7366.613427563951
4461.914849589509,6944.533963397567
4461.938053861475,6516.871890244696
4461.961258254117,6363.685047090726
4461.984462767433,6247.949669737363
4462.007667401424,6480.144206434078
4462.030872156092,6944.322750026119
4462.0540770314365,7622.1286358531925
4462.077282027459,8526.59117764895
4462.100487144158,9202.471459761831
4462.123692381537,9796.282898630154
4462.146897739594,10285.020742266684
4462.170103218332,10558.681903459055
4462.19330881775,10700.017667549693
4462.21651453785,10643.82683552688
4462.239720378631,10565.671417341286
4462.262926340095,10257.163461517557
4462.286132422241,10179.710856838068
4462.309338625071,9801.079437263454
4462.3325449485865,9249.33891360262
4462.355751392785,8943.038919208664
4462.3789579576705,8528.80722556323
4462.402164643242,8291.073623719338
4462.4253714495,8508.603770696245
4462.448578376446,8853.693159130838
4462.471785424079,9397.46933450792
4462.494992592401,10232.660104837465
4462.518199881412,11509.331386257203
4462.541407291114,12678.913465539863
4462.564614821506,13292.41230064382
4462.587822472589,13944.282279061994
4462.611030244365,14220.585155313565
4462.634238136832,14370.182657124642
4462.657446149992,14340.413029483327
4462.680654283847,14155.260945270422
