wave,flux
4450.003811362098,13419.546061596197
4450.026953690486,13334.101606369071
4450.050096139227,13157.875128880278
4450.073238708321,12746.94859224634
4450.096381397769,12320.268173313107
4450.119524207569,11642.317144700162
4450.142667137726,10832.940570320956
4450.165810188237,10099.729498924404
4450.188953359103,9230.439239141746
4450.212096650326,8370.21215904171
4450.2352400619075,7391.617051459466
4450.258383593846,6537.087386106787
4450.281527246142,5728.7438356006705
4450.304671018797,5068.305965846833
4450.327814911813,4395.410538297323
4450.350958925188,3932.8102498075605
4450.374103058924,3641.4814472322305
4450.3972473130225,3386.145834154566
4450.420391687483,3168.508782518442
4450.443536182305,3137.888613694762
4450.466680797492,3233.2936421303816
4450.489825533042,3381.2869007721933
4450.512970388957,3758.22884643317
4450.536115365237,4339.81830799225
4450.559260461882,5015.338456243979
4450.582405678895,5565.870479308243
4450.605551016274,6129.4746786648975
4450.628696474022,6769.915515497311
4450.651842052138,7153.836207511489
4450.674987750623,7297.752936119789
4450.698133569476,7492.401613958483
4450.721279508702,7504.869726516289
4450.744425568297,7641.4607941668155
4450.767571748264,7932.089012103536
4450.790718048604,8216.850963243482
4450.813864469315,8573.983768194434
4450.837011010401,9015.642286224971
4450.86015767186,9520.840020524935
4450.883304453694,10008.248959332179
4450.906451355903,10709.528715350683
4450.929598378489,11578.929079760457
4450.95274552145,12352.464283617363
4450.975892784789,13260.395730950397
4450.999040168505,14092.511912471624
4451.022187672601,14850.467207838155
4451.045335297074,15239.870587494603
4451.068483041929,15532.70664307399
4451.091630907163,15859.300394181622
4451.114778892777,15910.148292110378
4451.137926998774,15783.608984154716
4451.161075225153,15748.778899707671
4451.184223571914,15667.307580260576
4451.207372039059,15218.275846533366
4451.230520626587,15001.624060798695
4451.253669334501,14601.584143934298
4451.2768181628,14119.748403082038
4451.299967111485,13573.599871735018
4451.323116180556,12931.60882630029
4451.346265370014,12229.50903485128
4451.369414679861,11396.51723410303
4451.392564110095,10636.556883697418
4451.415713660719,9713.288984446343
4451.438863331732,8897.135254576497
4451.462013123136,8117.897247569835
4451.48516303493,7364.4211618693425
4451.508313067117,6704.449557242796
4451.531463219695,6338.8402558436865
4451.554613492666,6166.7207461201415
4451.577763886031,6497.559704339862
4451.60091439979,7152.193926454569
4451.624065033943,7948.458671545319
4451.647215788492,9039.584351093301
4451.670366663436,10119.469115978196
4451.693517658777,11047.044648681242
4451.716668774516,11906.76353318048
4451.739820010652,12575.189839496852
4451.762971367186,13028.117498079815
4451.78612284412,13131.224961044913
4451.8092744414525,12822.3459334375
4451.832426159187,12501.705088353718
4451.855577997321,12153.980668605827
4451.878729955857,11687.155044544459
4451.901882034796,10991.370941501784
4451.925034234137,10622.277393393879
4451.948186553881,10318.294687540607
4451.97133899403,10258.945973214406
4451.994491554583,10266.601388714453
4452.017644235542,10622.296370642254
4452.040797036907,11389.172949803602
4452.063949958678,11888.060167473643
4452.087103000857,12750.420315083418
4452.1102561634425,13383.132594076262
4452.133409446437,13983.48773881509
4452.156562849841,14591.4791720325
4452.179716373655,14990.689528166333
4452.202870017878,15406.893718011568
4452.226023782513,15606.068483245352
4452.24917766756,15587.203130981154
4452.272331673018,15682.565705073814
4452.29548579889,15682.411621137817
4452.318640045174,15600.483181690513
4452.341794411874,15239.049802661037
4452.364948898987,15144.405657336538
4452.388103506516,14725.4628113189
4452.4112582344615,14317.36001862729
4452.434413082823,13901.09208603939
4452.457568051602,13366.653958112935
4452.480723140799,12868.967420378889
4452.503878350413,12126.890203798708
4452.527033680448,11566.770777131242
4452.550189130902,11164.141020095338
4452.5733447017765,10597.718702747641
4452.596500393071,10058.657960653105
4452.619656204789,9697.617994588258
4452.642812136928,9568.217066497782
4452.66596818949,9443.54953328235
4452.689124362475,9277.267098015102
4452.7122806558855,9382.982435696214
4452.735437069719,9665.447844479235
4452.7585936039795,9932.628778280008
4452.781750258665,10364.347639574022
4452.804907033777,10710.46132925819
4452.828063929317,11025.777830681694
4452.851220945285,11087.964802992039
4452.87437808168,11125.340411790929
4452.897535338506,11048.225499925344
4452.92069271576,10676.01429952626
4452.943850213445,10378.11184813618
4452.967007831562,10164.984603696266
4452.99016557011,10150.010525994749
4453.01332342909,10035.974824024244
4453.036481408502,10277.741944111607
4453.059639508349,10429.492955176132
4453.08279772863,10790.738207084545
4453.105956069345,10874.211312309031
4453.129114530496,10736.01803753799
4453.152273112083,10528.754541023449
4453.175431814107,10207.786118750155
4453.198590636567,9836.507190474955
4453.221749579466,9410.69367246652
4453.244908642802,9078.08847618868
4453.268067826579,8867.357786325989
4453.291227130795,8950.476046147996
4453.314386555451,9057.60190097411
4453.337546100549,9500.98317986908
4453.360705766087,10372.07888256489
4453.3838655520685,11185.23740837203
4453.407025458493,11997.509517880055
4453.430185485361,12746.03908250693
4453.453345632673,13241.40943365024
4453.476505900429,13495.364917134952
4453.4996662886315,13608.310225653519
4453.52282679728,13358.310082824206
4453.545987426375,13034.4385229134
4453.569148175917,12779.022629179335
4453.592309045907,12515.662553272192
4453.615470036346,12190.063170353036
4453.638631147233,11774.762409047065
4453.661792378571,11617.55281101379
4453.684953730359,11585.28168149201
4453.708115202598,11572.959461387487
4453.731276795288,11859.138504761775
4453.754438508431,12434.414284806127
4453.777600342027,13195.761765233545
4453.800762296077,13799.098842695708
4453.82392437058,14341.090395663145
4453.847086565538,14783.17908468974
4453.870248880952,14863.109112887585
4453.8934113168225,15146.61135372096
4453.916573873149,15436.922189884992
4453.939736549933,15509.417496269332
4453.962899347174,15358.978775702426
4453.986062264875,15263.54275585423
4454.009225303034,14993.564529658834
4454.032388461654,14886.446297758457
4454.055551740734,14588.099868594234
4454.078715140275,14057.74183476657
4454.101878660277,13446.267073755256
4454.125042300742,12828.48580713265
4454.14820606167,11956.126018799901
4454.171369943061,11282.989043845386
4454.194533944917,10436.242800190223
4454.2176980672375,9605.554678493096
4454.240862310024,8626.427436846232
4454.264026673275,7699.985772156294
4454.287191156994,6797.168278742338
4454.31035576118,6060.078477652492
4454.333520485834,5583.662304511271
4454.356685330957,5194.085448091931
4454.379850296548,5230.434670696573
4454.40301538261,5377.310898041
4454.426180589142,5741.808054330075
4454.449345916145,6083.100870367048
4454.4725113636205,6509.005079150456
4454.495676931568,6796.910431603907
4454.5188426199875,6920.819938686952
4454.542008428882,6744.5871029967575
4454.565174358249,6383.4833256616885
4454.588340408092,5888.166658438709
4454.611506578411,5236.715185296218
4454.634672869205,4631.219227327712
4454.657839280476,4073.7006841005923
4454.681005812225,3659.4471540415648
4454.704172464451,3273.0349908853973
4454.727339237156,3086.647834544464
4454.750506130341,3032.1115753000695
4454.773673144005,3164.874002547374
4454.79684027815,3346.1946890707504
4454.820007532776,3743.579522827638
4454.843174907884,4202.21624863996
4454.866342403473,4687.302560269479
4454.889510019546,5184.51127880451
4454.912677756102,5561.228697778323
4454.935845613144,5896.17531784279
4454.959013590669,6191.73790586934
4454.982181688681,6446.063513531901
4455.005349907178,6767.724279051258
4455.028518246162,6971.594322940353
4455.051686705633,7338.457795565749
4455.074855285593,7858.484114572584
4455.098023986041,8239.532389712276
4455.121192806979,8559.195779116908
4455.144361748406,8761.214527840151
4455.167530810323,8828.237966867071
4455.190699992732,8628.10213951217
4455.213869295633,8322.666756011116
4455.237038719026,7930.761808156477
4455.260208262912,7796.663086283026
4455.283377927292,7805.7586860280635
4455.306547712166,7923.752251578572
4455.329717617535,8511.580232072665
4455.352887643399,9288.838744280014
4455.37605778976,10209.014228087468
4455.399228056617,11035.242402140197
4455.422398443972,11927.998462714111
4455.445568951825,12585.486760902777
4455.468739580177,12911.76422626902
4455.491910329028,13031.134020870906
4455.515081198378,12839.772888432879
4455.538252188229,12375.028886855915
4455.561423298582,11909.788878573561
4455.584594529436,11356.313671693808
4455.607765880793,10757.419713164052
4455.630937352652,10009.105340423772
4455.654108945016,9187.167806827187
4455.677280657883,8613.695855004338
4455.700452491255,7844.578811160297
4455.723624445134,7105.099644289848
4455.746796519518,6431.155260099112
4455.7699687144095,5848.565703782076
4455.793141029808,5218.811724642328
4455.816313465714,4814.65373040917
4455.83948602213,4743.458167016574
4455.862658699055,4924.436135252961
4455.885831496489,5262.599346156575
4455.909004414434,6024.923532736857
4455.932177452891,6910.816861404992
4455.955350611858,7845.103016333484
4455.978523891339,8990.525833959082
4456.001697291333,10022.415382020614
4456.024870811841,10902.016161256572
4456.048044452862,11556.393669642326
4456.071218214399,11911.60205357
4456.094392096451,12173.504934921879
4456.117566099019,12092.646428641074
4456.140740222105,11840.80227497486
4456.163914465707,11329.273538884998
4456.187088829828,10918.150840475077
4456.210263314468,10327.803758361577
4456.233437919626,9705.958086078846
4456.256612645306,8946.324062580748
4456.279787491505,8226.814892131617
4456.302962458226,7713.3412545552665
4456.326137545469,7359.197975281282
4456.349312753233,7192.429980269398
4456.372488081522,7200.5959328003455
4456.395663530333,7497.17306598002
4456.41883909967,7672.700879492415
4456.442014789531,8086.13245979047
4456.465190599917,8281.135745531925
4456.488366530831,8413.970907160834
4456.5115425822705,8393.14337098212
4456.5347187542375,8248.730474191352
4456.557895046733,8118.16364010449
4456.581071459757,8035.476779604615
4456.604247993311,8021.386354373937
4456.627424647395,8325.52969458056
4456.650601422009,8787.094978425379
4456.673778317154,9624.236227677207
4456.696955332832,10672.148481541386
4456.720132469041,11531.568964799775
4456.7433097257845,12195.406370056007
4456.766487103061,12811.29900904574
4456.789664600872,13197.472031978288
4456.8128422192185,13309.197570630922
4456.8360199581,13499.790179900703
4456.859197817518,13257.467179129513
4456.882375797473,12828.068231840816
4456.905553897966,12547.087169523678
4456.928732118997,12213.636041477532
4456.951910460566,11873.568561862092
4456.975088922674,11722.451591574729
4456.998267505323,11596.721247598054
4457.021446208513,11519.458140878822
4457.044625032244,11604.82109705967
4457.067803976516,11703.694231034786
4457.090983041332,11972.310910623815
4457.1141622266905,12311.157470230977
4457.1373415325925,12460.277015328844
4457.160520959039,12387.997369986828
4457.183700506031,12146.998375485715
4457.206880173568,11912.373574977455
4457.230059961651,11468.279329004636
4457.2532398702815,10759.54662466189
4457.27641989946,10015.259425818791
4457.299600049186,9246.46543165236
4457.322780319461,8399.645938411628
4457.345960710286,7610.084600621752
4457.36914122166,6978.791982968836
4457.392321853586,6392.748168732061
4457.415502606062,6009.77550923051
4457.43868347909,5921.8504044919355
4457.461864472672,6155.325412421483
4457.485045586805,6553.492681895349
4457.508226821494,7116.39047034462
4457.5314081767365,7884.8867253187445
4457.554589652534,8707.731071593576
4457.577771248887,9655.568770923825
4457.600952965797,10686.372004245866
4457.624134803263,11618.20715750785
4457.647316761288,12274.448840362369
4457.67049883987,12861.710389780641
4457.693681039011,13218.662367597419
4457.716863358712,13196.528088273848
4457.7400457989725,13169.90144675524
4457.763228359793,13071.90414141635
4457.7864110411765,12938.4992455013
4457.809593843121,12672.22216336994
4457.832776765628,12479.234703758097
4457.855959808699,12075.959214319042
4457.879142972333,11583.72710397237
4457.902326256532,10947.985113664863
4457.925509661296,10379.269539201516
4457.948693186626,9852.413523167113
4457.971876832522,9053.564907701091
4457.995060598985,8491.93991186186
4458.018244486016,7813.139521728126
4458.041428493615,7351.235651845521
4458.0646126217825,6925.356556680039
4458.08779687052,6657.200331139297
4458.110981239827,6550.477306393551
4458.134165729705,6729.79111942249
4458.157350340155,6992.903124805716
4458.180535071177,7219.358169950052
4458.203719922771,7451.714928708661
4458.226904894938,7655.894412695349
4458.2500899876795,7968.723870743371
4458.273275200995,8398.292273909066
4458.296460534886,8962.041756505041
4458.3196459893525,9396.492794881962
4458.342831564396,10028.365068230127
4458.366017260016,10319.96309130469
4458.389203076214,10340.768789997017
4458.4123890129895,10251.922485729288
4458.435575070344,10064.741177897793
4458.458761248279,9854.725266615886
4458.481947546794,9717.53799882746
4458.505133965889,9872.348529412237
4458.528320505566,10027.1126117117
4458.551507165825,10282.4154126048
4458.574693946666,11220.91866434491
4458.597880848091,12047.571020063579
4458.6210678701,12703.459802377556
4458.644255012693,13344.679705040184
4458.6674422758715,13691.434294206038
4458.690629659636,13696.414509426253
4458.713817163986,13632.731374879864
4458.737004788924,13350.164933773742
4458.76019253445,13011.42460907444
4458.783380400563,12308.419565394692
4458.8065683872655,11546.371426697318
4458.829756494558,10784.940432576017
4458.85294472244,9857.748186096918
4458.876133070914,8989.566213377622
4458.899321539979,8133.629084401135
4458.922510129635,6997.70391904706
4458.945698839884,6136.165725445727
4458.968887670727,5330.394869502554
4458.992076622164,4521.502726096476
4459.015265694195,3896.88011033439
4459.0384548868215,3371.780968315331
4459.061644200044,3143.3505707827803
4459.084833633862,3011.1699548307292
4459.108023188278,3188.4341945431092
4459.131212863292,3506.1610082548395
4459.154402658904,3928.573565862685
4459.177592575114,4402.410382748275
4459.200782611925,5095.357010034305
4459.223972769336,5669.089887672933
4459.247163047347,6197.7036885803955
4459.27035344596,6786.310509678978
4459.293543965176,7299.0334677715555
4459.316734604993,7806.395045243392
4459.339925365414,8369.673893013774
4459.363116246439,8935.843166205084
4459.386307248069,9728.543341728428
4459.409498370304,10630.90561364739
4459.432689613145,11622.660811819942
4459.455880976592,12338.935125129583
4459.479072460647,12883.47502420327
4459.502264065309,13302.666926823253
4459.52545579058,13335.986942508627
4459.5486476364595,13178.856041495284
4459.571839602949,12949.582964635463
4459.595031690048,12725.126572200408
4459.618223897759,12254.043297072067
4459.641416226081,11919.197881069646
4459.664608675014,11426.37799041224
4459.687801244561,10980.43454724508
4459.710993934721,10775.372880457115
4459.734186745496,10699.841707465976
4459.757379676885,10809.163874926793
4459.780572728889,11336.417218090619
4459.803765901509,11967.011171080674
4459.8269591947455,12450.898007945827
4459.850152608599,12994.90133679603
4459.87334614307,13470.915508318538
4459.89653979816,13644.116385536514
4459.91973357387,13670.040169879112
4459.942927470198,13484.066212218417
4459.966121487147,12932.335232464657
4459.989315624717,12287.925297654892
4460.0125098829085,11660.577874295212
4460.035704261722,10970.80904424246
4460.058898761158,10077.461713702618
4460.082093381218,9278.729049195998
4460.105288121902,8349.894984644836
4460.12848298321,7545.560567019503
4460.151677965145,6806.64650630173
4460.1748730677045,6270.619084330533
4460.198068290891,5838.571189966177
4460.221263634704,5760.515046770479
4460.244459099145,6012.669408331043
4460.267654684215,6570.790000823955
4460.290850389914,7260.061800222875
4460.314046216243,8226.583877867368
4460.337242163202,9332.612193458028
4460.360438230791,10220.89959492538
4460.383634419013,11292.10227164379
4460.406830727867,12370.615882975668
4460.430027157354,13153.702801640233
4460.453223707474,13773.998880552077
4460.476420378228,14384.525620344652
4460.499617169617,14820.782107740577
4460.522814081641,15014.964758309508
4460.5460111143,15082.07077589044
4460.569208267598,15165.894810458723
4460.592405541532,15354.646909087602
4460.615602936104,15143.894724801552
4460.638800451314,15069.666931028623
4460.661998087163,14904.875183380285
4460.685195843652,14733.846793133705
4460.708393720782,14645.666108521043
4460.731591718552,14278.92631594625
4460.754789836965,13979.937196928106
4460.777988076019,13682.483715929424
4460.801186435716,13404.879810370267
4460.824384916057,13401.260779124856
4460.847583517042,13216.682044962896
4460.870782238671,12625.489896783754
4460.893981080947,11985.13111990172
4460.917180043868,11470.044165342322
4460.940379127435,10825.21013007025
4460.963578331651,9902.734322012631
4460.986777656513,9034.649838732
4461.009977102025,8138.606162408158
4461.033176668186,7233.628655860157
4461.056376354995,6424.369758340516
4461.079576162457,5796.9038967797715
4461.102776090568,5292.917064959134
4461.125976139332,4990.513419676926
4461.149176308748,4915.411220123389
4461.172376598816,4916.392018104079
4461.195577009538,5011.574570388048
4461.218777540915,5248.826924416127
4461.241978192946,5383.243079764239
4461.265178965633,5574.007172565853
4461.2883798589755,5774.271170612879
4461.311580872974,5805.990836878154
4461.3347820076315,5732.038350111195
4461.357983262946,5647.047639857397
4461.381184638919,5340.871174508795
4461.404386135551,5062.912813342519
4461.4275877528435,4727.18889955518
4461.4507894907965,4462.144120260845
4461.4739913494095,4377.609206719488
4461.497193328685,4298.612159745762
4461.520395428623,4167.291580894665
4461.543597649224,3880.9396067167254
4461.566799990488,3672.0880437794626
4461.590002452416,3461.763713657674
4461.61320503501,3379.088449538287
4461.636407738269,3298.0929560477925
4461.659610562193,3525.4106155629306
4461.682813506784,3924.2985702839055
4461.706016572044,4477.074900060258
4461.729219757971,5219.039111015168
4461.752423064566,5848.384111731153
4461.775626491831,6501.415133812413
4461.798830039766,7052.765444922094
4461.82203370837,7186.130664720266
4461.845237497647,7180.930494400024
4461.868441407595,6943.67288394171
4461.891645438215,6756.2782495258925
4461.914849589509,6269.6590367535855
4461.938053861475,5960.475858084361
4461.961258254117,5632.834271756557
4461.984462767433,5657.436697878075
4462.007667401424,5876.357741495093
4462.030872156092,6364.656516875117
4462.0540770314365,7057.687409593826
4462.077282027459,7853.688496311198
4462.100487144158,8456.237606045015
4462.123692381537,8955.590449750443
4462.146897739594,9389.057619019755
4462.170103218332,9703.424130825037
4462.19330881775,9749.437006134898
4462.21651453785,9906.870310645863
4462.239720378631,9714.212875374122
4462.262926340095,9399.627568188995
4462.286132422241,9207.344681050525
4462.309338625071,8810.552392324278
4462.3325449485865,8551.617760941464
4462.355751392785,8043.204010344281
4462.3789579576705,7777.667097431464
4462.402164643242,7697.231479352331
4462.4253714495,7821.1327042550865
4462.448578376446,8112.341846910686
4462.471785424079,8673.173168711322
4462.494992592401,9530.805124815644
4462.518199881412,10484.353469320082
4462.541407291114,11404.22636190536
4462.564614821506,12230.420621709642
4462.587822472589,12847.643872596911
4462.611030244365,13025.538017985586
4462.634238136832,13197.831364632144
4462.657446149992,13098.162652710638
4462.680654283847,12878.79968880467
4462.703862538396,12640.104035159142
