wave,flux
4450.003811362098,9267.140989406518
4450.026953690486,9209.0074723221
4450.050096139227,9049.000856036244
4450.073238708321,8686.286350958717
4450.096381397769,8250.560884851633
4450.119524207569,7838.366703880437
4450.142667137726,7376.1497076388605
4450.165810188237,6883.504764420166
4450.188953359103,6230.876392540909
4450.212096650326,5602.1452162383575
4450.2352400619075,4930.074686504939
4450.258383593846,4371.618249680328
4450.281527246142,3773.8094675746615
4450.304671018797,3243.89555286067
4450.327814911813,2901.847512023101
4450.350958925188,2688.4971792376573
4450.374103058924,2423.3437514354355
4450.3972473130225,2324.091590628448
4450.420391687483,2163.334750993689
4450.443536182305,2165.02244960642
4450.466680797492,2221.2579006912833
4450.489825533042,2373.6594755306137
4450.512970388957,2738.097638452243
4450.536115365237,3115.9603953617466
4450.559260461882,3575.591712992246
4450.582405678895,3952.126103896226
4450.605551016274,4414.904723267172
4450.628696474022,4732.594559640728
4450.651842052138,4999.111669972723
4450.674987750623,5194.833044230004
4450.698133569476,5117.405845307671
4450.721279508702,5188.687111072551
4450.744425568297,5404.677339433566
4450.767571748264,5494.206997617458
4450.790718048604,5694.751492216533
4450.813864469315,6068.64461795628
4450.837011010401,6296.593271238373
4450.86015767186,6605.7895072816345
4450.883304453694,7091.421944275241
4450.906451355903,7583.308274463312
4450.929598378489,8201.606058069588
4450.95274552145,8703.38628407188
4450.975892784789,9292.119570674022
4450.999040168505,9853.183294426593
4451.022187672601,10264.234270287701
4451.045335297074,10591.882838307989
4451.068483041929,10849.778520752825
4451.091630907163,10795.344606205334
4451.114778892777,10949.894757812111
4451.137926998774,10937.765202712739
4451.161075225153,10886.415752882767
4451.184223571914,10666.45492428116
4451.207372039059,10443.487375634295
4451.230520626587,10366.647333628884
4451.253669334501,10036.578682055178
4451.2768181628,9595.418976448163
4451.299967111485,9114.128268727485
4451.323116180556,8905.518850800676
4451.346265370014,8274.422253263527
4451.369414679861,7770.169901491831
4451.392564110095,7180.502062642194
4451.415713660719,6549.655669701928
4451.438863331732,5893.121117811215
4451.462013123136,5378.153506699311
4451.48516303493,4894.030091658579
4451.508313067117,4549.13337388758
4451.531463219695,4372.394935061614
4451.554613492666,4360.761731847483
4451.577763886031,4642.144555522868
4451.60091439979,5156.940530374777
4451.624065033943,5853.13111528379
4451.647215788492,6493.4114805526115
4451.670366663436,7233.150293332269
4451.693517658777,8026.326685091973
4451.716668774516,8467.086497518267
4451.739820010652,8881.34234485304
4451.762971367186,9131.70047517976
4451.78612284412,9031.880832726096
4451.8092744414525,8859.917359273388
4451.832426159187,8593.416630160247
4451.855577997321,8306.561215444171
4451.878729955857,7932.437895855927
4451.901882034796,7522.5243013346835
4451.925034234137,7273.501909899914
4451.948186553881,7051.929908023265
4451.97133899403,6887.207793217446
4451.994491554583,7118.800738210965
4452.017644235542,7477.059882808
4452.040797036907,8059.4987268814375
4452.063949958678,8509.33723729969
4452.087103000857,9003.78703790715
4452.1102561634425,9442.820586731159
4452.133409446437,10001.255562425291
4452.156562849841,10217.886493759734
4452.179716373655,10679.948726310164
4452.202870017878,10860.025660895795
4452.226023782513,10838.578282009003
4452.24917766756,10930.641645156431
4452.272331673018,11003.398406424183
4452.29548579889,10878.074377926585
4452.318640045174,10796.170437827926
4452.341794411874,10580.002184178942
4452.364948898987,10413.108555184142
4452.388103506516,10167.58354738484
4452.4112582344615,9891.464149752126
4452.434413082823,9570.283387261887
4452.457568051602,9139.684620080112
4452.480723140799,8663.57379662716
4452.503878350413,8268.74243817155
4452.527033680448,7896.535517366021
4452.550189130902,7478.726878016051
4452.5733447017765,7124.854593470043
4452.596500393071,6872.284391412942
4452.619656204789,6637.836193602763
4452.642812136928,6509.58145853542
4452.66596818949,6499.786446575449
4452.689124362475,6488.240372441377
4452.7122806558855,6545.380500904938
4452.735437069719,6693.610287059595
4452.7585936039795,7045.424551460403
4452.781750258665,7354.8251237633285
4452.804907033777,7480.407474004118
4452.828063929317,7629.554445309182
4452.851220945285,7816.272841313347
4452.87437808168,7788.247350083234
4452.897535338506,7535.1438693933405
4452.92069271576,7311.079219518428
4452.943850213445,7142.515562510861
4452.967007831562,6956.444101257042
4452.99016557011,7008.265917290032
4453.01332342909,7013.812191852629
4453.036481408502,7205.599563242914
4453.059639508349,7378.926691808337
4453.08279772863,7462.569348285723
4453.105956069345,7498.107533146654
4453.129114530496,7439.928512784079
4453.152273112083,7233.428548252447
4453.175431814107,6944.456965394592
4453.198590636567,6693.303333543285
4453.221749579466,6505.7231878987695
4453.244908642802,6245.284796262561
4453.268067826579,6040.373589003477
4453.291227130795,6054.842213683267
4453.314386555451,6429.676116601041
4453.337546100549,6825.115039700551
4453.360705766087,7419.09113297086
4453.3838655520685,8015.814375100218
4453.407025458493,8598.745051021968
4453.430185485361,8968.159343482379
4453.453345632673,9299.753917073287
4453.476505900429,9434.390374053199
4453.4996662886315,9433.545955100662
4453.52282679728,9164.999356512599
4453.545987426375,8898.025828169893
4453.569148175917,8743.023565932848
4453.592309045907,8494.632574070887
4453.615470036346,8320.226155101476
4453.638631147233,8164.174659849582
4453.661792378571,7977.996476842365
4453.684953730359,7889.022747284079
4453.708115202598,8148.490311712062
4453.731276795288,8509.011959010011
4453.754438508431,8811.926774475016
4453.777600342027,9321.899494168645
4453.800762296077,9682.410504921345
4453.82392437058,10070.942388027916
4453.847086565538,10385.666636360906
4453.870248880952,10506.215165465455
4453.8934113168225,10598.925209815025
4453.916573873149,10672.100371010818
4453.939736549933,10833.311450634887
4453.962899347174,10805.611344141433
4453.986062264875,10557.916912542403
4454.009225303034,10466.50857452539
4454.032388461654,10347.596158419234
4454.055551740734,9841.730712195922
4454.078715140275,9496.974227708377
4454.101878660277,9217.699077376212
4454.125042300742,8622.59662646061
4454.14820606167,8226.576423093966
4454.171369943061,7589.216618886146
4454.194533944917,6935.398942121177
4454.2176980672375,6457.076677034484
4454.240862310024,5663.049221472268
4454.264026673275,5058.502895523843
4454.287191156994,4598.64053118675
4454.31035576118,3997.5381123405396
4454.333520485834,3640.6166633575713
4454.356685330957,3559.835457562164
4454.379850296548,3558.165237608664
4454.40301538261,3725.4256825708194
4454.426180589142,4062.000215411703
4454.449345916145,4409.929872254338
4454.4725113636205,4692.092995187787
4454.495676931568,4802.622157137277
4454.5188426199875,4827.153241866461
4454.542008428882,4586.082560905982
4454.565174358249,4264.594419257377
4454.588340408092,3913.413164891193
4454.611506578411,3431.307866614568
4454.634672869205,3002.542802482741
4454.657839280476,2653.574731694138
4454.681005812225,2371.4740565916336
4454.704172464451,2150.733753308227
4454.727339237156,2081.3804726557123
4454.750506130341,2083.1338074014616
4454.773673144005,2207.5853172449947
4454.79684027815,2385.400955364208
4454.820007532776,2689.430724434693
4454.843174907884,3031.9131896874865
4454.866342403473,3359.995725708197
4454.889510019546,3717.369401052305
4454.912677756102,4003.433185769432
4454.935845613144,4224.0698501262505
4454.959013590669,4407.14925978171
4454.982181688681,4512.858195232015
4455.005349907178,4660.725221134554
4455.028518246162,4910.2193020641935
4455.051686705633,5170.186564533623
4455.074855285593,5562.604340755415
4455.098023986041,5919.535416897538
4455.121192806979,6085.838885080045
4455.144361748406,6147.360029846607
4455.167530810323,6042.508417931179
4455.190699992732,5889.245696128028
4455.213869295633,5645.930783976736
4455.237038719026,5475.645726770586
4455.260208262912,5344.3678471381145
4455.283377927292,5366.703905011171
4455.306547712166,5655.5877269506245
4455.329717617535,6048.119257721426
4455.352887643399,6678.487421369836
4455.37605778976,7387.83142557668
4455.399228056617,7957.9064122938735
4455.422398443972,8437.864625735863
4455.445568951825,8778.461020548615
4455.468739580177,9039.002401214426
4455.491910329028,9071.131438591417
4455.515081198378,8973.654567879083
4455.538252188229,8558.917278091112
4455.561423298582,8120.0836945673245
4455.584594529436,7718.90749038074
4455.607765880793,7198.812980895696
4455.630937352652,6709.787362472662
4455.654108945016,6223.939643904247
4455.677280657883,5694.147950495319
4455.700452491255,5037.316781142516
4455.723624445134,4840.423023956405
4455.746796519518,4404.827678982834
4455.7699687144095,3829.383571271086
4455.793141029808,3535.581999005176
4455.816313465714,3321.6571941091265
4455.83948602213,3288.286274052729
4455.862658699055,3346.5167665191707
4455.885831496489,3784.990124909306
4455.909004414434,4361.321018319317
4455.932177452891,4938.098595441353
4455.955350611858,5772.706208284568
4455.978523891339,6564.0838173267875
4456.001697291333,7300.742067760137
4456.024870811841,7816.346249697045
4456.048044452862,8205.940623825836
4456.071218214399,8251.678773962743
4456.094392096451,8392.894542754939
4456.117566099019,8376.801987809342
4456.140740222105,7997.584631930474
4456.163914465707,7660.867453620454
4456.187088829828,7430.292712239234
4456.210263314468,6920.106974136187
4456.233437919626,6528.840283266216
4456.256612645306,5999.569558654549
4456.279787491505,5580.023139410043
4456.302962458226,5292.237171570419
4456.326137545469,5067.924614978253
4456.349312753233,4977.481596185722
4456.372488081522,5009.9647079613305
4456.395663530333,5240.07501157816
4456.41883909967,5460.380857683229
4456.442014789531,5577.340848875317
4456.465190599917,5805.434665281512
4456.488366530831,5860.838800494932
4456.5115425822705,5888.872996088031
4456.5347187542375,5700.648788974909
4456.557895046733,5557.660147196685
4456.581071459757,5521.180513583796
4456.604247993311,5447.70603312605
4456.627424647395,5792.264116137614
4456.650601422009,6413.669945366184
4456.673778317154,6966.993207275187
4456.696955332832,7545.486935902445
4456.720132469041,8169.368796394112
4456.7433097257845,8794.094600198452
4456.766487103061,9046.717659779251
4456.789664600872,9163.939650632312
4456.8128422192185,9196.11353991298
4456.8360199581,9153.125876946528
4456.859197817518,8964.331020451355
4456.882375797473,8760.383166731914
4456.905553897966,8592.098479038004
4456.928732118997,8466.583408174623
4456.951910460566,8255.85133418458
4456.975088922674,8005.182459886055
4456.998267505323,7927.845246970571
4457.021446208513,7950.563264045627
4457.044625032244,8010.68675894376
4457.067803976516,8203.63050296484
4457.090983041332,8378.766032893935
4457.1141622266905,8601.991510025544
4457.1373415325925,8718.589811068552
4457.160520959039,8573.067117931276
4457.183700506031,8398.542879125516
4457.206880173568,8110.734467390402
4457.230059961651,7758.947530091756
4457.2532398702815,7324.545858553815
4457.27641989946,6842.631591409661
4457.299600049186,6294.862040974724
4457.322780319461,5614.6008111788105
4457.345960710286,5068.065073070614
4457.36914122166,4579.2304534332
4457.392321853586,4184.397364477143
4457.415502606062,4069.3599383535457
4457.43868347909,4061.173873677747
4457.461864472672,4235.444193829793
4457.485045586805,4576.381405419729
4457.508226821494,5097.2646520029375
4457.5314081767365,5702.879342339486
4457.554589652534,6371.0833319579215
4457.577771248887,7017.141082349548
4457.600952965797,7707.9221013785755
4457.624134803263,8218.5206100803
4457.647316761288,8705.522799310527
4457.67049883987,9094.51823868878
4457.693681039011,9222.169140348316
4457.716863358712,9167.759872806402
4457.7400457989725,9065.03205834602
4457.763228359793,9062.412202523581
4457.7864110411765,8926.649663950315
4457.809593843121,8685.22537079972
4457.832776765628,8523.596889919392
4457.855959808699,8278.337702964473
4457.879142972333,7966.07205582311
4457.902326256532,7497.9290266659855
4457.925509661296,7084.503351235997
4457.948693186626,6589.698061203466
4457.971876832522,6149.642590408533
4457.995060598985,5600.822479762686
4458.018244486016,5176.3192782546375
4458.041428493615,4871.555001199749
4458.0646126217825,4680.309566044712
4458.08779687052,4552.654760096993
4458.110981239827,4549.663657532176
4458.134165729705,4728.282571541929
4458.157350340155,4921.764475350143
4458.180535071177,5069.828634666575
4458.203719922771,5196.618712276481
4458.226904894938,5493.269187938322
4458.2500899876795,5611.540626612496
4458.273275200995,5927.365410344408
4458.296460534886,6389.081242021981
4458.3196459893525,6776.329230379313
4458.342831564396,7076.178885899884
4458.366017260016,7199.386410103788
4458.389203076214,7078.960820596689
4458.4123890129895,7020.005151986737
4458.435575070344,7003.654001462502
4458.458761248279,6761.958471548822
4458.481947546794,6727.28076810897
4458.505133965889,6742.845735133221
4458.528320505566,6964.551392693326
4458.551507165825,7579.309135782155
4458.574693946666,8017.014024969919
4458.597880848091,8552.695465371942
4458.6210678701,8958.295299695963
4458.644255012693,9393.91147229232
4458.6674422758715,9627.02211028244
4458.690629659636,9597.698421596946
4458.713817163986,9557.875067334053
4458.737004788924,9233.364669963183
4458.76019253445,8827.385891053604
4458.783380400563,8366.437952278688
4458.8065683872655,7963.356079468879
4458.829756494558,7304.949903960428
4458.85294472244,6583.213560329017
4458.876133070914,5952.76723631876
4458.899321539979,5345.704862100055
4458.922510129635,4740.732924609139
4458.945698839884,4056.6372931216897
4458.968887670727,3372.1852339447796
4458.992076622164,2914.382140184411
4459.015265694195,2521.946260141889
4459.0384548868215,2273.39742108641
4459.061644200044,2154.3304024693275
4459.084833633862,2187.3099016388455
4459.108023188278,2376.0857946842293
4459.131212863292,2541.796891145969
4459.154402658904,2802.2923771244214
4459.177592575114,3190.177539466199
4459.200782611925,3609.508063829207
4459.223972769336,4053.7282879083286
4459.247163047347,4467.254009135742
4459.27035344596,4857.163203244327
4459.293543965176,5146.945192488996
4459.316734604993,5535.054945121518
4459.339925365414,5885.145046070178
4459.363116246439,6357.847724113788
4459.386307248069,7078.081350713503
4459.409498370304,7768.120535616227
4459.432689613145,8291.421574390233
4459.455880976592,8760.296287811825
4459.479072460647,9184.04644011822
4459.502264065309,9291.794896335385
4459.52545579058,9297.631836278819
4459.5486476364595,9232.479985087219
4459.571839602949,8934.8449444413
4459.595031690048,8649.783154957753
4459.618223897759,8468.62608667515
4459.641416226081,8030.818391056849
4459.664608675014,7748.411006602747
4459.687801244561,7527.294639031223
4459.710993934721,7313.299354809373
4459.734186745496,7387.552287797357
4459.757379676885,7586.152897617152
4459.780572728889,7910.32149582259
4459.803765901509,8364.31827638148
4459.8269591947455,8762.314867562825
4459.850152608599,9182.502908108596
4459.87334614307,9398.777396289415
4459.89653979816,9517.897666680257
4459.91973357387,9475.383662175494
4459.942927470198,9239.496752414174
4459.966121487147,8895.693001989423
4459.989315624717,8397.949187831646
4460.0125098829085,7946.338949178389
4460.035704261722,7493.258023376703
4460.058898761158,6823.4926437913255
4460.082093381218,6146.654233390047
4460.105288121902,5606.253527181015
4460.12848298321,5047.4217740923
4460.151677965145,4551.623709361979
4460.1748730677045,4169.215088369861
4460.198068290891,4002.411591166157
4460.221263634704,3975.2812948131377
4460.244459099145,4203.679975833866
4460.267654684215,4700.044415695089
4460.290850389914,5285.469162026151
4460.314046216243,5926.738595723844
4460.337242163202,6590.514799998857
4460.360438230791,7273.478480516839
4460.383634419013,8045.646763685131
4460.406830727867,8782.717920466312
4460.430027157354,9459.073031537026
4460.453223707474,9847.317793126966
4460.476420378228,10047.053597705672
4460.499617169617,10429.832236045726
4460.522814081641,10479.736907634635
4460.5460111143,10406.957471337313
4460.569208267598,10504.112257246175
4460.592405541532,10549.960572944296
4460.615602936104,10508.491573765317
4460.638800451314,10477.042771737773
4460.661998087163,10379.67832090213
4460.685195843652,10176.242742571094
4460.708393720782,9923.866236733236
4460.731591718552,9721.685717225413
4460.754789836965,9669.662291324572
4460.777988076019,9521.12395554441
4460.801186435716,9382.238031939729
4460.824384916057,9264.099826809812
4460.847583517042,9025.796206664052
4460.870782238671,8714.642979985807
4460.893981080947,8385.88605891903
4460.917180043868,7848.604203314247
4460.940379127435,7264.475809816124
4460.963578331651,6607.327219652477
4460.986777656513,6008.58849374568
4461.009977102025,5393.257467444385
4461.033176668186,4756.438113394704
4461.056376354995,4285.644779306313
4461.079576162457,3893.797037529089
4461.102776090568,3651.311007307979
4461.125976139332,3446.023969149539
4461.149176308748,3371.2619370670855
4461.172376598816,3416.6025653446395
4461.195577009538,3504.765696504452
4461.218777540915,3690.4210979686127
4461.241978192946,3832.383582091217
4461.265178965633,4021.0263017643147
4461.2883798589755,4157.750461171242
4461.311580872974,4148.21001510102
4461.3347820076315,4062.2444455454147
4461.357983262946,3885.29443015125
4461.381184638919,3622.5172899746944
4461.404386135551,3462.6983408754377
4461.4275877528435,3213.7545123897344
4461.4507894907965,3147.9501891786836
4461.4739913494095,3019.643187694045
4461.497193328685,2960.9901834879356
4461.520395428623,2819.364442096999
4461.543597649224,2708.7406708764274
4461.566799990488,2537.0188777359385
4461.590002452416,2432.009055466079
4461.61320503501,2270.182880780065
4461.636407738269,2386.6980456218107
4461.659610562193,2568.6277641780052
4461.682813506784,2904.894878898257
4461.706016572044,3281.0190290764976
4461.729219757971,3768.4039884828503
4461.752423064566,4210.302428187423
4461.775626491831,4525.183824965969
4461.798830039766,4881.906629676925
4461.82203370837,5025.862648378654
4461.845237497647,5008.5323583760955
4461.868441407595,4827.518123947811
4461.891645438215,4526.343001220074
4461.914849589509,4257.8754403114235
4461.938053861475,3997.1343595321437
4461.961258254117,3872.876789784692
4461.984462767433,3924.1840942571353
4462.007667401424,4217.748156248185
4462.030872156092,4537.351830553568
4462.0540770314365,5159.319398430624
4462.077282027459,5672.818953477724
4462.100487144158,6016.386407454274
4462.123692381537,6421.102132216547
4462.146897739594,6695.363251920257
4462.170103218332,6847.987689669115
4462.19330881775,6843.405802409982
4462.21651453785,6719.659016490383
4462.239720378631,6753.560673467263
4462.262926340095,6548.542542900765
4462.286132422241,6400.408884113903
4462.309338625071,6070.318282185402
4462.3325449485865,5764.296005516488
4462.355751392785,5556.325817749927
4462.3789579576705,5242.917176772617
4462.402164643242,5168.758109935375
4462.4253714495,5396.000850948746
4462.448578376446,5723.229228428338
4462.471785424079,6260.705316596001
4462.494992592401,6992.227666791344
4462.518199881412,7599.082302164941
4462.541407291114,8135.646769990104
4462.564614821506,8550.64785404526
4462.587822472589,8957.466256832078
4462.611030244365,9198.413994322063
4462.634238136832,9108.786870497472
4462.657446149992,8991.813757675234
4462.680654283847,8862.222117980427
4462.703862538396,8692.000569706854
4462.727070913639,8512.34586373102
4462.750279409578,8330.196745892334
4462.773488026214,8022.6808388280415
4462.796696763546,7695.441499912437
4462.819905621575,7368.874363116934
