wave,flux
4450.003811362098,14371.39900740571
4450.026953690486,14230.912975215728
4450.050096139227,13962.364059769283
4450.073238708321,13388.31661149242
4450.096381397769,12823.006162743279
4450.119524207569,12294.97326304077
4450.142667137726,11507.033813037004
4450.165810188237,10571.334711495569
4450.188953359103,9763.161678596478
4450.212096650326,8737.820717007158
4450.2352400619075,7738.017536060879
4450.258383593846,6888.234640434472
4450.281527246142,5819.102536973201
4450.304671018797,5133.839023560417
4450.327814911813,4489.722424706909
4450.350958925188,4099.510660724438
4450.374103058924,3782.578401036156
4450.3972473130225,3523.9282355815462
4450.420391687483,3433.9947903208686
4450.443536182305,3356.517083388807
4450.466680797492,3563.575195716238
4450.489825533042,3693.32247511317
4450.512970388957,4178.479316093525
4450.536115365237,4813.165056104396
4450.559260461882,5472.033266894821
4450.582405678895,6175.870278414462
4450.605551016274,6946.747406349562
4450.628696474022,7338.4672551424665
4450.651842052138,7702.9857834582845
4450.674987750623,7892.881594762911
4450.698133569476,7929.890433164335
4450.721279508702,8109.6712653357445
4450.744425568297,8281.748854201105
4450.767571748264,8370.285041785994
4450.790718048604,8836.563209022208
4450.813864469315,9271.10000683336
4450.837011010401,9643.5230966851
4450.86015767186,10265.025168006634
4450.883304453694,10844.25044740596
4450.906451355903,11591.72250399051
4450.929598378489,12569.68552459779
4450.95274552145,13648.257695878943
4450.975892784789,14558.600493045327
4450.999040168505,15371.56936641411
4451.022187672601,16045.695487185303
4451.045335297074,16564.712846615308
4451.068483041929,16766.416564251755
4451.091630907163,16854.009534626482
4451.114778892777,16929.297411718355
4451.137926998774,16876.17680314095
4451.161075225153,16823.649391822593
4451.184223571914,16507.86966317117
4451.207372039059,16233.164012420362
4451.230520626587,15914.040423800616
4451.253669334501,15456.125715982726
4451.2768181628,15032.153675713253
4451.299967111485,14260.90691938364
4451.323116180556,13722.01285720328
4451.346265370014,12921.110099930353
4451.369414679861,11957.781060740725
4451.392564110095,11068.144042268608
4451.415713660719,10147.234938673944
4451.438863331732,9253.34931372404
4451.462013123136,8354.341169507015
4451.48516303493,7705.03674997272
4451.508313067117,7053.854929835156
4451.531463219695,6673.355334024824
4451.554613492666,6718.173372668033
4451.577763886031,7139.745351491417
4451.60091439979,7978.0332756362595
4451.624065033943,8934.495718731188
4451.647215788492,10027.65969174141
4451.670366663436,11128.08236353578
4451.693517658777,12187.72045935045
4451.716668774516,13140.743073069185
4451.739820010652,13639.611387807725
4451.762971367186,13995.257125582415
4451.78612284412,14019.395236287974
4451.8092744414525,13690.00590912881
4451.832426159187,13426.149003096289
4451.855577997321,13019.338372331995
4451.878729955857,12314.160876997117
4451.901882034796,11890.43788651096
4451.925034234137,11395.086151938878
4451.948186553881,10765.141927973682
4451.97133899403,10830.169889411925
4451.994491554583,11066.282555841944
4452.017644235542,11540.768168785884
4452.040797036907,12219.49357361052
4452.063949958678,13063.042147607224
4452.087103000857,13759.109132597992
4452.1102561634425,14696.148820203469
4452.133409446437,15390.809903879519
4452.156562849841,15836.367732913774
4452.179716373655,16405.049354306117
4452.202870017878,16675.16515666615
4452.226023782513,16898.963038794962
4452.24917766756,16782.374029116087
4452.272331673018,16834.12643016216
4452.29548579889,16697.96677799819
4452.318640045174,16627.61492357262
4452.341794411874,16331.05054802815
4452.364948898987,16129.55554401006
4452.388103506516,15794.386577237856
4452.4112582344615,15271.399537185049
4452.434413082823,14772.181811092201
4452.457568051602,14114.433682116058
4452.480723140799,13434.087001993465
4452.503878350413,12864.215543000979
4452.527033680448,12175.469435814539
4452.550189130902,11565.09121573736
4452.5733447017765,11081.396977328684
4452.596500393071,10534.408889017715
4452.619656204789,10110.151934552065
4452.642812136928,10021.36382885121
4452.66596818949,10043.516907818177
4452.689124362475,10022.544871342227
4452.7122806558855,10198.252834976178
4452.735437069719,10498.832980245268
4452.7585936039795,10929.575058332186
4452.781750258665,11336.872495410002
4452.804907033777,11716.096139081896
4452.828063929317,11925.315639999395
4452.851220945285,11999.908413858358
4452.87437808168,11944.0900326456
4452.897535338506,11659.426410391563
4452.92069271576,11437.39304488176
4452.943850213445,11118.754335775468
4452.967007831562,10812.069250090579
4452.99016557011,10871.17481296218
4453.01332342909,10938.841794286713
4453.036481408502,11075.51639161151
4453.059639508349,11275.493946790915
4453.08279772863,11515.91848713663
4453.105956069345,11533.650283987065
4453.129114530496,11483.812543660382
4453.152273112083,11285.6857859076
4453.175431814107,10800.507222993041
4453.198590636567,10356.130734928787
4453.221749579466,9999.29276947353
4453.244908642802,9633.497883857019
4453.268067826579,9463.696341572679
4453.291227130795,9559.028122611535
4453.314386555451,9933.800759348256
4453.337546100549,10456.969823066966
4453.360705766087,11418.895040506502
4453.3838655520685,12352.641933209154
4453.407025458493,13233.71640982914
4453.430185485361,13955.568074751196
4453.453345632673,14358.810576624794
4453.476505900429,14518.71774847176
4453.4996662886315,14323.961033363994
4453.52282679728,14246.101505265171
4453.545987426375,13939.815472739652
4453.569148175917,13579.084017071937
4453.592309045907,13203.451237335361
4453.615470036346,12773.45401753474
4453.638631147233,12620.184777899922
4453.661792378571,12458.026587021795
4453.684953730359,12261.548748948795
4453.708115202598,12452.834077995076
4453.731276795288,12918.83404041031
4453.754438508431,13578.288880717133
4453.777600342027,14358.19494432868
4453.800762296077,14889.320808910514
4453.82392437058,15432.383681443902
4453.847086565538,15806.241845739005
4453.870248880952,16149.059564571053
4453.8934113168225,16456.22163573999
4453.916573873149,16433.60434604123
4453.939736549933,16295.294438770696
4453.962899347174,16380.816189089352
4453.986062264875,16400.320863011406
4454.009225303034,16182.346878251781
4454.032388461654,15764.98771452891
4454.055551740734,15397.288787139625
4454.078715140275,14862.321607512096
4454.101878660277,14113.039308417307
4454.125042300742,13411.079045963508
4454.14820606167,12703.381148274191
4454.171369943061,11786.216864814502
4454.194533944917,10854.171298024463
4454.2176980672375,9739.873237881198
4454.240862310024,8878.23063216804
4454.264026673275,7817.79525894352
4454.287191156994,6987.575897031824
4454.31035576118,6278.924253867461
4454.333520485834,5723.326872498934
4454.356685330957,5601.204102876368
4454.379850296548,5491.356202738052
4454.40301538261,5846.189864557027
4454.426180589142,6282.051547654368
4454.449345916145,6849.443675134911
4454.4725113636205,7144.178237199841
4454.495676931568,7393.576626556015
4454.5188426199875,7408.769088300308
4454.542008428882,7227.568639379049
4454.565174358249,6770.466693436815
4454.588340408092,6116.254358952083
4454.611506578411,5402.150712286592
4454.634672869205,4671.298765866228
4454.657839280476,4169.396430270984
4454.681005812225,3711.371833945577
4454.704172464451,3373.452499817538
4454.727339237156,3309.954313660508
4454.750506130341,3283.1596123633976
4454.773673144005,3389.098028362461
4454.79684027815,3759.734977662031
4454.820007532776,4231.531663580857
4454.843174907884,4666.731421689114
4454.866342403473,5219.974329540894
4454.889510019546,5670.48554711441
4454.912677756102,6020.584236250379
4454.935845613144,6392.009737255026
4454.959013590669,6744.730062202233
4454.982181688681,6918.416400723204
4455.005349907178,7128.980171287661
4455.028518246162,7626.518786134591
4455.051686705633,8116.556443563126
4455.074855285593,8705.583917864915
4455.098023986041,9185.88170308144
4455.121192806979,9346.39734698394
4455.144361748406,9486.384114537783
4455.167530810323,9425.601703770471
4455.190699992732,9151.644403503813
4455.213869295633,8794.166163240367
4455.237038719026,8428.06047195287
4455.260208262912,8234.605800099042
4455.283377927292,8371.936477368643
4455.306547712166,8749.090551511503
4455.329717617535,9383.24050737746
4455.352887643399,10205.189023416233
4455.37605778976,11288.011218421527
4455.399228056617,12292.142048555452
4455.422398443972,13039.632008697134
4455.445568951825,13580.698545841653
4455.468739580177,13663.839482374362
4455.491910329028,13952.974670287436
4455.515081198378,13665.314520988744
4455.538252188229,13298.421481168984
4455.561423298582,12685.669817330725
4455.584594529436,11868.004774975754
4455.607765880793,11166.198642556348
4455.630937352652,10375.858062554069
4455.654108945016,9503.780352904667
4455.677280657883,8834.421041011456
4455.700452491255,8043.614856608535
4455.723624445134,7242.75131447305
4455.746796519518,6690.971772956265
4455.7699687144095,6028.2652957593655
4455.793141029808,5389.658098091855
4455.816313465714,5134.11365447992
4455.83948602213,5031.433559790068
4455.862658699055,5373.685085641405
4455.885831496489,5808.061288282999
4455.909004414434,6724.0530235856695
4455.932177452891,7678.628253404158
4455.955350611858,8967.827616784569
4455.978523891339,10101.938604970808
4456.001697291333,11188.266757991754
4456.024870811841,11991.301757139285
4456.048044452862,12612.011993697834
4456.071218214399,12893.054370586457
4456.094392096451,13061.409933439303
4456.117566099019,12872.085430995428
4456.140740222105,12599.18786392111
4456.163914465707,12189.15639319381
4456.187088829828,11498.82046146469
4456.210263314468,10811.66452943333
4456.233437919626,10051.75190901318
4456.256612645306,9298.979872326501
4456.279787491505,8683.805083165396
4456.302962458226,8136.078831152885
4456.326137545469,7736.296380023843
4456.349312753233,7668.888579089778
4456.372488081522,7692.818282235486
4456.395663530333,8105.007929670383
4456.41883909967,8522.238519973524
4456.442014789531,8743.87686775673
4456.465190599917,8972.528548438428
4456.488366530831,9134.918073734956
4456.5115425822705,8972.6061019275
4456.5347187542375,8866.732250030867
4456.557895046733,8504.865070334808
4456.581071459757,8551.556502626052
4456.604247993311,8639.990668597802
4456.627424647395,9036.136956948807
4456.650601422009,9755.165398613071
4456.673778317154,10697.067112216944
4456.696955332832,11711.256904121912
4456.720132469041,12642.704255256767
4456.7433097257845,13464.85084455677
4456.766487103061,14043.0602799369
4456.789664600872,14356.725579507993
4456.8128422192185,14363.046272110807
4456.8360199581,14320.40033056864
4456.859197817518,14092.945377999396
4456.882375797473,13784.360765648631
4456.905553897966,13363.462309229137
4456.928732118997,12934.814917348756
4456.951910460566,12751.636977828932
4456.975088922674,12452.383900540688
4456.998267505323,12400.479370541734
4457.021446208513,12346.061648988041
4457.044625032244,12324.583429785078
4457.067803976516,12668.688609985924
4457.090983041332,13108.01776514931
4457.1141622266905,13392.778679640953
4457.1373415325925,13336.828036628029
4457.160520959039,13338.803360715268
4457.183700506031,13195.551227956905
4457.206880173568,12563.311977222203
4457.230059961651,12017.452593371869
4457.2532398702815,11462.226630846622
4457.27641989946,10517.980883251315
4457.299600049186,9670.625237174065
4457.322780319461,8887.441177755563
4457.345960710286,7938.14601598066
4457.36914122166,7110.501022376028
4457.392321853586,6593.910054305169
4457.415502606062,6299.123425452776
4457.43868347909,6196.384165383304
4457.461864472672,6517.857055023193
4457.485045586805,7131.660241642745
4457.508226821494,7856.470194114252
4457.5314081767365,8825.584877591724
4457.554589652534,9773.157907784958
4457.577771248887,10786.104263156498
4457.600952965797,11863.52106364976
4457.624134803263,12640.41869569039
4457.647316761288,13426.06579682461
4457.67049883987,13932.0130766086
4457.693681039011,14180.511623660626
4457.716863358712,14288.636930023555
4457.7400457989725,14208.725267480228
4457.763228359793,14018.889463764724
4457.7864110411765,13974.760309394867
4457.809593843121,13524.739111911227
4457.832776765628,13211.326948565844
4457.855959808699,12837.921837799653
4457.879142972333,12225.72791300616
4457.902326256532,11544.23345355074
4457.925509661296,10899.717648630209
4457.948693186626,10133.631227209384
4457.971876832522,9431.103766690638
4457.995060598985,8779.193888266176
4458.018244486016,8088.694993493022
4458.041428493615,7599.502634216773
4458.0646126217825,7281.450456415489
4458.08779687052,7041.736914726867
4458.110981239827,6925.892758441397
4458.134165729705,7165.503551972514
4458.157350340155,7564.179192950761
4458.180535071177,7836.827958616253
4458.203719922771,8103.887121473637
4458.226904894938,8311.974733124214
4458.2500899876795,8631.462092176083
4458.273275200995,9176.142938816478
4458.296460534886,9816.17721515673
4458.3196459893525,10463.594822611722
4458.342831564396,10834.746040254577
4458.366017260016,11114.198891828572
4458.389203076214,11100.216471354954
4458.4123890129895,10858.611624778176
4458.435575070344,10637.62994455201
4458.458761248279,10450.74110108134
4458.481947546794,10332.507076428412
4458.505133965889,10450.90306906415
4458.528320505566,10814.312612769052
4458.551507165825,11399.4159833398
4458.574693946666,12290.85817628144
4458.597880848091,13117.844717691345
4458.6210678701,14042.86196493306
4458.644255012693,14545.722151966716
4458.6674422758715,14826.3135082415
4458.690629659636,14741.797842098738
4458.713817163986,14584.506812238233
4458.737004788924,14173.587200959662
4458.76019253445,13626.016660168661
4458.783380400563,12961.0998820714
4458.8065683872655,12108.65000313529
4458.829756494558,11322.978754592034
4458.85294472244,10348.618483306656
4458.876133070914,9362.47162026441
4458.899321539979,8304.775845709859
4458.922510129635,7283.784070729024
4458.945698839884,6318.646834659774
4458.968887670727,5404.920826616241
4458.992076622164,4553.251002723956
4459.015265694195,3901.898089371274
4459.0384548868215,3468.237594624795
4459.061644200044,3265.7632272579967
4459.084833633862,3346.166756731828
4459.108023188278,3493.2211124823784
4459.131212863292,3892.191746440222
4459.154402658904,4356.833439466176
4459.177592575114,4879.238126809255
4459.200782611925,5599.180609364383
4459.223972769336,6227.678005372703
4459.247163047347,6846.3475840251485
4459.27035344596,7426.820165062348
4459.293543965176,7970.657357847714
4459.316734604993,8377.347347867895
4459.339925365414,9022.86084379096
4459.363116246439,9788.011005997974
4459.386307248069,10659.73343597155
4459.409498370304,11565.193749035945
4459.432689613145,12608.594171713132
4459.455880976592,13567.668770041482
4459.479072460647,14158.715793673276
4459.502264065309,14276.1381716966
4459.52545579058,14328.35750432752
4459.5486476364595,14256.023876797619
4459.571839602949,13811.869598163172
4459.595031690048,13374.927115426535
4459.618223897759,13093.520459669171
4459.641416226081,12505.219460004546
4459.664608675014,11886.574016626138
4459.687801244561,11651.563829920387
4459.710993934721,11380.797850040191
4459.734186745496,11422.7192997563
4459.757379676885,11635.305324043527
4459.780572728889,12192.360502590274
4459.803765901509,12936.20125434186
4459.8269591947455,13661.089961293428
4459.850152608599,14037.087085788302
4459.87334614307,14453.156059472685
4459.89653979816,14569.699278521914
4459.91973357387,14547.490210575656
4459.942927470198,14148.691683217643
4459.966121487147,13837.321893464352
4459.989315624717,13172.800966115632
4460.0125098829085,12421.026951990516
4460.035704261722,11476.542622098905
4460.058898761158,10551.942833418718
4460.082093381218,9628.71141509106
4460.105288121902,8794.471278160623
4460.12848298321,7897.312834391653
4460.151677965145,6891.606886464182
4460.1748730677045,6335.858988330345
4460.198068290891,6183.632577371346
4460.221263634704,6240.996175934452
4460.244459099145,6609.379785052413
4460.267654684215,7191.186704539301
4460.290850389914,7986.248924358445
4460.314046216243,9100.326023533516
4460.337242163202,10301.487130380912
4460.360438230791,11287.48970711951
4460.383634419013,12369.737582266851
4460.406830727867,13420.09427269501
4460.430027157354,14309.204489743723
4460.453223707474,15024.599425805643
4460.476420378228,15609.998099752176
4460.499617169617,15916.187767852161
4460.522814081641,16152.771958110174
4460.5460111143,16387.24876256085
4460.569208267598,16357.5517627595
4460.592405541532,16253.368450034366
4460.615602936104,16121.595164649578
4460.638800451314,16225.352592552386
4460.661998087163,16116.891835560164
4460.685195843652,15684.524045413573
4460.708393720782,15389.51486754451
4460.731591718552,15267.917711389626
4460.754789836965,15058.19120586152
4460.777988076019,14825.71875034307
4460.801186435716,14575.863536202536
4460.824384916057,14346.956251810327
4460.847583517042,13962.704407500869
4460.870782238671,13405.995287408898
4460.893981080947,12895.591964263418
4460.917180043868,12175.4630871775
4460.940379127435,11394.472382694039
4460.963578331651,10452.286448170815
4460.986777656513,9330.751685265222
4461.009977102025,8376.64949335754
4461.033176668186,7419.256777113766
4461.056376354995,6648.21588019627
4461.079576162457,6039.900164946554
4461.102776090568,5515.909312425955
4461.125976139332,5285.694838019882
4461.149176308748,5248.166635006844
4461.172376598816,5329.306921577448
4461.195577009538,5481.0932893442005
4461.218777540915,5646.303206594963
4461.241978192946,5865.29686003614
4461.265178965633,6186.2776715154405
4461.2883798589755,6300.528215390614
4461.311580872974,6278.353638406562
4461.3347820076315,6170.669534583524
4461.357983262946,5969.343383868414
4461.381184638919,5642.243944512326
4461.404386135551,5249.407264290983
4461.4275877528435,5016.568661541699
4461.4507894907965,4891.675046988148
4461.4739913494095,4741.258149645014
4461.497193328685,4566.67826857874
4461.520395428623,4401.504412482963
4461.543597649224,4100.351215230544
4461.566799990488,3822.782901422292
4461.590002452416,3581.3947775309002
4461.61320503501,3496.758742367766
4461.636407738269,3597.37759089365
4461.659610562193,3854.3972078592374
4461.682813506784,4456.120302038198
4461.706016572044,4999.332249345081
4461.729219757971,5811.341497630649
4461.752423064566,6423.226792057938
4461.775626491831,7174.955705471934
4461.798830039766,7583.863504242888
4461.82203370837,7733.021976974761
4461.845237497647,7736.600514019904
4461.868441407595,7446.245818696162
4461.891645438215,7038.750496024845
4461.914849589509,6655.886491281751
4461.938053861475,6229.61007571178
4461.961258254117,5961.121304225645
4461.984462767433,6055.618737085431
4462.007667401424,6354.459793277657
4462.030872156092,7101.643688422702
4462.0540770314365,7696.174746654479
4462.077282027459,8524.677643777828
4462.100487144158,9352.122315117631
4462.123692381537,9949.155248297795
4462.146897739594,10330.26740354161
4462.170103218332,10503.824892319974
4462.19330881775,10513.300532651041
4462.21651453785,10423.370823032672
4462.239720378631,10266.087191014014
4462.262926340095,10193.824484813555
4462.286132422241,9870.2948719883
4462.309338625071,9507.103489915255
4462.3325449485865,8884.820855779499
4462.355751392785,8359.400380346022
4462.3789579576705,8141.159860455716
4462.402164643242,8106.300198033367
4462.4253714495,8267.836534179878
4462.448578376446,8812.33637780341
4462.471785424079,9707.88874985483
4462.494992592401,10714.649924749538
4462.518199881412,11647.911453189265
4462.541407291114,12656.756365073697
4462.564614821506,13371.887990238103
4462.587822472589,13940.987090299279
4462.611030244365,14277.750510453467
4462.634238136832,14305.995867940574
4462.657446149992,13979.313470300294
4462.680654283847,13729.294269386613
4462.703862538396,13498.332430377463
