wave,flux
4450.003811362098,17940.74958178371
4450.026953690486,17799.045513812354
4450.050096139227,17537.735790188188
4450.073238708321,17018.2679431819
4450.096381397769,16328.096908235557
4450.119524207569,15595.563392508308
4450.142667137726,14607.474589619971
4450.165810188237,13489.09251476973
4450.188953359103,12401.793845072703
4450.212096650326,11271.239813729264
4450.2352400619075,10222.541220371395
4450.258383593846,9023.12713873312
4450.281527246142,7820.716806482954
4450.304671018797,6828.014401216062
4450.327814911813,5978.939819307232
4450.350958925188,5436.99716050147
4450.374103058924,4799.1644034055735
4450.3972473130225,4473.283723264338
4450.420391687483,4377.883562174654
4450.443536182305,4265.356434764428
4450.466680797492,4284.475984771099
4450.489825533042,4481.356322470941
4450.512970388957,4875.787812648563
4450.536115365237,5449.063652096015
4450.559260461882,6271.896956847304
4450.582405678895,7293.449021528447
4450.605551016274,8180.186371434234
4450.628696474022,8886.083505720826
4450.651842052138,9477.923153655458
4450.674987750623,9680.600759715828
4450.698133569476,9866.869181730357
4450.721279508702,9921.210807005464
4450.744425568297,10026.210037594738
4450.767571748264,10332.572671405982
4450.790718048604,10765.853485064044
4450.813864469315,11275.4667022552
4450.837011010401,11846.036870943699
4450.86015767186,12526.641214948331
4450.883304453694,13107.916876264127
4450.906451355903,13947.602717433383
4450.929598378489,15159.655292317433
4450.95274552145,16233.698963870922
4450.975892784789,17504.636957559476
4450.999040168505,18641.231149448213
4451.022187672601,19513.691157034835
4451.045335297074,20214.923885240056
4451.068483041929,20526.888874945966
4451.091630907163,20955.574384817544
4451.114778892777,20985.950013285496
4451.137926998774,21079.287835387615
4451.161075225153,21077.963125447677
4451.184223571914,20767.621043011764
4451.207372039059,20339.18850981595
4451.230520626587,20001.967219741065
4451.253669334501,19364.928978849057
4451.2768181628,18874.789783490443
4451.299967111485,18223.63396181278
4451.323116180556,17390.293047370422
4451.346265370014,16449.38390396458
4451.369414679861,15473.926834250795
4451.392564110095,14114.938078797419
4451.415713660719,13048.678882911796
4451.438863331732,11945.037539246487
4451.462013123136,10972.796535620666
4451.48516303493,9900.546017682303
4451.508313067117,8925.167623870133
4451.531463219695,8643.729832217216
4451.554613492666,8456.13258987042
4451.577763886031,8620.164903056826
4451.60091439979,9253.495019065822
4451.624065033943,10403.071986842311
4451.647215788492,11869.877793576263
4451.670366663436,13118.150633565314
4451.693517658777,14343.525583730374
4451.716668774516,15599.89123197597
4451.739820010652,16588.5093866556
4451.762971367186,17046.644493488307
4451.78612284412,17069.412736891434
4451.8092744414525,17031.232790973343
4451.832426159187,16758.644714334318
4451.855577997321,16204.547942269646
4451.878729955857,15489.43866330867
4451.901882034796,14881.994450310061
4451.925034234137,14295.855471027455
4451.948186553881,13769.612454647211
4451.97133899403,13586.946577034332
4451.994491554583,13629.178309608618
4452.017644235542,13976.06176244668
4452.040797036907,14716.23726488208
4452.063949958678,15637.232165341858
4452.087103000857,16537.503568166605
4452.1102561634425,17684.186008682267
4452.133409446437,18433.525792332293
4452.156562849841,19323.997569666615
4452.179716373655,19954.18462710459
4452.202870017878,20450.38433486598
4452.226023782513,20929.37111758864
4452.24917766756,20806.978541069224
4452.272331673018,20869.810816945144
4452.29548579889,20576.22198772016
4452.318640045174,20490.645343422668
4452.341794411874,20194.238134742878
4452.364948898987,20170.682104156247
4452.388103506516,19879.494922458834
4452.4112582344615,19275.80545981843
4452.434413082823,18568.952533747128
4452.457568051602,17865.29228476471
4452.480723140799,17133.23060925097
4452.503878350413,16446.070313000808
4452.527033680448,15582.16188255411
4452.550189130902,14738.76103073373
4452.5733447017765,14151.733673363104
4452.596500393071,13528.749211961367
4452.619656204789,12976.795943527995
4452.642812136928,12652.962165285335
4452.66596818949,12478.49282205418
4452.689124362475,12413.705405598359
4452.7122806558855,12461.191122943834
4452.735437069719,12639.410387501062
4452.7585936039795,12995.788058947513
4452.781750258665,13605.538196515761
4452.804907033777,14074.91205314785
4452.828063929317,14459.804815332836
4452.851220945285,14756.504392535893
4452.87437808168,14949.648357892058
4452.897535338506,14831.163387007347
4452.92069271576,14442.75886717705
4452.943850213445,13995.632798742954
4452.967007831562,13634.809519667182
4452.99016557011,13453.155512206773
4453.01332342909,13208.985884226147
4453.036481408502,13504.621022813868
4453.059639508349,13668.679197304718
4453.08279772863,13935.37880216632
4453.105956069345,14301.16635137297
4453.129114530496,14364.901145002164
4453.152273112083,14043.760890466505
4453.175431814107,13628.131489109073
4453.198590636567,13065.738213628172
4453.221749579466,12654.184205333411
4453.244908642802,12229.498476155744
4453.268067826579,11926.620469255418
4453.291227130795,11844.541209465948
4453.314386555451,12006.630441783193
4453.337546100549,12609.902283927202
4453.360705766087,13565.851170087146
4453.3838655520685,14545.626810579917
4453.407025458493,15845.02501341888
4453.430185485361,16707.642925431388
4453.453345632673,17330.99808640137
4453.476505900429,17670.978271365748
4453.4996662886315,17929.987320369448
4453.52282679728,17865.630365274268
4453.545987426375,17536.753366162608
4453.569148175917,17151.244934566315
4453.592309045907,16646.753481653875
4453.615470036346,16125.220032665102
4453.638631147233,15849.317977396098
4453.661792378571,15468.460178595278
4453.684953730359,15193.611838448427
4453.708115202598,15471.85009620632
4453.731276795288,15823.840015042024
4453.754438508431,16406.935776454044
4453.777600342027,17381.94230623362
4453.800762296077,18167.689507048446
4453.82392437058,18781.43999380538
4453.847086565538,19395.413512066163
4453.870248880952,19845.945003342767
4453.8934113168225,20149.285738202456
4453.916573873149,20305.439819906744
4453.939736549933,20437.724308602334
4453.962899347174,20512.997406320486
4453.986062264875,20242.032501742553
4454.009225303034,20115.289295730265
4454.032388461654,19644.18198412523
4454.055551740734,19326.094995396546
4454.078715140275,18653.132608958505
4454.101878660277,17995.70612922523
4454.125042300742,16904.714928505327
4454.14820606167,16009.694786776243
4454.171369943061,15211.766687576735
4454.194533944917,14032.047265453988
4454.2176980672375,12842.670749524923
4454.240862310024,11776.015797074167
4454.264026673275,10480.321274615642
4454.287191156994,9318.553775593493
4454.31035576118,8506.001481150117
4454.333520485834,7598.910068712762
4454.356685330957,7112.027759690255
4454.379850296548,6907.474358769429
4454.40301538261,7046.669437024789
4454.426180589142,7455.083622240259
4454.449345916145,7976.337484282112
4454.4725113636205,8509.10552372622
4454.495676931568,8928.698495368732
4454.5188426199875,9063.225596051454
4454.542008428882,8947.086596447316
4454.565174358249,8612.550862644479
4454.588340408092,8000.271088536234
4454.611506578411,7117.330369464374
4454.634672869205,6252.88059787196
4454.657839280476,5483.225467047198
4454.681005812225,4876.838950333669
4454.704172464451,4437.29768952807
4454.727339237156,4131.187376380396
4454.750506130341,4067.882568213538
4454.773673144005,4077.2282486802346
4454.79684027815,4374.7579005502475
4454.820007532776,4812.295612558739
4454.843174907884,5397.485252536061
4454.866342403473,6026.660021748171
4454.889510019546,6715.765652853636
4454.912677756102,7422.97569402733
4454.935845613144,7934.755880105807
4454.959013590669,8202.298646545021
4454.982181688681,8397.096910061906
4455.005349907178,8636.451528904116
4455.028518246162,9051.897092895475
4455.051686705633,9585.025891631709
4455.074855285593,10214.055133841985
4455.098023986041,10949.794451149344
4455.121192806979,11341.325521699193
4455.144361748406,11616.377325181338
4455.167530810323,11812.704326908426
4455.190699992732,11499.398132538015
4455.213869295633,11038.290408422625
4455.237038719026,10688.051044092745
4455.260208262912,10492.131662333637
4455.283377927292,10318.635456583848
4455.306547712166,10443.58857071828
4455.329717617535,11028.201018459378
4455.352887643399,12031.170645678334
4455.37605778976,13203.623448784729
4455.399228056617,14354.26936633375
4455.422398443972,15447.691954090455
4455.445568951825,16549.689894446063
4455.468739580177,17007.520934855154
4455.491910329028,17101.163525206888
4455.515081198378,17040.80903452731
4455.538252188229,16752.473230972613
4455.561423298582,16048.509142392557
4455.584594529436,15235.53226754723
4455.607765880793,14425.812825434781
4455.630937352652,13511.731494289766
4455.654108945016,12336.149631402619
4455.677280657883,11534.493965460733
4455.700452491255,10513.796452474511
4455.723624445134,9609.347487077648
4455.746796519518,8821.078836652534
4455.7699687144095,7982.200928278901
4455.793141029808,7196.092451071947
4455.816313465714,6706.589752089722
4455.83948602213,6508.996859413633
4455.862658699055,6444.418050689423
4455.885831496489,6965.647179287468
4455.909004414434,7656.0089833852335
4455.932177452891,8814.84645279723
4455.955350611858,10040.523510707695
4455.978523891339,11755.14117816249
4456.001697291333,13016.409372622496
4456.024870811841,14275.288433050977
4456.048044452862,15205.028065548006
4456.071218214399,15836.735525550748
4456.094392096451,15970.444686094368
4456.117566099019,16006.286068609686
4456.140740222105,15770.776248636905
4456.163914465707,15192.92326415455
4456.187088829828,14613.638826575614
4456.210263314468,13748.82504951043
4456.233437919626,12908.641283803026
4456.256612645306,12069.068767884586
4456.279787491505,11262.357944818037
4456.302962458226,10354.197494606762
4456.326137545469,9876.08342027949
4456.349312753233,9543.096276588907
4456.372488081522,9575.745877296524
4456.395663530333,9785.712540645542
4456.41883909967,10172.159607847812
4456.442014789531,10684.707956541986
4456.465190599917,11066.936767043284
4456.488366530831,11155.26589818338
4456.5115425822705,11088.68228766849
4456.5347187542375,11063.34839380939
4456.557895046733,11032.52050404122
4456.581071459757,10689.90166130569
4456.604247993311,10672.525938017508
4456.627424647395,10966.888977190707
4456.650601422009,11572.276818295271
4456.673778317154,12577.016768278085
4456.696955332832,13870.062321949586
4456.720132469041,15001.0072726897
4456.7433097257845,15921.843361346686
4456.766487103061,16898.23840649361
4456.789664600872,17605.018354695305
4456.8128422192185,17733.02162488752
4456.8360199581,17580.98637370649
4456.859197817518,17504.213277417624
4456.882375797473,17184.37035128998
4456.905553897966,16800.149478716583
4456.928732118997,16327.506902144969
4456.951910460566,15961.371993553463
4456.975088922674,15714.73291766328
4456.998267505323,15523.092814659423
4457.021446208513,15191.271576288547
4457.044625032244,15175.802222936209
4457.067803976516,15504.481678736836
4457.090983041332,15846.513757492978
4457.1141622266905,16164.20095794308
4457.1373415325925,16460.541187954837
4457.160520959039,16529.254667321457
4457.183700506031,16362.250838728642
4457.206880173568,15921.073528816934
4457.230059961651,15186.625100067822
4457.2532398702815,14428.104759184565
4457.27641989946,13552.725359426227
4457.299600049186,12620.133260375434
4457.322780319461,11583.1585765137
4457.345960710286,10460.937419321755
4457.36914122166,9478.49024896696
4457.392321853586,8669.643379400795
4457.415502606062,8033.900269635288
4457.43868347909,7810.140408487311
4457.461864472672,7997.846669804926
4457.485045586805,8573.090496321001
4457.508226821494,9393.3724848912
4457.5314081767365,10208.43920519192
4457.554589652534,11404.637290401299
4457.577771248887,12675.304858390218
4457.600952965797,13892.669660440233
4457.624134803263,15107.609422871568
4457.647316761288,16090.65852677093
4457.67049883987,16874.42841594895
4457.693681039011,17415.424808847536
4457.716863358712,17657.550962016077
4457.7400457989725,17586.446992926867
4457.763228359793,17441.342968798646
4457.7864110411765,17108.540829134086
4457.809593843121,16837.553601522675
4457.832776765628,16501.66395213875
4457.855959808699,16038.000540313098
4457.879142972333,15597.40302447652
4457.902326256532,14869.939455683621
4457.925509661296,14067.095276816432
4457.948693186626,13337.012971968079
4457.971876832522,12372.670516663948
4457.995060598985,11448.63444636863
4458.018244486016,10590.591712290494
4458.041428493615,9787.891236204476
4458.0646126217825,9222.342371740287
4458.08779687052,8776.769718647958
4458.110981239827,8690.107767196501
4458.134165729705,8841.897176853694
4458.157350340155,9139.112590791003
4458.180535071177,9395.54027713537
4458.203719922771,9763.48121894462
4458.226904894938,10074.673923120914
4458.2500899876795,10457.63080456328
4458.273275200995,11005.874580242084
4458.296460534886,11654.505731807865
4458.3196459893525,12327.43933454169
4458.342831564396,13099.338788342237
4458.366017260016,13500.887391321856
4458.389203076214,13706.79928179564
4458.4123890129895,13730.032801266248
4458.435575070344,13589.81615161579
4458.458761248279,13182.873690354845
4458.481947546794,13037.33611853954
4458.505133965889,12862.01695040288
4458.528320505566,13065.39763304562
4458.551507165825,13775.999646803082
4458.574693946666,14625.786477787005
4458.597880848091,15771.199811007793
4458.6210678701,16795.50524577545
4458.644255012693,17642.01236977041
4458.6674422758715,18146.313792803274
4458.690629659636,18446.207861985848
4458.713817163986,18135.30700204516
4458.737004788924,17841.939313422095
4458.76019253445,17297.341774355653
4458.783380400563,16463.265948179505
4458.8065683872655,15560.835799001376
4458.829756494558,14571.644416513951
4458.85294472244,13289.270879302843
4458.876133070914,12097.700448187234
4458.899321539979,10890.399195591006
4458.922510129635,9747.615964834844
4458.945698839884,8412.249653577428
4458.968887670727,7270.728470345991
4458.992076622164,6108.96743254766
4459.015265694195,5269.200749082669
4459.0384548868215,4631.780225911958
4459.061644200044,4217.042039122772
4459.084833633862,4168.213599041296
4459.108023188278,4325.142338437863
4459.131212863292,4503.462032062362
4459.154402658904,4966.976737215347
4459.177592575114,5702.986534076778
4459.200782611925,6538.145828259414
4459.223972769336,7352.81271120587
4459.247163047347,8087.015521276823
4459.27035344596,8856.177224391267
4459.293543965176,9515.903716771641
4459.316734604993,10207.287236918512
4459.339925365414,10820.64587303634
4459.363116246439,11644.976137803811
4459.386307248069,12634.85919142059
4459.409498370304,13823.625915206263
4459.432689613145,14964.25748721178
4459.455880976592,16172.539921838686
4459.479072460647,17216.631337587223
4459.502264065309,17575.306834651572
4459.52545579058,17563.55827052866
4459.5486476364595,17712.84530146826
4459.571839602949,17383.905712061518
4459.595031690048,16961.620564750545
4459.618223897759,16556.984082779665
4459.641416226081,15833.094355314435
4459.664608675014,15254.969684305484
4459.687801244561,14710.84064910202
4459.710993934721,14425.514774055959
4459.734186745496,14225.794753885566
4459.757379676885,14280.931878907963
4459.780572728889,14674.42173090271
4459.803765901509,15519.29640088492
4459.8269591947455,16423.186255408636
4459.850152608599,17235.420163101957
4459.87334614307,17655.22433874506
4459.89653979816,17917.48658281851
4459.91973357387,18013.51061668776
4459.942927470198,17662.292828373076
4459.966121487147,17099.9806652417
4459.989315624717,16490.522018466352
4460.0125098829085,15801.358991209941
4460.035704261722,14650.5775021018
4460.058898761158,13412.984675451598
4460.082093381218,12429.731840629438
4460.105288121902,11449.9134594586
4460.12848298321,10245.854104124412
4460.151677965145,9274.59667039597
4460.1748730677045,8474.38250689596
4460.198068290891,7829.900393452772
4460.221263634704,7716.3532267686605
4460.244459099145,7916.630020681584
4460.267654684215,8532.44290078022
4460.290850389914,9401.307183825416
4460.314046216243,10648.709668274787
4460.337242163202,11928.197615575731
4460.360438230791,13372.277209588632
4460.383634419013,14801.001001562525
4460.406830727867,15947.779031999187
4460.430027157354,17139.845758052343
4460.453223707474,18203.86453071754
4460.476420378228,18943.770338675797
4460.499617169617,19507.107067287292
4460.522814081641,19943.783048653408
4460.5460111143,20008.690076036357
4460.569208267598,19932.305349305236
4460.592405541532,20191.07267980072
4460.615602936104,20117.35294504729
4460.638800451314,20018.91158342487
4460.661998087163,19906.722803337176
4460.685195843652,19607.389691047476
4460.708393720782,19392.77379343911
4460.731591718552,19083.948805356653
4460.754789836965,18764.877639138147
4460.777988076019,18424.96162304978
4460.801186435716,18122.224230427804
4460.824384916057,17806.00136825816
4460.847583517042,17361.809564351162
4460.870782238671,16801.156186095322
4460.893981080947,16252.157768202986
4460.917180043868,15500.047149302869
4460.940379127435,14443.795778062271
4460.963578331651,13358.220302076212
4460.986777656513,12267.012566704274
4461.009977102025,11080.139969448479
4461.033176668186,9963.093339492048
4461.056376354995,8889.669445166383
4461.079576162457,7835.078151650176
4461.102776090568,7124.793620568685
4461.125976139332,6778.1766478653135
4461.149176308748,6575.184508008435
4461.172376598816,6526.453589112262
4461.195577009538,6578.688304447784
4461.218777540915,6691.551664154874
4461.241978192946,7004.8368146241355
4461.265178965633,7307.265387984001
4461.2883798589755,7545.474730159025
4461.311580872974,7816.196282284895
4461.3347820076315,7805.647467165134
4461.357983262946,7618.146253710271
4461.381184638919,7247.443201283221
4461.404386135551,6698.167514621088
4461.4275877528435,6319.404107198441
4461.4507894907965,6110.057498883362
4461.4739913494095,5891.886433063656
4461.497193328685,5695.939230822655
4461.520395428623,5538.849421260587
4461.543597649224,5265.389365137651
4461.566799990488,4920.3235698401495
4461.590002452416,4573.244587506344
4461.61320503501,4387.764219948472
4461.636407738269,4433.921985358328
4461.659610562193,4654.4710708573675
4461.682813506784,5215.99780038823
4461.706016572044,5837.699381170819
4461.729219757971,6775.092168892163
4461.752423064566,7464.673447182857
4461.775626491831,8292.02708095856
4461.798830039766,9092.787141215897
4461.82203370837,9389.547815098691
4461.845237497647,9586.567838695411
4461.868441407595,9492.05147034506
4461.891645438215,9077.008878918909
4461.914849589509,8587.451042982251
4461.938053861475,7961.744416728837
4461.961258254117,7645.3330817914175
4461.984462767433,7662.021422426451
4462.007667401424,7865.729344489947
4462.030872156092,8319.912172515591
4462.0540770314365,9205.17995355614
4462.077282027459,10100.369232913052
4462.100487144158,11067.63891398372
4462.123692381537,11864.183568947446
4462.146897739594,12441.735334167035
4462.170103218332,12842.615165942949
4462.19330881775,13075.85359418902
4462.21651453785,13000.48395976527
4462.239720378631,12801.637399637553
4462.262926340095,12808.532432258027
4462.286132422241,12468.019496970592
4462.309338625071,11951.078449161314
4462.3325449485865,11400.401823116732
4462.355751392785,10867.823877705481
4462.3789579576705,10466.525071387736
4462.402164643242,10107.915118893394
4462.4253714495,10218.98844911311
4462.448578376446,10747.422720749935
4462.471785424079,11433.630932550717
4462.494992592401,12485.965394807692
4462.518199881412,13700.123072176395
4462.541407291114,14981.220239188431
4462.564614821506,15886.720324620792
4462.587822472589,16566.383521955486
4462.611030244365,17079.993633833277
4462.634238136832,17422.28762056173
4462.657446149992,17407.832940674132
