wave,flux
4450.003811362098,15254.550722280967
4450.026953690486,15227.656975621034
4450.050096139227,14964.457779236373
4450.073238708321,14424.617209871696
4450.096381397769,13850.952322861045
4450.119524207569,13179.576374637296
4450.142667137726,12365.492652982744
4450.165810188237,11467.713132141103
4450.188953359103,10335.89044642317
4450.212096650326,9337.831430982196
4450.2352400619075,8251.796842501635
4450.258383593846,7279.77439564449
4450.281527246142,6511.396844498789
4450.304671018797,5619.56761307149
4450.327814911813,4951.005046149707
4450.350958925188,4447.696782889699
4450.374103058924,4036.920175209627
4450.3972473130225,3804.3581034459107
4450.420391687483,3618.406584008554
4450.443536182305,3591.799601645373
4450.466680797492,3700.37877702128
4450.489825533042,4034.744208002202
4450.512970388957,4362.369448597713
4450.536115365237,4994.276469918268
4450.559260461882,5613.598201668837
4450.582405678895,6484.824929062566
4450.605551016274,7223.839384315796
4450.628696474022,7726.398319207059
4450.651842052138,8176.957429585619
4450.674987750623,8443.92031706063
4450.698133569476,8547.591963467812
4450.721279508702,8646.421512431349
4450.744425568297,8688.253081952698
4450.767571748264,8952.464077514547
4450.790718048604,9354.372204642168
4450.813864469315,9788.810215074293
4450.837011010401,10318.037275554736
4450.86015767186,10939.397349277595
4450.883304453694,11684.14280537199
4450.906451355903,12393.016783137185
4450.929598378489,13254.394001757393
4450.95274552145,14354.370212743113
4450.975892784789,15468.497893572616
4450.999040168505,16441.0813843121
4451.022187672601,16983.991048968513
4451.045335297074,17515.08128908701
4451.068483041929,17785.679641090297
4451.091630907163,17966.050779703663
4451.114778892777,18367.80201988879
4451.137926998774,18121.785600641266
4451.161075225153,17923.14168227385
4451.184223571914,17827.94178087959
4451.207372039059,17504.037356063567
4451.230520626587,16993.03797381667
4451.253669334501,16693.326210245366
4451.2768181628,16117.192209123612
4451.299967111485,15434.342936238152
4451.323116180556,14478.279188152137
4451.346265370014,13684.122977104102
4451.369414679861,12858.857714496018
4451.392564110095,11777.847605140721
4451.415713660719,10826.192223180406
4451.438863331732,9956.837963258711
4451.462013123136,9177.13944522317
4451.48516303493,8282.100625441131
4451.508313067117,7587.556594533306
4451.531463219695,7175.579353454451
4451.554613492666,7153.888469129612
4451.577763886031,7522.819109678948
4451.60091439979,8284.95966914495
4451.624065033943,9331.540618152443
4451.647215788492,10604.452955413308
4451.670366663436,11824.77248296624
4451.693517658777,12940.265632363251
4451.716668774516,13873.364052154539
4451.739820010652,14441.618416413296
4451.762971367186,14955.015772539318
4451.78612284412,14965.065983865308
4451.8092744414525,14639.964596294125
4451.832426159187,14305.153535279991
4451.855577997321,13772.073212336258
4451.878729955857,13179.739833612133
4451.901882034796,12482.936908978945
4451.925034234137,12216.631169563665
4451.948186553881,11665.683794652196
4451.97133899403,11657.128908712748
4451.994491554583,11851.105228859746
4452.017644235542,12137.453300982133
4452.040797036907,13060.855503698662
4452.063949958678,13982.813832876405
4452.087103000857,14684.36775422697
4452.1102561634425,15557.840377961355
4452.133409446437,16254.81507608473
4452.156562849841,16928.641884424604
4452.179716373655,17244.14889948822
4452.202870017878,17537.049485575077
4452.226023782513,17904.495769165413
4452.24917766756,18009.2384656948
4452.272331673018,17852.42170528911
4452.29548579889,17826.217024599973
4452.318640045174,17935.158028432215
4452.341794411874,17408.64457752132
4452.364948898987,17213.884414755328
4452.388103506516,16903.673541328462
4452.4112582344615,16307.05964775123
4452.434413082823,15809.116501294762
4452.457568051602,15226.21451764847
4452.480723140799,14608.686005099411
4452.503878350413,13770.280356052772
4452.527033680448,13049.724697065942
4452.550189130902,12502.13695461918
4452.5733447017765,11955.636332970194
4452.596500393071,11495.018071527837
4452.619656204789,11033.332827359014
4452.642812136928,10681.453209670815
4452.66596818949,10590.926519940202
4452.689124362475,10733.608453732519
4452.7122806558855,10910.971239959164
4452.735437069719,11120.721432207905
4452.7585936039795,11448.740794232586
4452.781750258665,11990.897977522854
4452.804907033777,12388.568324368265
4452.828063929317,12647.512909230247
4452.851220945285,12710.65911202325
4452.87437808168,12734.67241714075
4452.897535338506,12414.292378012824
4452.92069271576,12241.79843266938
4452.943850213445,11723.918736356598
4452.967007831562,11591.93994731504
4452.99016557011,11480.425387491025
4453.01332342909,11632.721631685981
4453.036481408502,11816.988788924313
4453.059639508349,12227.61141113495
4453.08279772863,12461.667166606025
4453.105956069345,12382.879717883976
4453.129114530496,12171.382302717668
4453.152273112083,11947.605119650114
4453.175431814107,11565.767614380275
4453.198590636567,11067.320485840697
4453.221749579466,10577.906960414197
4453.244908642802,10392.618560328507
4453.268067826579,10139.914632035445
4453.291227130795,10158.658582339294
4453.314386555451,10387.249238392129
4453.337546100549,11114.16453482996
4453.360705766087,12048.271788824644
4453.3838655520685,13050.770702640768
4453.407025458493,13949.393291821658
4453.430185485361,14541.345167699152
4453.453345632673,15033.416967826488
4453.476505900429,15321.173500757943
4453.4996662886315,15365.918753523643
4453.52282679728,15244.319320342584
4453.545987426375,15038.180781021645
4453.569148175917,14823.49560083705
4453.592309045907,14208.935643006063
4453.615470036346,13659.961081456957
4453.638631147233,13501.248219284267
4453.661792378571,13258.120680903525
4453.684953730359,13063.856263957907
4453.708115202598,13347.069215349851
4453.731276795288,13911.508218872901
4453.754438508431,14509.912716542463
4453.777600342027,15215.09260705222
4453.800762296077,15816.036552801494
4453.82392437058,16496.541512574306
4453.847086565538,17017.6402264845
4453.870248880952,17110.491060961085
4453.8934113168225,17350.777686617475
4453.916573873149,17513.44097150915
4453.939736549933,17523.335294192177
4453.962899347174,17390.688941110395
4453.986062264875,17476.647197903847
4454.009225303034,17386.152145455668
4454.032388461654,17149.07581482623
4454.055551740734,16476.250989880587
4454.078715140275,15932.63738907208
4454.101878660277,15421.52638433387
4454.125042300742,14444.076117588522
4454.14820606167,13566.481224519457
4454.171369943061,12519.75582108884
4454.194533944917,11688.881857161976
4454.2176980672375,10575.396105488258
4454.240862310024,9615.366054273423
4454.264026673275,8618.748525219427
4454.287191156994,7541.10387079749
4454.31035576118,6931.290003389453
4454.333520485834,6255.658357243293
4454.356685330957,5883.033064978765
4454.379850296548,5966.651768786794
4454.40301538261,6212.539085770165
4454.426180589142,6569.9284649767005
4454.449345916145,7241.066914642359
4454.4725113636205,7511.6722455543695
4454.495676931568,7928.37543513783
4454.5188426199875,7820.576136845327
4454.542008428882,7663.498198266108
4454.565174358249,7219.487138644901
4454.588340408092,6464.019257904638
4454.611506578411,5819.540638437138
4454.634672869205,5072.94458463686
4454.657839280476,4393.390571848408
4454.681005812225,3934.879019631035
4454.704172464451,3595.773311737176
4454.727339237156,3504.0934319854096
4454.750506130341,3505.4129085945465
4454.773673144005,3581.058555246154
4454.79684027815,3970.0273682586176
4454.820007532776,4388.7377423823355
4454.843174907884,4898.366277078204
4454.866342403473,5544.900494208042
4454.889510019546,6080.8215645586515
4454.912677756102,6470.427712243512
4454.935845613144,6831.1473166209435
4454.959013590669,7176.886718992716
4454.982181688681,7462.936389986825
4455.005349907178,7619.481282443569
4455.028518246162,8012.798963728439
4455.051686705633,8562.164322345418
4455.074855285593,9096.760709781602
4455.098023986041,9616.583556414886
4455.121192806979,9930.289387009705
4455.144361748406,10006.377093037432
4455.167530810323,9889.976374807138
4455.190699992732,9805.341592990937
4455.213869295633,9470.981793883604
4455.237038719026,9098.923899463674
4455.260208262912,8842.441604205309
4455.283377927292,8978.222957307418
4455.306547712166,9212.236200691474
4455.329717617535,9978.42166613336
4455.352887643399,10801.089029818733
4455.37605778976,11839.896623717596
4455.399228056617,12907.445226498823
4455.422398443972,13758.589461341393
4455.445568951825,14347.982500861279
4455.468739580177,14757.438451573986
4455.491910329028,14943.144224103722
4455.515081198378,14598.027858628937
4455.538252188229,14162.98253336536
4455.561423298582,13544.307370921262
4455.584594529436,12890.847878942117
4455.607765880793,12045.438966843007
4455.630937352652,11228.44440474919
4455.654108945016,10384.194415903958
4455.677280657883,9521.991565224376
4455.700452491255,8792.926087259299
4455.723624445134,8000.394819167471
4455.746796519518,7126.975892848178
4455.7699687144095,6616.126942299208
4455.793141029808,6062.0006325982085
4455.816313465714,5545.407640139986
4455.83948602213,5440.275558359908
4455.862658699055,5649.921424507417
4455.885831496489,6110.321300033218
4455.909004414434,6975.366105680119
4455.932177452891,8083.200850223188
4455.955350611858,9399.05612861199
4455.978523891339,10631.351215811674
4456.001697291333,11777.430741033217
4456.024870811841,12673.958116381304
4456.048044452862,13217.402109398356
4456.071218214399,13538.452120122793
4456.094392096451,13778.359057852987
4456.117566099019,13839.974703013155
4456.140740222105,13552.664494356051
4456.163914465707,12910.483956902139
4456.187088829828,12321.135442459512
4456.210263314468,11651.435680150305
4456.233437919626,10891.003263463326
4456.256612645306,10192.239035326407
4456.279787491505,9315.113614846383
4456.302962458226,8792.933656251249
4456.326137545469,8410.300612460924
4456.349312753233,8208.968460637356
4456.372488081522,8309.27563049338
4456.395663530333,8583.901912288658
4456.41883909967,8917.447018470062
4456.442014789531,9206.96521932214
4456.465190599917,9507.863661969393
4456.488366530831,9597.225574181655
4456.5115425822705,9509.379714229006
4456.5347187542375,9436.414487526317
4456.557895046733,9266.87827956253
4456.581071459757,9054.198973619727
4456.604247993311,9090.608659639514
4456.627424647395,9563.802447461452
4456.650601422009,10413.385771424804
4456.673778317154,11311.994529113099
4456.696955332832,12258.638635104759
4456.720132469041,13425.981643341038
4456.7433097257845,14211.771105497128
4456.766487103061,14896.765891429051
4456.789664600872,15263.263045647147
4456.8128422192185,15275.730840693097
4456.8360199581,15267.906861458903
4456.859197817518,15011.30797863443
4456.882375797473,14629.492186652884
4456.905553897966,14292.158971317634
4456.928732118997,13887.27184668807
4456.951910460566,13606.244257283834
4456.975088922674,13333.253853870381
4456.998267505323,13330.803795098544
4457.021446208513,13212.680906630252
4457.044625032244,13074.488204599638
4457.067803976516,13492.763337027403
4457.090983041332,13872.301859069577
4457.1141622266905,14102.802773070678
4457.1373415325925,14357.832763293047
4457.160520959039,14340.358587213024
4457.183700506031,13963.022675168182
4457.206880173568,13434.889533106325
4457.230059961651,12782.514634632598
4457.2532398702815,12253.440372766698
4457.27641989946,11490.726623167619
4457.299600049186,10431.957468512657
4457.322780319461,9597.226657495987
4457.345960710286,8520.089717282735
4457.36914122166,7610.612411452347
4457.392321853586,7185.7900280400445
4457.415502606062,6828.310475307889
4457.43868347909,6766.3793553832265
4457.461864472672,7019.55432580157
4457.485045586805,7605.579146940855
4457.508226821494,8352.566396165174
4457.5314081767365,9105.158626579348
4457.554589652534,10255.182962451703
4457.577771248887,11392.048263158167
4457.600952965797,12364.727186855143
4457.624134803263,13397.780354471723
4457.647316761288,14330.883954453206
4457.67049883987,14816.864274978025
4457.693681039011,15129.898473082552
4457.716863358712,15150.927067090943
4457.7400457989725,14958.45599997479
4457.763228359793,14836.876509949485
4457.7864110411765,14777.220699949961
4457.809593843121,14519.78766868625
4457.832776765628,14183.315013393465
4457.855959808699,13540.933883527656
4457.879142972333,13093.887369308059
4457.902326256532,12668.549013666976
4457.925509661296,11869.756762499437
4457.948693186626,11110.106764877704
4457.971876832522,10264.359221325978
4457.995060598985,9575.035241417849
4458.018244486016,8776.520827303233
4458.041428493615,8142.947958806554
4458.0646126217825,7803.5039049514435
4458.08779687052,7496.877113825614
4458.110981239827,7535.119213438793
4458.134165729705,7788.526259208851
4458.157350340155,7991.530755300489
4458.180535071177,8266.556903696586
4458.203719922771,8604.27033244564
4458.226904894938,8786.449281291023
4458.2500899876795,9136.081789289377
4458.273275200995,9759.357700333825
4458.296460534886,10391.51187023292
4458.3196459893525,10939.3542610973
4458.342831564396,11420.118217844576
4458.366017260016,11718.704756164794
4458.389203076214,11814.570494112233
4458.4123890129895,11753.332300221802
4458.435575070344,11480.766941782138
4458.458761248279,11317.926042978663
4458.481947546794,11205.63439574706
4458.505133965889,11034.743467622076
4458.528320505566,11438.202819216873
4458.551507165825,11971.521840570893
4458.574693946666,12946.246689560776
4458.597880848091,13911.172939944378
4458.6210678701,14791.491491573703
4458.644255012693,15311.622601405646
4458.6674422758715,15587.667416901897
4458.690629659636,15658.605250298457
4458.713817163986,15713.17578939149
4458.737004788924,15286.66345591888
4458.76019253445,14766.274904936752
4458.783380400563,13842.250697876676
4458.8065683872655,13136.70812617902
4458.829756494558,12147.054895824142
4458.85294472244,11202.824775888314
4458.876133070914,10145.38201842129
4458.899321539979,9113.796988955028
4458.922510129635,8034.392301095235
4458.945698839884,6772.0731696063585
4458.968887670727,5832.399313037662
4458.992076622164,5065.260881003152
4459.015265694195,4313.036575931976
4459.0384548868215,3810.508713706424
4459.061644200044,3513.1705079610665
4459.084833633862,3481.4672985842776
4459.108023188278,3727.5511982535845
4459.131212863292,4079.998775057012
4459.154402658904,4669.286671382075
4459.177592575114,5191.0922089157375
4459.200782611925,5780.701675650462
4459.223972769336,6541.6118599254805
4459.247163047347,7193.93280198133
4459.27035344596,7829.558067704686
4459.293543965176,8405.861288417804
4459.316734604993,8906.256966747456
4459.339925365414,9522.035411089468
4459.363116246439,10401.131376558344
4459.386307248069,11383.31938983054
4459.409498370304,12394.380309449101
4459.432689613145,13429.23924725745
4459.455880976592,14233.382827706597
4459.479072460647,14956.548669069773
4459.502264065309,15198.53120261802
4459.52545579058,15303.441425397608
4459.5486476364595,15342.136689225006
4459.571839602949,14944.37372322684
4459.595031690048,14511.113026165998
4459.618223897759,13934.995381354274
4459.641416226081,13376.857366053704
4459.664608675014,12953.712668828312
4459.687801244561,12491.657212050723
4459.710993934721,12174.271065506335
4459.734186745496,12140.125093440767
4459.757379676885,12407.513018404296
4459.780572728889,13086.122692998113
4459.803765901509,13706.22481292823
4459.8269591947455,14269.652288248628
4459.850152608599,15175.165399025867
4459.87334614307,15625.11410242234
4459.89653979816,15572.117324991636
4459.91973357387,15490.657192502584
4459.942927470198,15178.7259910339
4459.966121487147,14654.483199847617
4459.989315624717,14017.54989665639
4460.0125098829085,13155.123997281102
4460.035704261722,12327.577875609299
4460.058898761158,11396.489821396457
4460.082093381218,10382.52870834125
4460.105288121902,9374.496152845437
4460.12848298321,8453.118442993351
4460.151677965145,7579.166005603084
4460.1748730677045,6917.965245172288
4460.198068290891,6512.522068644459
4460.221263634704,6543.41943903878
4460.244459099145,6880.255017418549
4460.267654684215,7626.605250091652
4460.290850389914,8525.096022831021
4460.314046216243,9553.288788962584
4460.337242163202,10742.603347101158
4460.360438230791,11965.246209338531
4460.383634419013,13057.697599058743
4460.406830727867,14135.808996417103
4460.430027157354,15178.812963855533
4460.453223707474,15889.714111114707
4460.476420378228,16430.866768057294
4460.499617169617,16894.694541445813
4460.522814081641,17067.35605491596
4460.5460111143,17280.07142485437
4460.569208267598,17424.285918649297
4460.592405541532,17464.0599039186
4460.615602936104,17404.573680176887
4460.638800451314,17224.528479189317
4460.661998087163,17026.17234208483
4460.685195843652,16839.684072990465
4460.708393720782,16598.196293115037
4460.731591718552,16281.70401990619
4460.754789836965,15922.265935680727
4460.777988076019,15808.927425318543
4460.801186435716,15700.185990702777
4460.824384916057,15291.591944257803
4460.847583517042,14839.808844041652
4460.870782238671,14479.57906863221
4460.893981080947,13951.48027724535
4460.917180043868,13103.166914698606
4460.940379127435,12126.852533433204
4460.963578331651,11148.593561234095
4460.986777656513,10160.671888768638
4461.009977102025,9012.661668945111
4461.033176668186,7938.036255210763
4461.056376354995,7147.644146490114
4461.079576162457,6510.1496336185555
4461.102776090568,6023.798256860817
4461.125976139332,5746.451622137269
4461.149176308748,5589.739517790424
4461.172376598816,5628.64328503557
4461.195577009538,5773.405325493748
4461.218777540915,5962.950673328756
4461.241978192946,6222.660173720034
4461.265178965633,6425.597360457871
4461.2883798589755,6636.610811309637
4461.311580872974,6659.748535750399
4461.3347820076315,6628.375756873362
4461.357983262946,6378.401969248935
4461.381184638919,6036.455578870845
4461.404386135551,5689.163928950637
4461.4275877528435,5445.78512574846
4461.4507894907965,5298.665507133366
4461.4739913494095,5151.61958177472
4461.497193328685,4955.413944809799
4461.520395428623,4673.534206281029
4461.543597649224,4447.5078219194875
4461.566799990488,4133.734394898249
4461.590002452416,3979.4298314360312
4461.61320503501,3820.8173270009725
4461.636407738269,3827.690014646541
4461.659610562193,4129.523263086157
4461.682813506784,4704.528759960066
4461.706016572044,5295.886589650736
4461.729219757971,6033.911899066437
4461.752423064566,6812.320038233242
4461.775626491831,7465.280837828698
4461.798830039766,7979.0233452206385
4461.82203370837,8135.400063368195
4461.845237497647,8223.105533384187
4461.868441407595,8051.06803714745
4461.891645438215,7497.68749070311
4461.914849589509,7126.769514267174
4461.938053861475,6697.287524495794
4461.961258254117,6524.939956713801
4461.984462767433,6574.007801965482
4462.007667401424,6863.861343597181
4462.030872156092,7555.766608350939
4462.0540770314365,8201.26636100321
4462.077282027459,9132.400551455623
4462.100487144158,9850.3766513744
4462.123692381537,10636.140523322307
4462.146897739594,11014.577530140283
4462.170103218332,11027.34949635399
4462.19330881775,11199.310951830172
4462.21651453785,11250.079723755045
4462.239720378631,11033.548510725026
4462.262926340095,10749.585330483469
4462.286132422241,10459.173108082641
4462.309338625071,10094.295733851603
4462.3325449485865,9471.100084932696
4462.355751392785,9219.37495543796
4462.3789579576705,8878.254892657142
4462.402164643242,8733.906084675453
4462.4253714495,8873.781725452682
4462.448578376446,9393.934745517317
4462.471785424079,10048.61000712198
4462.494992592401,11306.253286216359
4462.518199881412,12431.848665474765
4462.541407291114,13375.510586333365
4462.564614821506,14276.783499321979
4462.587822472589,14695.458143436486
4462.611030244365,14924.55363320792
4462.634238136832,15143.708287912628
4462.657446149992,14957.725545163807
4462.680654283847,14693.17950098667
