wave,flux
5000.025812696027,20487.26593583631
5000.051815424163,19904.683695385946
5000.0778182875265,19241.231966353585
5000.103821286119,18369.00117632182
5000.12982441994,17423.746569450963
5000.155827688991,16555.70380532256
5000.181831093272,15655.504583175396
5000.207834632784,14584.747572423099
5000.2338383075285,13714.345568774763
5000.259842117506,13229.478389718724
5000.285846062716,12626.051666768753
5000.311850143161,12325.53027955398
5000.33785435884,12447.434690973858
5000.363858709754,12517.377797852396
5000.389863195905,13205.635769347946
5000.415867817292,13931.325638869255
5000.441872573917,14801.203028480615
5000.4678774657805,15912.31182974969
5000.493882492882,16745.90618872813
5000.519887655224,17296.913911529045
5000.545892952806,17709.876222991934
5000.571898385629,17854.714514687636
5000.597903953694,17677.277841120973
5000.623909657001,17303.15788976158
5000.649915495552,16978.55500709315
5000.675921469346,16651.276579611585
5000.701927578384,16143.688790651044
5000.727933822669,15776.182243705127
5000.7539402021985,15453.693122223907
5000.779946716975,15462.761115670408
5000.805953366999,15783.255837771912
5000.831960152272,16237.294462077361
5000.857967072792,16461.236788199734
5000.883974128563,16758.32475449306
5000.9099813195835,16976.600346650284
5000.935988645855,17151.330785016893
5000.961996107378,17355.56584825336
5000.988003704153,17657.106953800092
5001.014011436181,18189.35531293689
5001.040019303464,18597.27653507075
5001.066027306,18981.521266624954
5001.092035443791,19625.26249610557
5001.118043716839,20139.793952911958
5001.1440521251425,20414.346822356034
5001.170060668704,20552.454199095304
5001.196069347523,20480.211517228676
5001.222078161601,20126.759682061216
5001.248087110937,20057.875413319434
5001.274096195534,19947.62681439292
5001.300105415392,19782.84710274908
5001.326114770512,19687.799032256175
5001.352124260892,19343.22972704316
5001.3781338865365,19000.94746471146
5001.4041436474445,18809.97147875349
5001.430153543616,18318.012170088947
5001.456163575053,17843.89236036427
5001.482173741756,17560.05595950101
5001.508184043724,17244.897037198192
5001.534194480961,16905.752812226106
5001.560205053464,16664.057301899284
5001.586215761236,16319.299991978787
5001.612226604278,15983.278121276031
5001.638237582589,15282.53019326747
5001.664248696171,14449.58788132636
5001.690259945024,13556.241304159843
5001.716271329149,12545.003345358831
5001.742282848547,11421.686529218727
5001.768294503218,10584.053275578093
5001.794306293164,9931.491667594502
5001.820318218383,9255.720189503807
5001.84633027888,9037.099616735355
5001.872342474651,9318.263182709054
5001.8983548056995,9939.426572775172
5001.924367272026,11033.56249401474
5001.9503798736305,12634.178617327918
5001.976392610514,14264.880421741045
5002.002405482678,15651.816713987755
5002.028418490122,17357.144902789743
5002.054431632847,18548.210375877483
5002.080444910854,19515.331433480704
5002.106458324142,20463.386858606693
5002.1324718727155,21002.880559199697
5002.158485556572,21409.075163997364
5002.184499375713,21613.686456283613
5002.210513330139,21574.80901053559
5002.236527419852,21672.435215702113
5002.262541644852,21684.948249037127
5002.288556005138,21467.88607126486
5002.314570500714,21406.05146114734
5002.340585131577,21350.55599961903
5002.36659989773,20954.74903311818
5002.392614799174,20897.063606532112
5002.418629835909,20448.477456324614
5002.444645007936,20038.89331041835
5002.4706603152545,19379.94897929253
5002.496675757866,18971.710925981282
5002.522691335772,18400.248972290065
5002.548707048972,17800.109855810555
5002.574722897468,17046.8399400013
5002.600738881259,16268.626202752002
5002.626755000347,15567.931942773403
5002.652771254732,14767.081165495498
5002.678787644415,14034.256032541954
5002.704804169397,13540.12297076453
5002.730820829678,13117.137560960296
5002.75683762526,12776.594666420551
5002.782854556142,12858.246594301958
5002.8088716223265,13149.301836056315
5002.834888823812,13943.030065394072
5002.860906160601,14927.984369714466
5002.886923632695,16490.349196380146
5002.912941240092,17694.210302429557
5002.938958982793,18930.802153063738
5002.9649768608015,20080.397840656646
5002.990994874116,20779.75837597997
5003.017013022737,21413.40385724935
5003.043031306666,21751.85731476431
5003.069049725905,21789.871457638325
5003.095068280452,21971.117139803377
5003.121086970309,22070.093288626314
5003.147105795477,22097.175637565015
5003.173124755956,22271.857652097497
5003.199143851748,22114.958154428237
5003.225163082852,21968.602495974956
5003.251182449269,22271.170208889784
5003.277201951001,22046.08239285874
5003.3032215880485,21925.311789148443
5003.32924136041,21774.45343695973
5003.35526126809,21774.453188437114
5003.381281311085,21634.241838806993
5003.407301489398,21516.6734790748
5003.433321803031,21403.2551299517
5003.459342251982,21175.786899835795
5003.4853628362525,20897.67786617376
5003.511383555844,20572.371294144585
5003.537404410757,20194.590467587845
5003.563425400991,19864.452320124994
5003.589446526548,19564.58648388292
5003.615467787429,19146.450930130293
5003.641489183634,18574.848366158185
5003.667510715163,18016.774118871468
5003.693532382018,17503.509398345075
5003.719554184199,17311.51660261985
5003.745576121707,16915.36330597333
5003.771598194542,16837.98240313913
5003.797620402706,16960.50738788969
5003.823642746199,17214.22574599407
5003.849665225021,17556.90526409099
5003.875687839174,17641.900468562275
5003.901710588658,17661.616198798936
5003.927733473473,17474.77463807331
5003.953756493622,17206.544272848845
5003.979779649103,16956.174796004983
5004.005802939919,16655.52856432344
5004.031826366068,16433.104574952777
5004.057849927553,16416.958787009833
5004.083873624375,16816.88221737436
5004.109897456533,17213.694356085787
5004.135921424028,17798.59611221228
5004.161945526862,18262.85786347775
5004.187969765035,18835.17582663062
5004.213994138547,19221.826182977235
5004.240018647399,19636.671435459364
5004.266043291592,19736.642696409483
5004.292068071127,19687.592051783082
5004.318092986004,19680.560235637746
5004.344118036223,19918.47752211376
5004.370143221788,20222.564671614728
5004.396168542696,20480.132183483925
5004.422193998949,20726.586623771076
5004.448219590549,20976.191618066652
5004.474245317495,21260.45364251265
5004.500271179789,21590.100531104705
5004.52629717743,21831.984056655834
5004.5523233104195,21890.874794409265
5004.578349578759,22058.705818434664
5004.604375982449,22269.287677168813
5004.630402521489,21930.43477306602
5004.656429195881,21863.93686736016
5004.682456005625,21970.127895385976
5004.708482950721,21640.003793343414
5004.734510031172,21380.26312293733
5004.760537246977,21249.41284460181
5004.7865645981365,21030.211056292555
5004.812592084652,20547.040919084273
5004.838619706525,20036.250872766446
5004.8646474637535,19597.63493722692
5004.890675356341,19085.175595007364
5004.916703384286,18531.034301680887
5004.942731547591,17910.896141789515
5004.968759846256,17286.798145722638
5004.994788280281,16838.10747716749
5005.020816849668,16263.392976987398
5005.046845554417,15473.326523647984
5005.072874394528,14783.80717419973
5005.098903370003,14144.626275494338
5005.124932480842,13962.159792869285
5005.150961727047,13502.366567031859
5005.176991108617,13799.13255508146
5005.203020625552,14240.307677753364
5005.229050277856,14879.776684775617
5005.255080065526,15831.805388580984
5005.281109988566,16973.73411592893
5005.3071400469735,17934.629701265734
5005.333170240751,18344.617244815323
5005.3592005699,18429.13021869269
5005.38523103442,18309.708020605234
5005.411261634312,17970.3438893072
5005.4372923695755,17459.362618645067
5005.463323240213,16652.252428515236
5005.489354246225,15635.098264220558
5005.515385387611,14680.34223140043
5005.541416664373,13721.87878248894
5005.567448076511,12669.667402324636
5005.593479624025,11674.193074205465
5005.619511306918,10699.538751976674
5005.645543125189,9899.294588369448
5005.671575078838,9233.875217868243
5005.697607167867,8848.00596228517
5005.723639392277,8856.214831975461
5005.749671752068,9109.106863058852
5005.77570424724,9619.830923057865
5005.8017368777955,10243.20170095894
5005.8277696437335,10909.264810530962
5005.853802545055,11329.007075630814
5005.879835581762,11419.213003875828
5005.905868753854,11366.518127671421
5005.931902061331,11068.53459731376
5005.957935504196,10463.49141794746
5005.983969082448,9735.026981766336
5006.010002796088,8979.499211105012
5006.036036645117,8291.790445607821
5006.062070629536,7658.580800500862
5006.088104749344,7395.60944320285
5006.114139004544,7554.71177957188
5006.140173395135,8147.545477661756
5006.166207921118,9201.400669811166
5006.192242582495,10378.021852697011
5006.218277379266,11930.215256012383
5006.244312311431,13661.171940476845
5006.270347378991,15338.120988595223
5006.296382581946,16816.46318196059
5006.322417920299,18135.25590068963
5006.348453394048,19279.12637421454
5006.374489003196,20146.103516990006
5006.400524747743,20684.77217757085
5006.426560627688,20981.58949108583
5006.452596643034,21162.885301198163
5006.47863279378,21330.73940262089
5006.504669079928,21477.096367562423
5006.530705501478,21519.728624883617
5006.556742058431,21434.012869704526
5006.582778750788,21212.38116238068
5006.608815578549,21295.837786987435
5006.634852541715,21449.441179713027
5006.660889640287,21214.54354377529
5006.686926874265,21316.177786266606
5006.71296424365,21247.150500499793
5006.739001748444,21216.35799032052
5006.765039388645,21077.098921474604
5006.791077164256,20821.238651798518
5006.817115075277,20591.475729178193
5006.843153121708,20177.80158624168
5006.869191303552,19719.91940844246
5006.895229620806,19235.466140177108
5006.921268073474,18615.332153045645
5006.947306661555,17751.853784964842
5006.97334538505,16717.228875782654
5006.999384243961,15718.867478921931
5007.025423238286,14704.306843716846
5007.051462368028,13556.72355442699
5007.077501633187,12373.760260808076
5007.103541033764,11244.767410950126
5007.129580569759,10147.894674843104
5007.155620241173,9145.190806317689
5007.181660048007,8530.046667921994
5007.207699990262,8141.74790969359
5007.233740067937,8157.426165477484
5007.259780281035,8695.628932800231
5007.285820629555,9486.377868453244
5007.311861113499,10746.867842045513
5007.337901732866,12300.896067395815
5007.363942487658,13841.734742319932
5007.389983377876,15362.026522812717
5007.41602440352,16844.32279550238
5007.442065564591,18144.500130413548
5007.468106861089,19183.923053829032
5007.494148293015,19863.54952409007
5007.520189860371,20310.538971255104
5007.546231563156,20413.803431367243
5007.572273401372,20280.21317216179
5007.598315375018,20356.371946479114
5007.624357484096,20220.745041378508
5007.650399728607,19920.26132791783
5007.676442108551,19811.109015689366
5007.702484623929,19615.240685037057
5007.728527274741,19871.843415315445
5007.754570060989,19969.015398966098
5007.780612982673,20402.6042735271
5007.806656039793,20863.63078022725
5007.832699232351,21190.5731850161
5007.858742560347,21697.272213531593
5007.884786023782,22133.95069374728
5007.910829622656,22493.031552895263
5007.936873356971,22769.056524254956
5007.962917226726,22854.208745807216
5007.988961231923,22876.270854263177
5008.015005372563,22911.41001926455
5008.041049648646,22829.576980480808
5008.067094060171,22871.75388628595
5008.0931386071425,23084.67592521391
5008.119183289558,23062.49708998851
5008.14522810742,22879.8126340148
5008.171273060728,22970.60012337092
5008.197318149483,23185.316488777815
5008.223363373687,23204.432523719694
5008.249408733339,23295.272494030032
5008.27545422844,23133.92887071536
5008.301499858992,23236.714147112416
5008.327545624995,23206.79271404678
5008.353591526448,23097.411304392877
5008.379637563355,22853.861024686343
5008.405683735714,22855.41068423128
5008.431730043527,22732.472631266435
5008.457776486794,22539.572382408856
5008.483823065515,22384.761563505755
5008.509869779693,22313.099640062454
5008.535916629327,22003.350886350927
5008.561963614418,21752.3197093498
5008.588010734968,21701.63108762391
5008.614057990975,21571.18608944676
5008.640105382442,21491.357261576937
5008.666152909369,21619.49292667524
5008.692200571756,21713.54452573738
5008.718248369605,21846.794030599885
5008.744296302916,22210.15036771076
5008.77034437169,22530.20245405255
5008.796392575927,22660.258469887027
5008.822440915628,22748.17851091217
5008.848489390794,22922.96758795777
5008.874538001426,23040.986369701062
5008.900586747524,23008.53975893812
5008.926635629089,22954.363594031132
5008.952684646122,23115.47494167
5008.978733798623,23186.458063487098
5009.004783086593,22946.328585671818
5009.030832510033,22971.356153103097
5009.056882068944,23043.790349097737
5009.082931763326,23158.176007569018
5009.108981593179,23054.75470010693
5009.135031558506,22938.97764693187
5009.161081659306,22820.146420684596
5009.187131895579,22857.970037626663
5009.213182267327,22970.197880394073
5009.239232774552,22866.91468611236
5009.265283417251,22677.021248417357
5009.291334195428,22693.958942510828
5009.317385109083,22542.0917952973
5009.343436158216,22296.34030605345
5009.369487342828,22208.975923862152
5009.395538662919,21861.102544657522
5009.421590118491,21514.05607416782
5009.447641709544,21063.689826571725
5009.473693436078,20908.66334700911
5009.499745298095,20611.968089023958
5009.525797295596,20155.013780173187
5009.55184942858,19853.943108808875
5009.577901697049,19669.225069986438
5009.603954101003,19707.59316831139
5009.630006640443,19414.761584875054
5009.65605931537,19540.21035470969
5009.682112125784,19496.522546590837
5009.708165071686,19851.46982362034
5009.7342181530785,20085.437120310253
5009.760271369959,20201.49812691345
5009.78632472233,20408.91511224794
5009.812378210192,20304.45627387125
5009.838431833546,19998.762084184134
5009.864485592391,19650.05542872286
5009.890539486731,19103.335439544437
5009.916593516564,18359.636722151106
5009.942647681891,17473.926766444492
5009.968701982713,16643.122467529392
5009.994756419032,16042.496755079435
5010.020810990847,15396.261960227272
5010.046865698159,14700.98355793485
5010.072920540969,14414.013365448574
5010.098975519279,14326.481256031722
5010.125030633087,14106.003404420919
5010.151085882395,14288.4740661724
5010.177141267204,14376.93651063713
5010.2031967875155,14328.741096477204
5010.229252443328,14934.14980605819
5010.255308234644,15700.798406919448
5010.281364161464,16538.95646994267
5010.307420223788,17689.07730917054
5010.333476421617,18598.829497019156
5010.359532754951,19754.625091319067
5010.3855892237925,20753.294840638424
5010.4116458281405,21315.175700772717
5010.437702567997,21932.413572371403
5010.463759443362,22319.399076343674
5010.489816454236,22653.465242693554
5010.51587360062,22739.50524763373
5010.541930882514,22865.955203320424
5010.56798829992,22896.49761170633
5010.5940458528385,22559.746043040155
5010.62010354127,22257.23428232281
5010.646161365214,22001.34652300123
5010.672219324672,21635.273909249303
5010.698277419646,21228.54178244926
5010.724335650135,20638.81263401074
5010.7503940161405,19853.40492041267
5010.7764525176635,19247.80263941932
5010.802511154703,18718.130536290362
5010.828569927262,18082.17508660446
5010.85462883534,17482.275717493692
5010.880687878937,16851.18738392523
5010.906747058056,16856.76575692578
5010.932806372695,16627.704744091694
5010.958865822856,16956.398548367313
5010.98492540854,17592.18334718429
5011.0109851297475,18672.776351101475
5011.0370449864795,19477.678791947656
5011.063104978735,20608.37044329155
5011.089165106517,21307.360358319103
5011.115225369825,21883.095453928137
5011.14128576866,22316.60709331931
5011.167346303022,22551.38994382038
5011.193406972913,22714.14366419919
5011.219467778333,22744.68588549054
5011.2455287192815,22886.457021696973
5011.271589795761,22909.1676089665
5011.297651007772,22908.464435148817
5011.323712355315,23009.342606725488
5011.34977383839,22978.64042996412
5011.375835456999,22905.108018496067
5011.401897211142,22762.84060273402
5011.427959100819,22687.176131846238
5011.454021126031,22641.240454666804
5011.4800832867795,22264.727411344593
5011.506145583065,21907.58038762426
5011.532208014888,21698.560862785398
5011.558270582248,21231.95360619783
5011.584333285148,20713.751421184148
5011.610396123588,20242.93526979997
5011.636459097567,19588.22062715411
5011.662522207088,19125.52181175595
5011.68858545215,18504.609582852754
5011.714648832754,17574.713778611316
5011.740712348902,16808.64738361919
5011.766776000594,16040.853049297095
5011.79283978783,15198.599294308573
5011.818903710611,14427.691073157535
5011.844967768939,13586.131547122483
5011.871031962813,12660.004437661684
5011.897096292234,11658.84807547475
5011.923160757203,10435.656000823208
5011.949225357721,9288.915230315035
5011.975290093788,8307.23951646096
5012.001354965406,7542.982850956177
5012.027419972574,6915.761875185388
5012.053485115294,6548.148663698157
5012.079550393566,6616.723968846896
5012.105615807392,7069.404630701152
5012.13168135677,7837.24891652649
5012.157747041703,8818.330526579311
5012.183812862192,9956.499304709863
5012.209878818236,11138.623429291372
5012.235944909837,12234.436146695136
5012.262011136994,13086.637286623636
5012.28807749971,13923.87562927705
5012.3141439979845,14422.391897411564
5012.340210631818,14687.223845497005
5012.366277401212,14495.297354402886
5012.392344306166,14288.528895335729
5012.418411346682,14304.730784340163
5012.44447852276,14153.706887554625
5012.470545834401,14308.186598610926
5012.496613281605,14634.850556820376
5012.522680864374,15348.160895610808
5012.548748582707,16114.218440574827
5012.574816436606,16586.99600670672
5012.600884426071,17196.543992881543
5012.626952551104,17614.362948461243
5012.653020811705,17945.129803093234
5012.679089207873,18141.967146357987
5012.705157739611,18204.000681680915
5012.73122640692,18589.819021446834
5012.757295209798,19196.133022237616
5012.7833641482475,19908.368986703306
5012.80943322227,20694.29443521859
5012.835502431864,21359.937534553155
5012.861571777033,21691.329275318127
5012.887641257775,21893.9850310196
5012.9137108740915,21985.62877435579
5012.939780625984,21999.391706766328
5012.965850513452,21932.305825409938
5012.991920536498,21546.090806048855
5013.017990695121,21236.259766587093
5013.044060989323,20740.17320093967
5013.070131419104,20065.118300470695
5013.096201984464,19507.097201092907
5013.122272685405,18797.699579746248
5013.148343521927,18071.249553497393
5013.17441449403,17263.238648270304
5013.200485601717,16538.244221767654
5013.226556844987,15616.976708884144
5013.2526282238405,14994.6499893026
5013.278699738279,14523.229826221166
5013.304771388303,14164.219480185313
5013.330843173913,13978.075833888062
5013.35691509511,14132.51210343821
5013.382987151894,14475.269833337063
5013.409059344267,14884.027328517623
5013.435131672228,14945.984442825482
5013.46120413578,15002.842000845027
5013.487276734921,14637.390925899996
5013.513349469653,14091.212105886707
5013.539422339977,13433.450648078611
5013.565495345894,12664.160383130824
5013.5915684874035,11886.925992313729
5013.617641764507,11297.014688037445
5013.643715177206,10769.73652996497
5013.6697887254995,10329.41366588272
5013.695862409389,10440.82731213147
5013.721936228875,11019.395462406224
5013.748010183958,11862.729145278001
5013.77408427464,12888.773220181007
5013.800158500921,14045.230895956265
5013.826232862801,15147.676518579126
5013.852307360281,15962.35901584207
5013.8783819933615,16532.472318913264
5013.904456762045,16720.318745798795
5013.930531666329,16708.51375685866
5013.956606706218,16416.695749188428
5013.982681881709,15863.472528668985
5014.008757192805,15252.233926508301
5014.034832639507,14530.578533746024
5014.060908221814,13690.948362657264
5014.086983939728,12365.057001520065
5014.113059793249,11424.794492551038
5014.139135782378,10408.789142528114
5014.165211907116,9455.402891239184
5014.1912881674625,8867.291373959437
5014.21736456342,8512.698253128543
