wave,flux
5000.025812696027,32968.16052277521
5000.051815424163,32191.26174889105
5000.0778182875265,31286.32809334294
5000.103821286119,30584.540703908846
5000.12982441994,29926.168057329778
5000.155827688991,28983.0067776743
5000.181831093272,28069.540929065704
5000.207834632784,27108.46243195463
5000.2338383075285,26506.926773069637
5000.259842117506,25702.386690092477
5000.285846062716,25238.626679198238
5000.311850143161,24719.4430443893
5000.33785435884,24487.533679810145
5000.363858709754,24679.121290742572
5000.389863195905,25171.910121063753
5000.415867817292,25795.992983706536
5000.441872573917,26504.416690497543
5000.4678774657805,27330.92647977029
5000.493882492882,28061.009696860667
5000.519887655224,28452.462968172917
5000.545892952806,28807.01385699482
5000.571898385629,29261.547328948316
5000.597903953694,29212.163785421206
5000.623909657001,28924.484254540308
5000.649915495552,28779.097761364592
5000.675921469346,28366.77989412605
5000.701927578384,27932.852139509603
5000.727933822669,27742.377014052152
5000.7539402021985,27900.017985554765
5000.779946716975,28218.096177843687
5000.805953366999,28510.90854309778
5000.831960152272,28925.025954857374
5000.857967072792,29406.3165954011
5000.883974128563,29883.314146126497
5000.9099813195835,30337.46060068053
5000.935988645855,30637.97862518241
5000.961996107378,30943.380263794872
5000.988003704153,31303.18063912656
5001.014011436181,31326.369958673396
5001.040019303464,31712.546493294536
5001.066027306,31813.973780761644
5001.092035443791,32164.639644232997
5001.118043716839,32384.707770071996
5001.1440521251425,32313.917366406517
5001.170060668704,32304.53590824147
5001.196069347523,32240.413505476703
5001.222078161601,32069.346739985125
5001.248087110937,31757.4872986366
5001.274096195534,31467.305818532175
5001.300105415392,31104.942353887942
5001.326114770512,30497.614792919325
5001.352124260892,29961.0141659678
5001.3781338865365,29379.31566727821
5001.4041436474445,28378.638462524752
5001.430153543616,27737.266727718215
5001.456163575053,27132.3012186222
5001.482173741756,26541.24430004846
5001.508184043724,26047.34206977198
5001.534194480961,25869.248616361554
5001.560205053464,25533.65773223981
5001.586215761236,25148.831987782727
5001.612226604278,24769.955504690166
5001.638237582589,24271.685211417574
5001.664248696171,23376.262173283252
5001.690259945024,22416.126153972724
5001.716271329149,21747.729150695963
5001.742282848547,20862.515136835034
5001.768294503218,19759.576728749922
5001.794306293164,19036.140709726802
5001.820318218383,18386.306807672623
5001.84633027888,18273.28030154245
5001.872342474651,18324.702690840488
5001.8983548056995,18809.91504180499
5001.924367272026,19858.71920479982
5001.9503798736305,21457.59441823606
5001.976392610514,22903.848910442714
5002.002405482678,24505.50091167602
5002.028418490122,26177.129856058622
5002.054431632847,27842.630524818047
5002.080444910854,29469.075386952394
5002.106458324142,30928.092506063844
5002.1324718727155,31961.045513604757
5002.158485556572,32720.327599048385
5002.184499375713,33458.82050144893
5002.210513330139,34033.774836942954
5002.236527419852,34465.594664570686
5002.262541644852,34434.964034124416
5002.288556005138,34526.78859351578
5002.314570500714,34689.72644351487
5002.340585131577,34142.467869309185
5002.36659989773,34302.936241216004
5002.392614799174,33738.79699943204
5002.418629835909,33338.51575945483
5002.444645007936,32985.06738583685
5002.4706603152545,32169.743648779822
5002.496675757866,31413.70953629682
5002.522691335772,30857.705571402967
5002.548707048972,30238.78874395745
5002.574722897468,29695.722708419307
5002.600738881259,29066.27455801971
5002.626755000347,28338.59838569791
5002.652771254732,27873.90542894765
5002.678787644415,27013.40704278233
5002.704804169397,26235.927159234863
5002.730820829678,25865.700926796966
5002.75683762526,25612.438426566736
5002.782854556142,25307.576797883423
5002.8088716223265,25760.15311642876
5002.834888823812,26560.09449653513
5002.860906160601,27303.025751492634
5002.886923632695,28537.936493468467
5002.912941240092,29802.63759959263
5002.938958982793,30782.453555317963
5002.9649768608015,31896.855888857957
5002.990994874116,32890.21011284927
5003.017013022737,33741.755285686995
5003.043031306666,34493.12369292211
5003.069049725905,34726.132033505055
5003.095068280452,34986.72380097908
5003.121086970309,35177.43031664002
5003.147105795477,35474.75161229087
5003.173124755956,35450.40439419273
5003.199143851748,35607.044643370034
5003.225163082852,35706.92059596796
5003.251182449269,35778.996432727574
5003.277201951001,35762.74109252829
5003.3032215880485,35653.209848829836
5003.32924136041,35479.26086257959
5003.35526126809,35342.02291347326
5003.381281311085,35209.279824113546
5003.407301489398,35017.08353368265
5003.433321803031,34805.79480762064
5003.459342251982,34792.871271453485
5003.4853628362525,34638.13914096525
5003.511383555844,34174.41003672229
5003.537404410757,34168.25348689804
5003.563425400991,34093.99250783211
5003.589446526548,33662.20807085162
5003.615467787429,33432.953693898395
5003.641489183634,32949.46558359837
5003.667510715163,32501.117911950354
5003.693532382018,32260.711311659245
5003.719554184199,31689.7458586816
5003.745576121707,31387.359577818796
5003.771598194542,31250.855893402408
5003.797620402706,31054.121777488144
5003.823642746199,31087.443711291093
5003.849665225021,31057.25684070966
5003.875687839174,30969.027847004498
5003.901710588658,30943.882500602238
5003.927733473473,30765.24797490511
5003.953756493622,30423.66924271198
5003.979779649103,30068.649080427545
5004.005802939919,29904.362063725468
5004.031826366068,29745.337941334983
5004.057849927553,29921.432252869163
5004.083873624375,30076.360803636275
5004.109897456533,30675.407985891627
5004.135921424028,31205.904025342235
5004.161945526862,31671.5300032083
5004.187969765035,32121.306319323357
5004.213994138547,32589.43136854301
5004.240018647399,32837.894504603435
5004.266043291592,33500.61347127319
5004.292068071127,33726.39250269486
5004.318092986004,33717.09371917769
5004.344118036223,33976.71694115264
5004.370143221788,34360.851438372556
5004.396168542696,34723.61991363659
5004.422193998949,34883.66121008128
5004.448219590549,34964.53195812488
5004.474245317495,35035.52789219161
5004.500271179789,35376.95692099177
5004.52629717743,35392.45931817457
5004.5523233104195,35636.71281240473
5004.578349578759,35512.370676411636
5004.604375982449,35434.960300885556
5004.630402521489,35513.14972176922
5004.656429195881,35322.30274927955
5004.682456005625,34983.65352191286
5004.708482950721,34764.26109178688
5004.734510031172,34580.527812869805
5004.760537246977,33969.36866265539
5004.7865645981365,33589.17879674199
5004.812592084652,33289.65968450077
5004.838619706525,32544.494807739797
5004.8646474637535,32062.64548400698
5004.890675356341,31648.340882463646
5004.916703384286,30695.74119424854
5004.942731547591,30087.111995378393
5004.968759846256,29585.479685949515
5004.994788280281,28832.36914335494
5005.020816849668,27999.907173891588
5005.046845554417,27536.5094840663
5005.072874394528,26669.637573774486
5005.098903370003,25849.081890187954
5005.124932480842,25431.561958085873
5005.150961727047,25061.837936772426
5005.176991108617,24997.961762206294
5005.203020625552,25084.01796384843
5005.229050277856,25415.15119628466
5005.255080065526,26036.885882956645
5005.281109988566,26911.167215297122
5005.3071400469735,27431.29480387573
5005.333170240751,27558.702246403474
5005.3592005699,27776.42086812534
5005.38523103442,27783.463628642006
5005.411261634312,27485.5722335663
5005.4372923695755,27065.13074879502
5005.463323240213,26287.707402980308
5005.489354246225,25557.153730448823
5005.515385387611,24563.316760207348
5005.541416664373,23374.619430570274
5005.567448076511,22346.542852002265
5005.593479624025,21219.776396484125
5005.619511306918,19934.1555921863
5005.645543125189,18885.61904919535
5005.671575078838,18025.732763103417
5005.697607167867,17170.126746966234
5005.723639392277,16888.628666845932
5005.749671752068,16723.147051602497
5005.77570424724,16728.026989130925
5005.8017368777955,17041.927930414877
5005.8277696437335,17420.430015748563
5005.853802545055,17818.814954252775
5005.879835581762,18043.303725355647
5005.905868753854,18096.310838778958
5005.931902061331,18103.262266381596
5005.957935504196,17814.92616615409
5005.983969082448,17465.832124916597
5006.010002796088,16947.989238500326
5006.036036645117,16306.356297541113
5006.062070629536,15909.361053305289
5006.088104749344,15778.207150573804
5006.114139004544,15936.897581248064
5006.140173395135,16408.846275809974
5006.166207921118,17178.094552356426
5006.192242582495,18278.05127690568
5006.218277379266,19915.593361417123
5006.244312311431,21595.291584147155
5006.270347378991,23325.35890683084
5006.296382581946,25184.937797341245
5006.322417920299,26881.755007456384
5006.348453394048,28469.04916935275
5006.374489003196,29970.608644769956
5006.400524747743,31300.674768392055
5006.426560627688,32357.672955429625
5006.452596643034,33000.082299577865
5006.47863279378,33740.19844475061
5006.504669079928,34024.93153779366
5006.530705501478,34084.46183036925
5006.556742058431,34567.67722739007
5006.582778750788,34500.931613346955
5006.608815578549,34778.49972469369
5006.634852541715,34711.246092246925
5006.660889640287,34521.801806490774
5006.686926874265,34264.02475951185
5006.71296424365,34198.79483158924
5006.739001748444,33889.24815683227
5006.765039388645,33519.40468236468
5006.791077164256,33007.46933565064
5006.817115075277,32437.811170521814
5006.843153121708,31770.219035889764
5006.869191303552,31031.77239334722
5006.895229620806,30295.059659962666
5006.921268073474,29440.468305070764
5006.947306661555,28538.919474093185
5006.97334538505,27482.73130290359
5006.999384243961,26301.973606898657
5007.025423238286,25235.099754487055
5007.051462368028,24024.5168870678
5007.077501633187,22709.652994757507
5007.103541033764,21612.987319887758
5007.129580569759,20355.922989363753
5007.155620241173,19328.12555757079
5007.181660048007,18504.774798981412
5007.207699990262,18064.42531818848
5007.233740067937,17977.504660200033
5007.259780281035,18215.45029870616
5007.285820629555,18986.003311822107
5007.311861113499,20177.17663895878
5007.337901732866,21625.92736849229
5007.363942487658,23115.38757987184
5007.389983377876,24745.62864252724
5007.41602440352,26375.35229985529
5007.442065564591,27976.44632576096
5007.468106861089,29379.89722505386
5007.494148293015,30454.258367925184
5007.520189860371,31564.91170290735
5007.546231563156,32149.37607473396
5007.572273401372,32655.976900636233
5007.598315375018,33063.60065219342
5007.624357484096,33618.36773099495
5007.650399728607,33822.17573315284
5007.676442108551,33462.11940124096
5007.702484623929,33547.27630133654
5007.728527274741,33793.9160546335
5007.754570060989,34165.53657610073
5007.780612982673,34362.93927814175
5007.806656039793,34622.59402260278
5007.832699232351,34871.4367683912
5007.858742560347,35185.462823297006
5007.884786023782,35529.42937724252
5007.910829622656,35903.42349326561
5007.936873356971,36231.40807913049
5007.962917226726,36332.86618149288
5007.988961231923,36384.23527225433
5008.015005372563,36457.58453468679
5008.041049648646,36459.60184508112
5008.067094060171,36659.29550358208
5008.0931386071425,36811.708399680545
5008.119183289558,36568.37656377721
5008.14522810742,36630.36985342692
5008.171273060728,36761.3575719581
5008.197318149483,36769.59354211068
5008.223363373687,36760.46255699976
5008.249408733339,37019.40799884595
5008.27545422844,36787.03481250198
5008.301499858992,36744.78288639553
5008.327545624995,36694.03926200673
5008.353591526448,36504.361275307514
5008.379637563355,36637.12553049312
5008.405683735714,36676.31998322296
5008.431730043527,36507.56362667472
5008.457776486794,36158.45129161089
5008.483823065515,36036.27201922475
5008.509869779693,36070.13449852315
5008.535916629327,35805.559349246556
5008.561963614418,35605.667456142044
5008.588010734968,35598.20270768187
5008.614057990975,35443.602096000905
5008.640105382442,35432.809891314944
5008.666152909369,35619.76870183371
5008.692200571756,35691.66178946473
5008.718248369605,35818.41021078525
5008.744296302916,36044.30868978636
5008.77034437169,36159.92433740496
5008.796392575927,36375.77173951915
5008.822440915628,36405.73367954038
5008.848489390794,36466.30011893882
5008.874538001426,36648.44574147664
5008.900586747524,36612.24585314789
5008.926635629089,36669.648371280295
5008.952684646122,36692.05103025073
5008.978733798623,36591.11951110922
5009.004783086593,36636.35350581154
5009.030832510033,36590.96780437848
5009.056882068944,36684.78009224881
5009.082931763326,36782.16845754821
5009.108981593179,36767.79487064848
5009.135031558506,36625.7381320886
5009.161081659306,36666.53616901569
5009.187131895579,36659.791312791065
5009.213182267327,36423.40471208454
5009.239232774552,36371.80264545949
5009.265283417251,36473.36546467569
5009.291334195428,36459.236733976344
5009.317385109083,36203.566561953325
5009.343436158216,36242.86326594593
5009.369487342828,36028.96142520823
5009.395538662919,35953.81475398277
5009.421590118491,35717.232769324124
5009.447641709544,35799.011147274716
5009.473693436078,35423.459741478364
5009.499745298095,35320.66771563138
5009.525797295596,35092.010737040604
5009.55184942858,35291.34602866632
5009.577901697049,34599.600768056
5009.603954101003,34694.50407851695
5009.630006640443,34537.03776165131
5009.65605931537,34266.11384089895
5009.682112125784,34206.74265134149
5009.708165071686,34072.42544481778
5009.7342181530785,33811.8257256318
5009.760271369959,33482.85932622545
5009.78632472233,33185.395177611776
5009.812378210192,32832.87063504533
5009.838431833546,32241.21622220775
5009.864485592391,31744.903773079004
5009.890539486731,31223.3009616455
5009.916593516564,30417.464889813906
5009.942647681891,29723.338309050898
5009.968701982713,28848.550823086265
5009.994756419032,28248.305410609442
5010.020810990847,27574.87518617449
5010.046865698159,26964.393877253766
5010.072920540969,26426.934741599973
5010.098975519279,26287.548760358342
5010.125030633087,25940.07996663479
5010.151085882395,25700.57821007329
5010.177141267204,25557.573453036013
5010.2031967875155,25905.904441539624
5010.229252443328,26384.80708771182
5010.255308234644,27171.98880752024
5010.281364161464,28184.155754306204
5010.307420223788,29285.105940587397
5010.333476421617,30351.85882962104
5010.359532754951,31588.742548911894
5010.3855892237925,32597.88700271479
5010.4116458281405,33244.835477224005
5010.437702567997,34023.359367631856
5010.463759443362,34618.21194212529
5010.489816454236,35045.0753020211
5010.51587360062,35426.027999125115
5010.541930882514,35548.0269301437
5010.56798829992,35563.302327363715
5010.5940458528385,35283.9884565009
5010.62010354127,34992.38330117701
5010.646161365214,34812.31301392429
5010.672219324672,34522.47215472465
5010.698277419646,34217.515059791054
5010.724335650135,33842.794739754936
5010.7503940161405,33263.4463490016
5010.7764525176635,32759.65852943465
5010.802511154703,32364.455671164917
5010.828569927262,31697.123955940948
5010.85462883534,31153.37256225509
5010.880687878937,30938.19005177449
5010.906747058056,30662.36619111511
5010.932806372695,30804.852168605434
5010.958865822856,31235.15124640438
5010.98492540854,31471.19623318539
5011.0109851297475,31956.178349841102
5011.0370449864795,32874.01504590572
5011.063104978735,33712.21785894146
5011.089165106517,34383.21713705298
5011.115225369825,34890.87542207821
5011.14128576866,35349.097410064634
5011.167346303022,35823.70037390487
5011.193406972913,36189.33503150111
5011.219467778333,36260.60954613912
5011.2455287192815,36395.36291472378
5011.271589795761,36684.6216420934
5011.297651007772,36637.15412561662
5011.323712355315,36533.6731403377
5011.34977383839,36386.343085520086
5011.375835456999,36421.97031688537
5011.401897211142,36170.19248693849
5011.427959100819,36064.40774497025
5011.454021126031,35902.41454201722
5011.4800832867795,35624.56888201614
5011.506145583065,35399.55795780952
5011.532208014888,34860.02390631099
5011.558270582248,34428.27791233329
5011.584333285148,33825.49928833282
5011.610396123588,33259.34846085315
5011.636459097567,32388.024074583787
5011.662522207088,31542.57833073437
5011.68858545215,30517.048945136146
5011.714648832754,29449.506805261146
5011.740712348902,28431.964037605263
5011.766776000594,27272.845314855556
5011.79283978783,26188.006986747918
5011.818903710611,25302.11470039107
5011.844967768939,24277.056835104067
5011.871031962813,22947.70379662989
5011.897096292234,21613.721445324285
5011.923160757203,20549.63069223752
5011.949225357721,19356.7887016621
5011.975290093788,18134.191121931748
5012.001354965406,17154.22766406653
5012.027419972574,16184.36142395382
5012.053485115294,15624.475591368038
5012.079550393566,15520.927584334695
5012.105615807392,15776.634419132582
5012.13168135677,16286.275320360885
5012.157747041703,16961.884159742054
5012.183812862192,18135.688823158922
5012.209878818236,19360.8488659442
5012.235944909837,20584.59663968451
5012.262011136994,21694.042901589302
5012.28807749971,22859.233732227785
5012.3141439979845,23605.600180767167
5012.340210631818,24552.176910401013
5012.366277401212,24966.10261200848
5012.392344306166,25264.174873851985
5012.418411346682,25637.044987623518
5012.44447852276,26175.293043246238
5012.470545834401,26706.85636724559
5012.496613281605,27126.24712574437
5012.522680864374,27929.986501986
5012.548748582707,28565.425996976497
5012.574816436606,29307.005800033436
5012.600884426071,29933.851655955765
5012.626952551104,30392.461189533453
5012.653020811705,30771.015910395046
5012.679089207873,31163.861247635894
5012.705157739611,31676.1349761039
5012.73122640692,32372.259956233996
5012.757295209798,32797.60003727933
5012.7833641482475,33214.729033053976
5012.80943322227,33777.22140687143
5012.835502431864,34023.89314415658
5012.861571777033,34486.75855675154
5012.887641257775,34501.77623534944
5012.9137108740915,34249.672000870916
5012.939780625984,34361.20152255597
5012.965850513452,34314.94253578676
5012.991920536498,34039.885881094044
5013.017990695121,33671.115530220304
5013.044060989323,33423.09589863831
5013.070131419104,32862.17758886664
5013.096201984464,32261.842333722176
5013.122272685405,31487.482231591548
5013.148343521927,30845.966699644698
5013.17441449403,30141.99971469163
5013.200485601717,29077.893817660428
5013.226556844987,28147.524298929522
5013.2526282238405,27104.448782621024
5013.278699738279,26334.77414460193
5013.304771388303,26009.09571750126
5013.330843173913,25472.7386586853
5013.35691509511,25244.542044601196
5013.382987151894,25058.306172490476
5013.409059344267,25012.89257518693
5013.435131672228,24909.842461642857
5013.46120413578,24782.263483756313
5013.487276734921,24465.044267931204
5013.513349469653,23658.34077292675
5013.539422339977,23093.958242617613
5013.565495345894,22449.82483889451
5013.5915684874035,21544.050574108343
5013.617641764507,20814.37149924918
5013.643715177206,20118.182788957125
5013.6697887254995,19717.97474909176
5013.695862409389,19765.07578316534
5013.721936228875,20137.74353749939
5013.748010183958,20693.607316541147
5013.77408427464,21398.428530576482
5013.800158500921,22437.757283954463
5013.826232862801,23641.812068762436
5013.852307360281,24577.328136261458
5013.8783819933615,25341.361331667806
5013.904456762045,26040.783352121918
5013.930531666329,26254.113086279493
5013.956606706218,26365.76980763094
5013.982681881709,26372.402094688
5014.008757192805,26197.78891776802
5014.034832639507,26292.331834510034
5014.060908221814,25226.164349929313
5014.086983939728,24240.955501730976
5014.113059793249,23217.55840997502
5014.139135782378,22017.559771381373
5014.165211907116,21421.54320641147
5014.1912881674625,20726.417461474623
5014.21736456342,20409.12556824098
5014.243441094988,20433.60826594342
5014.269517762167,20864.319393068
