wave,flux
4450.003811362098,17779.049629672514
4450.026953690486,17431.086420092714
4450.050096139227,17000.550057547855
4450.073238708321,16550.403322653947
4450.096381397769,15963.040820804246
4450.119524207569,15191.790963913578
4450.142667137726,14154.641061379325
4450.165810188237,13063.958043673507
4450.188953359103,12079.969657750966
4450.212096650326,10864.536758450626
4450.2352400619075,9541.6142848619
4450.258383593846,8406.211841689677
4450.281527246142,7437.12206600057
4450.304671018797,6572.79236789245
4450.327814911813,5752.477333283084
4450.350958925188,5088.679299816492
4450.374103058924,4667.3264100169345
4450.3972473130225,4307.53092431483
4450.420391687483,4208.819855151279
4450.443536182305,4049.224189601414
4450.466680797492,4143.222191695079
4450.489825533042,4413.268525373812
4450.512970388957,4875.018426730179
4450.536115365237,5640.591298516315
4450.559260461882,6500.871883823815
4450.582405678895,7343.456775697234
4450.605551016274,8096.741331653775
4450.628696474022,8877.909438356965
4450.651842052138,9340.675246305385
4450.674987750623,9686.652813623094
4450.698133569476,9674.575379213196
4450.721279508702,9742.409773819649
4450.744425568297,9928.119099189063
4450.767571748264,10294.040422283926
4450.790718048604,10746.871666919718
4450.813864469315,11123.661838418671
4450.837011010401,11640.876383059074
4450.86015767186,12267.536397768756
4450.883304453694,13059.925101476627
4450.906451355903,13965.823167870225
4450.929598378489,14926.198056320703
4450.95274552145,16128.242779502933
4450.975892784789,17261.122063681767
4450.999040168505,18370.992651721783
4451.022187672601,19294.915463591817
4451.045335297074,19701.07372413366
4451.068483041929,20289.683530777966
4451.091630907163,20576.08821176044
4451.114778892777,20697.58095306886
4451.137926998774,20610.513320289763
4451.161075225153,20446.020026151302
4451.184223571914,20096.616873155897
4451.207372039059,20076.141570881176
4451.230520626587,19392.876490419276
4451.253669334501,18885.36700043005
4451.2768181628,18084.205085436326
4451.299967111485,17625.63013699071
4451.323116180556,16814.3477635411
4451.346265370014,15918.411897323767
4451.369414679861,14834.965477425785
4451.392564110095,13776.383111117382
4451.415713660719,12634.367251599218
4451.438863331732,11618.876064596674
4451.462013123136,10550.536441995318
4451.48516303493,9548.42641754722
4451.508313067117,8742.164963548023
4451.531463219695,8225.873363758355
4451.554613492666,8181.803763168181
4451.577763886031,8570.282585459447
4451.60091439979,9294.32074292333
4451.624065033943,10500.982591187065
4451.647215788492,11981.989552244826
4451.670366663436,13298.953033057556
4451.693517658777,14519.933940324443
4451.716668774516,15617.974301147613
4451.739820010652,16429.232346807927
4451.762971367186,16826.453731722886
4451.78612284412,16728.408480857248
4451.8092744414525,16581.93412294481
4451.832426159187,16309.965799618863
4451.855577997321,15759.464657483435
4451.878729955857,15134.383679376722
4451.901882034796,14530.66810360204
4451.925034234137,13902.567900108019
4451.948186553881,13513.3203008659
4451.97133899403,13277.202297114802
4451.994491554583,13236.343443178932
4452.017644235542,13790.045325340427
4452.040797036907,14537.505530682933
4452.063949958678,15801.341448494619
4452.087103000857,16714.700906591745
4452.1102561634425,17676.51375250963
4452.133409446437,18215.304417457242
4452.156562849841,19111.83355191566
4452.179716373655,19676.431592282664
4452.202870017878,20093.44867885854
4452.226023782513,20139.72986533707
4452.24917766756,20407.447729957985
4452.272331673018,20795.29392043998
4452.29548579889,20542.30940932209
4452.318640045174,20198.316210925048
4452.341794411874,19891.516271207907
4452.364948898987,19707.261922220143
4452.388103506516,19267.160703427
4452.4112582344615,18692.715724457954
4452.434413082823,18171.08550960825
4452.457568051602,17634.984787743837
4452.480723140799,16863.206304148884
4452.503878350413,15946.696345548015
4452.527033680448,14998.849846739553
4452.550189130902,14251.345562303255
4452.5733447017765,13738.190780297584
4452.596500393071,13221.667486842487
4452.619656204789,12826.504528276339
4452.642812136928,12545.56403423267
4452.66596818949,12296.652104624198
4452.689124362475,12267.486689030822
4452.7122806558855,12354.167674981569
4452.735437069719,12517.275138310612
4452.7585936039795,12937.554051022229
4452.781750258665,13439.0320153947
4452.804907033777,13871.29209470787
4452.828063929317,14224.988390478591
4452.851220945285,14478.841911505495
4452.87437808168,14372.979131488646
4452.897535338506,14325.539987818729
4452.92069271576,13994.741250760788
4452.943850213445,13789.697168067572
4452.967007831562,13325.41467172584
4452.99016557011,13197.48177151286
4453.01332342909,13186.541513041815
4453.036481408502,13242.403737811053
4453.059639508349,13611.024146678941
4453.08279772863,13993.024442448554
4453.105956069345,13903.874326520272
4453.129114530496,13923.367703763273
4453.152273112083,13744.309986319191
4453.175431814107,13242.033614880247
4453.198590636567,12814.768944161415
4453.221749579466,12341.70827089227
4453.244908642802,11780.159172516733
4453.268067826579,11690.237439008826
4453.291227130795,11584.355351895909
4453.314386555451,11850.379068147835
4453.337546100549,12646.13964400735
4453.360705766087,13499.036216784589
4453.3838655520685,14617.867557051093
4453.407025458493,15930.490027200134
4453.430185485361,16525.331719961032
4453.453345632673,17289.104290530926
4453.476505900429,17634.085116818587
4453.4996662886315,17586.620960623393
4453.52282679728,17425.522144367154
4453.545987426375,17221.022138501772
4453.569148175917,16691.2650274049
4453.592309045907,16040.960064524877
4453.615470036346,15710.841984310244
4453.638631147233,15376.454207048933
4453.661792378571,15038.280127103504
4453.684953730359,14987.653770057512
4453.708115202598,15127.403983105476
4453.731276795288,15598.15418790871
4453.754438508431,16465.48324811267
4453.777600342027,17315.229415551657
4453.800762296077,18058.25979563628
4453.82392437058,18752.073503689735
4453.847086565538,19317.021368465
4453.870248880952,19702.191088423373
4453.8934113168225,19812.350328115917
4453.916573873149,19853.222695644363
4453.939736549933,20114.933635649122
4453.962899347174,20149.327780801083
4453.986062264875,20016.634236664762
4454.009225303034,19705.913296459126
4454.032388461654,19355.17029460259
4454.055551740734,18893.852068271026
4454.078715140275,18177.161507796514
4454.101878660277,17617.270410221958
4454.125042300742,16634.667064187477
4454.14820606167,15695.355191282186
4454.171369943061,14566.306975692227
4454.194533944917,13503.907273958344
4454.2176980672375,12259.52967582265
4454.240862310024,11132.96032122199
4454.264026673275,9937.392774599033
4454.287191156994,8939.616485464267
4454.31035576118,7986.046060383886
4454.333520485834,7297.340327055522
4454.356685330957,6827.555812834317
4454.379850296548,6739.423237687531
4454.40301538261,7017.084753370927
4454.426180589142,7517.338869697228
4454.449345916145,8077.350238673312
4454.4725113636205,8547.615108662272
4454.495676931568,8946.590382907621
4454.5188426199875,8968.035390945915
4454.542008428882,8855.321606368576
4454.565174358249,8301.588416578837
4454.588340408092,7612.43326093788
4454.611506578411,6770.300872246876
4454.634672869205,5969.819889753631
4454.657839280476,5305.414134561716
4454.681005812225,4702.980601403637
4454.704172464451,4291.458641958791
4454.727339237156,3977.6117928263857
4454.750506130341,3958.8640285254733
4454.773673144005,4200.277220611273
4454.79684027815,4450.778014507646
4454.820007532776,4943.284502539712
4454.843174907884,5530.392076239799
4454.866342403473,6214.41904749358
4454.889510019546,6781.20476701745
4454.912677756102,7287.6881623941135
4454.935845613144,7765.701143827609
4454.959013590669,8112.720574288723
4454.982181688681,8339.90681428156
4455.005349907178,8614.894509528809
4455.028518246162,9138.469398394544
4455.051686705633,9690.83073731676
4455.074855285593,10253.866058627764
4455.098023986041,10918.378439634522
4455.121192806979,11330.425452488606
4455.144361748406,11398.073555948169
4455.167530810323,11368.644067958383
4455.190699992732,11202.082922402686
4455.213869295633,10828.696476408615
4455.237038719026,10406.373478285017
4455.260208262912,10229.052714920279
4455.283377927292,10238.192155207136
4455.306547712166,10450.375925173548
4455.329717617535,11136.897535734235
4455.352887643399,12206.572975801322
4455.37605778976,13366.698192819184
4455.399228056617,14396.883947325969
4455.422398443972,15582.607580971237
4455.445568951825,16398.375320722775
4455.468739580177,16666.975552932796
4455.491910329028,16856.969112575498
4455.515081198378,16668.532289467068
4455.538252188229,16184.184338451212
4455.561423298582,15689.184139417155
4455.584594529436,14884.630066940592
4455.607765880793,13930.955473204825
4455.630937352652,12809.878110554917
4455.654108945016,11885.651149441264
4455.677280657883,10858.706627977635
4455.700452491255,10097.817852568423
4455.723624445134,9189.642214118709
4455.746796519518,8520.324427310408
4455.7699687144095,7511.081042474323
4455.793141029808,6870.847386743012
4455.816313465714,6392.880262499279
4455.83948602213,6164.806969765032
4455.862658699055,6191.529059266094
4455.885831496489,6792.234424259264
4455.909004414434,7930.546729126056
4455.932177452891,8923.06968906789
4455.955350611858,10418.506498161521
4455.978523891339,11806.752081426206
4456.001697291333,13244.531648105803
4456.024870811841,14272.299007156364
4456.048044452862,15048.742533248927
4456.071218214399,15717.499490193213
4456.094392096451,15818.989859306144
4456.117566099019,15703.272024979226
4456.140740222105,15397.193746257688
4456.163914465707,14941.085997469892
4456.187088829828,14097.088645418913
4456.210263314468,13364.38754355952
4456.233437919626,12421.619481841457
4456.256612645306,11558.825643188222
4456.279787491505,10874.219230870858
4456.302962458226,10022.360512740288
4456.326137545469,9560.963368765764
4456.349312753233,9415.758971556383
4456.372488081522,9487.310004935836
4456.395663530333,9758.851563337359
4456.41883909967,10006.117739868745
4456.442014789531,10476.756034165013
4456.465190599917,10856.359518955529
4456.488366530831,10930.57715589946
4456.5115425822705,10916.857197880636
4456.5347187542375,10877.921123646447
4456.557895046733,10551.74691189918
4456.581071459757,10385.305766397032
4456.604247993311,10447.709997991045
4456.627424647395,10907.459857551576
4456.650601422009,11630.814632023594
4456.673778317154,12584.702223518334
4456.696955332832,13693.285479909873
4456.720132469041,14843.360870283072
4456.7433097257845,16032.73001219559
4456.766487103061,16836.846718693643
4456.789664600872,17380.03033932893
4456.8128422192185,17506.610498709444
4456.8360199581,17337.390720622883
4456.859197817518,17216.262971724
4456.882375797473,16739.28562444958
4456.905553897966,16220.483985323386
4456.928732118997,15933.890898566315
4456.951910460566,15497.265434549956
4456.975088922674,15197.364822876432
4456.998267505323,15029.13944294506
4457.021446208513,14906.740471861956
4457.044625032244,15081.673534904985
4457.067803976516,15430.130500769234
4457.090983041332,15572.57843349305
4457.1141622266905,15927.035754258824
4457.1373415325925,16198.093079420603
4457.160520959039,16214.972057468929
4457.183700506031,16052.880088274325
4457.206880173568,15520.009445408114
4457.230059961651,14922.352674265856
4457.2532398702815,14081.510019844387
4457.27641989946,13000.038670671094
4457.299600049186,12008.630076161366
4457.322780319461,11030.385491514384
4457.345960710286,9928.259263976432
4457.36914122166,9048.442568212697
4457.392321853586,8294.090622375132
4457.415502606062,7755.995112789756
4457.43868347909,7704.737638380726
4457.461864472672,7985.123337294161
4457.485045586805,8549.551473323476
4457.508226821494,9407.312628840618
4457.5314081767365,10414.382964473332
4457.554589652534,11452.788197103035
4457.577771248887,12666.300099218879
4457.600952965797,13956.116999918897
4457.624134803263,15143.426698644458
4457.647316761288,16103.042810682904
4457.67049883987,16824.307345757097
4457.693681039011,17214.52615824262
4457.716863358712,17398.370525804967
4457.7400457989725,17160.51533195565
4457.763228359793,16776.621648067026
4457.7864110411765,16843.289051362408
4457.809593843121,16687.900259361744
4457.832776765628,16000.3125980116
4457.855959808699,15621.020905534886
4457.879142972333,15213.284506821183
4457.902326256532,14255.433238166892
4457.925509661296,13584.712419029562
4457.948693186626,12747.530286899404
4457.971876832522,11799.875502284867
4457.995060598985,10927.797234935668
4458.018244486016,10193.061005873073
4458.041428493615,9513.926528679185
4458.0646126217825,8920.419053074238
4458.08779687052,8639.872510784067
4458.110981239827,8710.068957973066
4458.134165729705,8685.865777569807
4458.157350340155,8927.658013084056
4458.180535071177,9265.108004020856
4458.203719922771,9714.418319967344
4458.226904894938,10098.870764165555
4458.2500899876795,10439.691985444751
4458.273275200995,10981.812898244061
4458.296460534886,11699.02235164563
4458.3196459893525,12317.422672775216
4458.342831564396,12996.185895447396
4458.366017260016,13434.547798631565
4458.389203076214,13322.970723519875
4458.4123890129895,13265.765694501022
4458.435575070344,13086.066243053976
4458.458761248279,12842.09646303808
4458.481947546794,12657.817823674988
4458.505133965889,12608.379374218566
4458.528320505566,13038.242331141402
4458.551507165825,13678.637291499252
4458.574693946666,14682.853181712288
4458.597880848091,15867.171861053674
4458.6210678701,16798.89788454792
4458.644255012693,17542.63696307163
4458.6674422758715,17919.782472200026
4458.690629659636,18011.909417947547
4458.713817163986,17729.67635344618
4458.737004788924,17316.93188885354
4458.76019253445,16850.69694985007
4458.783380400563,16137.144837082482
4458.8065683872655,15070.848804554773
4458.829756494558,14068.977818671976
4458.85294472244,12906.06942490899
4458.876133070914,11685.175834961938
4458.899321539979,10569.478410888765
4458.922510129635,9265.552364709543
4458.945698839884,7970.828394176853
4458.968887670727,6833.09734890874
4458.992076622164,5867.758169644552
4459.015265694195,4986.644242827948
4459.0384548868215,4435.612632459492
4459.061644200044,4025.3734599190516
4459.084833633862,4028.595607336768
4459.108023188278,4215.367406978703
4459.131212863292,4621.530637592981
4459.154402658904,5086.354976350015
4459.177592575114,5783.979738128104
4459.200782611925,6629.823673256203
4459.223972769336,7341.134402098276
4459.247163047347,8048.085076202932
4459.27035344596,8842.24407993834
4459.293543965176,9430.805712010499
4459.316734604993,10071.72435781027
4459.339925365414,10832.631175491382
4459.363116246439,11674.979273448906
4459.386307248069,12632.67587078819
4459.409498370304,13978.981687697764
4459.432689613145,15099.045481679477
4459.455880976592,16106.77950658072
4459.479072460647,16844.439805132173
4459.502264065309,17326.65989419974
4459.52545579058,17606.1772548285
4459.5486476364595,17276.332349900524
4459.571839602949,17031.166938015238
4459.595031690048,16582.949833025647
4459.618223897759,15952.725082449642
4459.641416226081,15437.135870074402
4459.664608675014,14821.258953103506
4459.687801244561,14269.658129040992
4459.710993934721,13880.856480377637
4459.734186745496,13785.55715685787
4459.757379676885,14197.948793050953
4459.780572728889,14858.991361108581
4459.803765901509,15524.622259472299
4459.8269591947455,16274.848584104793
4459.850152608599,16947.675112927704
4459.87334614307,17320.90963764859
4459.89653979816,17767.036119021217
4459.91973357387,17795.55849330592
4459.942927470198,17420.797984324767
4459.966121487147,16908.47512292793
4459.989315624717,16112.870576215508
4460.0125098829085,15116.311162088832
4460.035704261722,14127.347736666583
4460.058898761158,13103.92728862839
4460.082093381218,12006.478350026076
4460.105288121902,10848.641339486976
4460.12848298321,9803.415164278375
4460.151677965145,8763.351833830517
4460.1748730677045,8047.05677684593
4460.198068290891,7641.655348162596
4460.221263634704,7532.973221080032
4460.244459099145,7837.001282925346
4460.267654684215,8565.530593784684
4460.290850389914,9547.308487484966
4460.314046216243,10733.59186268978
4460.337242163202,12045.565171645647
4460.360438230791,13410.065999317312
4460.383634419013,14688.82826754157
4460.406830727867,16065.39199568113
4460.430027157354,17240.33863149299
4460.453223707474,18160.914389378326
4460.476420378228,18867.452730046112
4460.499617169617,19309.52553749554
4460.522814081641,19507.722609448963
4460.5460111143,19743.43762476584
4460.569208267598,19872.996393066507
4460.592405541532,19955.981902020518
4460.615602936104,19771.586724956713
4460.638800451314,19629.706669133167
4460.661998087163,19559.51989745572
4460.685195843652,19286.313918439773
4460.708393720782,19006.070772601888
4460.731591718552,18707.6833464523
4460.754789836965,18146.921469949455
4460.777988076019,17936.028980274867
4460.801186435716,17842.424343120856
4460.824384916057,17390.53900079181
4460.847583517042,17147.806501143168
4460.870782238671,16528.012135368634
4460.893981080947,15704.135321628619
4460.917180043868,14966.431777937252
4460.940379127435,13941.900636443996
4460.963578331651,12916.907732915155
4460.986777656513,11727.363954124947
4461.009977102025,10539.11874777959
4461.033176668186,9437.20444216953
4461.056376354995,8343.49142359548
4461.079576162457,7546.004379738858
4461.102776090568,6947.964349912065
4461.125976139332,6571.181308144039
4461.149176308748,6511.4661699010385
4461.172376598816,6437.2102120342015
4461.195577009538,6432.315854209411
4461.218777540915,6776.614215476886
4461.241978192946,6998.694321219139
4461.265178965633,7241.459046003123
4461.2883798589755,7541.783678035962
4461.311580872974,7769.988716930302
4461.3347820076315,7661.54205392076
4461.357983262946,7369.515201000743
4461.381184638919,6943.449440509764
4461.404386135551,6586.032570133345
4461.4275877528435,6263.93248949847
4461.4507894907965,5956.679723395381
4461.4739913494095,5861.643102685029
4461.497193328685,5663.017455764605
4461.520395428623,5366.921882590859
4461.543597649224,5119.0106222851055
4461.566799990488,4780.578533584915
4461.590002452416,4435.127831212503
4461.61320503501,4293.872831818218
4461.636407738269,4407.674824325234
4461.659610562193,4674.549739414731
4461.682813506784,5230.087314245058
4461.706016572044,5915.469683016625
4461.729219757971,6756.7582416902405
4461.752423064566,7623.988025535422
4461.775626491831,8341.670212377154
4461.798830039766,8981.621590905479
4461.82203370837,9213.655254492112
4461.845237497647,9321.89977377932
4461.868441407595,9090.261680155902
4461.891645438215,8730.16950576103
4461.914849589509,8348.599854078637
4461.938053861475,7637.656502859867
4461.961258254117,7465.338127017517
4461.984462767433,7360.441051239115
4462.007667401424,7679.900737772227
4462.030872156092,8300.135881330183
4462.0540770314365,9387.766400950253
4462.077282027459,10233.477823596799
4462.100487144158,11222.133182599484
4462.123692381537,11765.243651813933
4462.146897739594,12379.602388021502
4462.170103218332,12699.46613588462
4462.19330881775,12819.379367157033
4462.21651453785,12670.423305635122
4462.239720378631,12654.932416603515
4462.262926340095,12483.46136372596
4462.286132422241,12047.074559398608
4462.309338625071,11535.230108852957
4462.3325449485865,10996.403002387653
4462.355751392785,10394.888771922777
4462.3789579576705,10086.26548591042
4462.402164643242,9805.46942202158
4462.4253714495,10078.362277089014
4462.448578376446,10644.685313466938
4462.471785424079,11472.169982841571
4462.494992592401,12702.26962973737
4462.518199881412,13868.248913380665
4462.541407291114,14894.80595813623
4462.564614821506,15943.48379747103
4462.587822472589,16570.087978192227
4462.611030244365,17171.981665314757
4462.634238136832,17344.77858329829
4462.657446149992,17114.328632857105
