wave,flux
4450.003811362098,17002.311679274964
4450.026953690486,16666.90468154386
4450.050096139227,16386.953609939443
4450.073238708321,16032.474911775318
4450.096381397769,15288.13323271887
4450.119524207569,14466.051303329255
4450.142667137726,13583.999781637713
4450.165810188237,12649.439608963472
4450.188953359103,11600.441680581202
4450.212096650326,10353.575931857247
4450.2352400619075,9200.679765306844
4450.258383593846,8169.85305750626
4450.281527246142,7132.034030688758
4450.304671018797,6255.169630237396
4450.327814911813,5443.6930648896805
4450.350958925188,4948.411345138042
4450.374103058924,4554.85442134324
4450.3972473130225,4221.198728980502
4450.420391687483,4105.591942937095
4450.443536182305,4087.63892226066
4450.466680797492,4095.0877802982072
4450.489825533042,4326.568644120666
4450.512970388957,4866.133153100479
4450.536115365237,5560.352719812675
4450.559260461882,6300.591776532095
4450.582405678895,7169.482834286131
4450.605551016274,7921.425987134032
4450.628696474022,8538.485953055304
4450.651842052138,8990.65026391385
4450.674987750623,9372.695031364761
4450.698133569476,9519.53654225553
4450.721279508702,9538.112573925238
4450.744425568297,9680.998285745718
4450.767571748264,9909.844521692392
4450.790718048604,10367.31464765437
4450.813864469315,10884.029115317835
4450.837011010401,11423.764734138498
4450.86015767186,12058.872772915038
4450.883304453694,12815.011228968056
4450.906451355903,13744.708379228674
4450.929598378489,14663.284164761015
4450.95274552145,15853.738470424722
4450.975892784789,17049.42930259863
4450.999040168505,17960.77610209929
4451.022187672601,18793.51494742246
4451.045335297074,19412.160988405296
4451.068483041929,19687.686153335853
4451.091630907163,19944.33119809284
4451.114778892777,19908.917987352273
4451.137926998774,19765.868446511347
4451.161075225153,19965.779228325824
4451.184223571914,19628.998261704368
4451.207372039059,19580.589706789844
4451.230520626587,19040.534911667022
4451.253669334501,18397.07456388007
4451.2768181628,17527.74276653594
4451.299967111485,17074.3304913814
4451.323116180556,16072.148543500201
4451.346265370014,15116.649138219089
4451.369414679861,14227.79752522583
4451.392564110095,13222.983042117014
4451.415713660719,12227.036774665998
4451.438863331732,11110.368392158878
4451.462013123136,10118.05091475437
4451.48516303493,9092.655809234408
4451.508313067117,8339.543146049467
4451.531463219695,7947.381482257312
4451.554613492666,7924.680239179958
4451.577763886031,8429.53269347164
4451.60091439979,9157.879158339143
4451.624065033943,10164.657776797365
4451.647215788492,11644.625288621033
4451.670366663436,13051.344458367894
4451.693517658777,14299.344148803259
4451.716668774516,15417.104189372018
4451.739820010652,16025.801905754332
4451.762971367186,16375.793469955715
4451.78612284412,16527.54022114179
4451.8092744414525,16283.289156424826
4451.832426159187,15840.13844074939
4451.855577997321,15364.710579784563
4451.878729955857,14759.531010436922
4451.901882034796,14207.78050451351
4451.925034234137,13372.30785209481
4451.948186553881,13019.254028205833
4451.97133899403,12937.926243995957
4451.994491554583,13018.941084858958
4452.017644235542,13499.19120765468
4452.040797036907,14310.778473065062
4452.063949958678,15342.636478685567
4452.087103000857,16153.002385823967
4452.1102561634425,17185.744437959904
4452.133409446437,18006.213738824168
4452.156562849841,18622.793363338646
4452.179716373655,19179.9466141703
4452.202870017878,19530.84610380925
4452.226023782513,19776.47561573616
4452.24917766756,19935.564721801064
4452.272331673018,19981.543596391653
4452.29548579889,19699.932424042065
4452.318640045174,19476.231587936094
4452.341794411874,19430.96676434011
4452.364948898987,19251.479898068676
4452.388103506516,18602.089191412942
4452.4112582344615,17986.915050219683
4452.434413082823,17533.755712507547
4452.457568051602,16777.089388531287
4452.480723140799,15963.59321113039
4452.503878350413,15204.812582961762
4452.527033680448,14470.86394781796
4452.550189130902,13766.187786011997
4452.5733447017765,13180.763024867563
4452.596500393071,12588.440765641144
4452.619656204789,12084.002703987619
4452.642812136928,11800.327556293096
4452.66596818949,11722.363900316985
4452.689124362475,11852.461812585303
4452.7122806558855,11986.83303620218
4452.735437069719,12333.054922952006
4452.7585936039795,12599.645967888542
4452.781750258665,13172.51741221301
4452.804907033777,13733.45894633939
4452.828063929317,14056.077900255299
4452.851220945285,14195.57610656479
4452.87437808168,14096.473803617435
4452.897535338506,13884.052615261196
4452.92069271576,13728.957575482169
4452.943850213445,13245.312403067755
4452.967007831562,12962.949253837298
4452.99016557011,12827.55857450673
4453.01332342909,12725.60140523466
4453.036481408502,13042.690296986253
4453.059639508349,13367.636905520225
4453.08279772863,13610.43561144432
4453.105956069345,13556.242919798204
4453.129114530496,13576.572246662457
4453.152273112083,13278.488343644452
4453.175431814107,12802.462804865325
4453.198590636567,12248.3367593946
4453.221749579466,11776.060585355306
4453.244908642802,11524.071181470088
4453.268067826579,11139.36344434738
4453.291227130795,11239.459100587012
4453.314386555451,11810.321956417505
4453.337546100549,12227.137822089124
4453.360705766087,13310.322637916404
4453.3838655520685,14510.53645474859
4453.407025458493,15432.88998780647
4453.430185485361,16440.930329377527
4453.453345632673,16936.555108998098
4453.476505900429,17082.36540496057
4453.4996662886315,17146.921579751008
4453.52282679728,16964.190689249288
4453.545987426375,16713.339110511028
4453.569148175917,16245.466530556496
4453.592309045907,15696.863351385578
4453.615470036346,15227.249194722508
4453.638631147233,14844.15993781552
4453.661792378571,14658.696892115471
4453.684953730359,14611.72318396751
4453.708115202598,14771.65132020781
4453.731276795288,15204.04712687682
4453.754438508431,15847.38715163362
4453.777600342027,16773.91661186969
4453.800762296077,17628.741399493752
4453.82392437058,18132.21669359962
4453.847086565538,18660.411182355034
4453.870248880952,19067.073178042836
4453.8934113168225,19334.29215823987
4453.916573873149,19403.750482879685
4453.939736549933,19618.12155436602
4453.962899347174,19484.05871563776
4453.986062264875,19156.57735200331
4454.009225303034,19141.85171268033
4454.032388461654,18919.140792504426
4454.055551740734,18404.83518632276
4454.078715140275,17523.73421012158
4454.101878660277,17001.074283973478
4454.125042300742,16023.314372341194
4454.14820606167,15038.72018389827
4454.171369943061,14090.588149409165
4454.194533944917,12829.670279770718
4454.2176980672375,11951.56629294531
4454.240862310024,10739.35422233932
4454.264026673275,9562.02080250549
4454.287191156994,8591.500386274007
4454.31035576118,7630.533480833048
4454.333520485834,6977.922891316391
4454.356685330957,6511.637623014023
4454.379850296548,6550.495780210938
4454.40301538261,6633.400627868925
4454.426180589142,7243.518619164094
4454.449345916145,7811.853089323797
4454.4725113636205,8286.026875871194
4454.495676931568,8634.185699179092
4454.5188426199875,8809.010878969
4454.542008428882,8578.252725356908
4454.565174358249,7957.347885561048
4454.588340408092,7343.072684827175
4454.611506578411,6552.946786977885
4454.634672869205,5649.832334800208
4454.657839280476,5021.740619857299
4454.681005812225,4481.476259512926
4454.704172464451,4036.123398219547
4454.727339237156,3789.6791555047625
4454.750506130341,3741.1639311162658
4454.773673144005,3943.375663406706
4454.79684027815,4295.869313278457
4454.820007532776,4867.46926065621
4454.843174907884,5404.479227484513
4454.866342403473,5993.367093062258
4454.889510019546,6695.580446829396
4454.912677756102,7213.268522093752
4454.935845613144,7556.086865772495
4454.959013590669,7903.784525685173
4454.982181688681,8239.30757184175
4455.005349907178,8487.840036147843
4455.028518246162,8890.465352498875
4455.051686705633,9323.982102941869
4455.074855285593,9946.885575685008
4455.098023986041,10685.905451325854
4455.121192806979,10995.830120788554
4455.144361748406,11197.867191565345
4455.167530810323,11275.292787624123
4455.190699992732,10918.573402722339
4455.213869295633,10407.990939259462
4455.237038719026,10086.843250406782
4455.260208262912,9741.15503741166
4455.283377927292,9828.869540069043
4455.306547712166,10207.033796596736
4455.329717617535,10840.958406615195
4455.352887643399,11808.710895455004
4455.37605778976,13089.767230483858
4455.399228056617,14266.044062697445
4455.422398443972,15313.721958036744
4455.445568951825,15960.38567527325
4455.468739580177,16304.943419908312
4455.491910329028,16464.687699390375
4455.515081198378,16222.55713275374
4455.538252188229,15818.404414133516
4455.561423298582,15177.933257592053
4455.584594529436,14202.231476525441
4455.607765880793,13290.76117692307
4455.630937352652,12370.8380126159
4455.654108945016,11418.629154002116
4455.677280657883,10654.806530750753
4455.700452491255,9589.36089210495
4455.723624445134,8877.273518821392
4455.746796519518,7998.752056787267
4455.7699687144095,7239.063666679449
4455.793141029808,6531.817414230564
4455.816313465714,6188.654960895209
4455.83948602213,6019.084840105541
4455.862658699055,6114.635605331128
4455.885831496489,6724.43775818176
4455.909004414434,7839.424803681378
4455.932177452891,9058.028047255686
4455.955350611858,10263.510798240059
4455.978523891339,11645.24797784113
4456.001697291333,13079.196174999515
4456.024870811841,14041.525882958644
4456.048044452862,14764.747631729591
4456.071218214399,15157.21094109701
4456.094392096451,15305.997266070251
4456.117566099019,15328.346521114292
4456.140740222105,14808.848360273687
4456.163914465707,14433.518249426714
4456.187088829828,13698.6884506908
4456.210263314468,12943.276113043468
4456.233437919626,12120.424408940069
4456.256612645306,11362.288451950639
4456.279787491505,10404.676374338867
4456.302962458226,9650.04429925863
4456.326137545469,9306.044436120868
4456.349312753233,9122.161716012235
4456.372488081522,9240.322039466833
4456.395663530333,9424.908129184441
4456.41883909967,9758.149884151977
4456.442014789531,10339.30428229597
4456.465190599917,10577.037745824458
4456.488366530831,10608.397263862666
4456.5115425822705,10618.269589322768
4456.5347187542375,10436.574047463955
4456.557895046733,10147.467000347693
4456.581071459757,9892.236551278264
4456.604247993311,10174.779699930157
4456.627424647395,10692.956682445072
4456.650601422009,11468.022351215448
4456.673778317154,12532.254933438067
4456.696955332832,13574.383126261082
4456.720132469041,14579.566963579786
4456.7433097257845,15605.673800323426
4456.766487103061,16354.50625211017
4456.789664600872,16686.969410164984
4456.8128422192185,16900.96883806997
4456.8360199581,16920.758946894628
4456.859197817518,16622.510700394785
4456.882375797473,16209.476603958494
4456.905553897966,15670.382696259609
4456.928732118997,15326.326608536972
4456.951910460566,15173.47147277238
4456.975088922674,14890.156682631423
4456.998267505323,14553.646658607486
4457.021446208513,14397.436978686348
4457.044625032244,14608.982160927439
4457.067803976516,14983.90937100388
4457.090983041332,15359.528446290984
4457.1141622266905,15691.968043665443
4457.1373415325925,15854.234941486447
4457.160520959039,15872.948644017531
4457.183700506031,15557.493302254537
4457.206880173568,14983.61742833289
4457.230059961651,14409.503324070889
4457.2532398702815,13665.199354484026
4457.27641989946,12580.367304715997
4457.299600049186,11443.52660853531
4457.322780319461,10534.941590822227
4457.345960710286,9539.130066621698
4457.36914122166,8583.069795569569
4457.392321853586,7874.565538802906
4457.415502606062,7444.163201747265
4457.43868347909,7383.945510316874
4457.461864472672,7645.513621028323
4457.485045586805,8357.221643164048
4457.508226821494,9281.4718300956
4457.5314081767365,10335.394326248492
4457.554589652534,11476.169365020054
4457.577771248887,12668.594921238675
4457.600952965797,13863.611305353443
4457.624134803263,14829.523388691012
4457.647316761288,15646.909042762987
4457.67049883987,16385.283564120582
4457.693681039011,16589.588215733886
4457.716863358712,16762.153232425553
4457.7400457989725,16776.814381995875
4457.763228359793,16390.376177917133
4457.7864110411765,16301.015940112558
4457.809593843121,15930.441365978879
4457.832776765628,15512.465925579547
4457.855959808699,15238.495390869872
4457.879142972333,14729.486009758824
4457.902326256532,13908.527663008826
4457.925509661296,13038.020340748759
4457.948693186626,12193.583257268583
4457.971876832522,11198.597891808122
4457.995060598985,10411.29544306898
4458.018244486016,9751.622540285327
4458.041428493615,9043.089985793084
4458.0646126217825,8587.947106644295
4458.08779687052,8341.055262089762
4458.110981239827,8398.096036895886
4458.134165729705,8619.868592611147
4458.157350340155,8798.157543757821
4458.180535071177,9078.60886791948
4458.203719922771,9353.492149652982
4458.226904894938,9709.891322054174
4458.2500899876795,10276.910969170265
4458.273275200995,10710.539935833467
4458.296460534886,11405.184458190308
4458.3196459893525,12241.417075003455
4458.342831564396,12510.51915502869
4458.366017260016,12979.157057779059
4458.389203076214,13072.535501152177
4458.4123890129895,12962.267252652395
4458.435575070344,12796.322006181801
4458.458761248279,12541.843920977959
4458.481947546794,12366.58397662517
4458.505133965889,12291.131231112277
4458.528320505566,12667.979804883342
4458.551507165825,13342.25728185245
4458.574693946666,14296.591830272355
4458.597880848091,15367.531489659274
4458.6210678701,16408.466477125156
4458.644255012693,16990.679563890706
4458.6674422758715,17405.9428748557
4458.690629659636,17588.19431744205
4458.713817163986,17412.545875980846
4458.737004788924,16932.328843355426
4458.76019253445,16283.067662711108
4458.783380400563,15334.347599651945
4458.8065683872655,14446.033359071234
4458.829756494558,13435.638428488788
4458.85294472244,12289.544593203815
4458.876133070914,11267.241295924652
4458.899321539979,9933.8633335198
4458.922510129635,8794.001163735458
4458.945698839884,7506.366024586887
4458.968887670727,6570.770962034792
4458.992076622164,5600.380772865784
4459.015265694195,4711.872794799609
4459.0384548868215,4210.05999766001
4459.061644200044,3911.783025520585
4459.084833633862,3873.825365754732
4459.108023188278,4086.24124864524
4459.131212863292,4505.96756586239
4459.154402658904,5014.368595956578
4459.177592575114,5657.195537087565
4459.200782611925,6500.115279057678
4459.223972769336,7246.828180159224
4459.247163047347,7969.849056724278
4459.27035344596,8711.307910928772
4459.293543965176,9340.195349551137
4459.316734604993,9919.902913857351
4459.339925365414,10600.810141207869
4459.363116246439,11419.266449811816
4459.386307248069,12500.354039978545
4459.409498370304,13752.976062084119
4459.432689613145,14996.606961951384
4459.455880976592,15787.050751724057
4459.479072460647,16376.60417960744
4459.502264065309,16682.676301803487
4459.52545579058,16868.18605246927
4459.5486476364595,16810.70051651549
4459.571839602949,16590.130850436155
4459.595031690048,16001.316616219943
4459.618223897759,15403.879327626562
4459.641416226081,14928.191495504105
4459.664608675014,14226.06607843091
4459.687801244561,13844.477840606936
4459.710993934721,13518.21844992142
4459.734186745496,13566.238006536805
4459.757379676885,13898.088142890774
4459.780572728889,14284.506397500705
4459.803765901509,15057.142947417491
4459.8269591947455,15916.3349715819
4459.850152608599,16569.742146518052
4459.87334614307,17011.551722265845
4459.89653979816,17140.18564717934
4459.91973357387,17201.748522906746
4459.942927470198,16956.62247495141
4459.966121487147,16137.463904732042
4459.989315624717,15452.862192668743
4460.0125098829085,14612.97322324702
4460.035704261722,13628.840459356847
4460.058898761158,12539.454455072333
4460.082093381218,11412.472291060096
4460.105288121902,10405.656752497176
4460.12848298321,9408.5368061216
4460.151677965145,8468.2006091451
4460.1748730677045,7696.07706232396
4460.198068290891,7360.162605324279
4460.221263634704,7413.521557431583
4460.244459099145,7693.5680260439985
4460.267654684215,8457.050326846018
4460.290850389914,9373.222933315032
4460.314046216243,10547.836329637941
4460.337242163202,11819.962330591123
4460.360438230791,13156.967860239924
4460.383634419013,14483.085885291868
4460.406830727867,15515.540337384915
4460.430027157354,16806.372376791416
4460.453223707474,17724.13692029803
4460.476420378228,18258.85810874002
4460.499617169617,18776.674040681915
4460.522814081641,19018.68540886039
4460.5460111143,19183.310923918725
4460.569208267598,19156.3168479808
4460.592405541532,19231.66498111015
4460.615602936104,19332.79969645658
4460.638800451314,19051.321585401016
4460.661998087163,18845.03472383976
4460.685195843652,18622.999907123616
4460.708393720782,18429.65085146912
4460.731591718552,18102.97160687803
4460.754789836965,17751.563422291965
4460.777988076019,17658.429576830295
4460.801186435716,17364.437627619194
4460.824384916057,16782.89811574348
4460.847583517042,16480.396107609064
4460.870782238671,16040.777417270365
4460.893981080947,15272.58148860626
4460.917180043868,14482.205045183973
4460.940379127435,13564.388051919153
4460.963578331651,12391.757027641694
4460.986777656513,11359.549698202212
4461.009977102025,10313.965793125099
4461.033176668186,8960.634927109535
4461.056376354995,8001.28291509804
4461.079576162457,7148.979477612299
4461.102776090568,6631.199755949906
4461.125976139332,6414.375008143438
4461.149176308748,6207.000927726565
4461.172376598816,6219.035491595155
4461.195577009538,6310.693388870303
4461.218777540915,6564.784586044829
4461.241978192946,6938.246926058955
4461.265178965633,7204.652540816605
4461.2883798589755,7363.971297751844
4461.311580872974,7383.224707128483
4461.3347820076315,7332.112288324215
4461.357983262946,7063.505698217367
4461.381184638919,6668.914585855608
4461.404386135551,6249.255302990587
4461.4275877528435,6010.648335383762
4461.4507894907965,5794.263564291851
4461.4739913494095,5577.045755460526
4461.497193328685,5420.694477128677
4461.520395428623,5227.044209933637
4461.543597649224,4948.8273168793385
4461.566799990488,4561.564798421296
4461.590002452416,4303.871275910151
4461.61320503501,4140.772549663848
4461.636407738269,4279.047227207832
4461.659610562193,4629.507230256358
4461.682813506784,5127.113506928525
4461.706016572044,5875.640973482623
4461.729219757971,6722.548365457409
4461.752423064566,7495.066367070085
4461.775626491831,8164.150554795023
4461.798830039766,8822.181619989555
4461.82203370837,8998.089014775564
4461.845237497647,9101.294337355272
4461.868441407595,8754.34704962161
4461.891645438215,8412.881414960888
4461.914849589509,7776.90835349749
4461.938053861475,7312.544355277549
4461.961258254117,7147.675079764855
4461.984462767433,7295.5796451666765
4462.007667401424,7541.071116086526
4462.030872156092,8256.16555490701
4462.0540770314365,9149.939192715963
4462.077282027459,10018.616798277162
4462.100487144158,10856.269602223952
4462.123692381537,11738.219978352246
4462.146897739594,12009.231896726042
4462.170103218332,12302.931007036701
4462.19330881775,12373.751718829351
4462.21651453785,12413.016842335906
4462.239720378631,12185.468760536212
4462.262926340095,12169.611282023496
4462.286132422241,11745.906384953747
4462.309338625071,11313.346146354646
4462.3325449485865,10707.715964201092
4462.355751392785,10105.70280201352
4462.3789579576705,9754.821707895215
4462.402164643242,9537.03770157119
4462.4253714495,9704.519440716072
4462.448578376446,10218.355383856091
4462.471785424079,11231.770341465048
4462.494992592401,12384.230073149673
4462.518199881412,13547.693799908617
4462.541407291114,14795.773312260493
4462.564614821506,15674.493893838297
4462.587822472589,16339.397928237366
4462.611030244365,16609.344940011357
4462.634238136832,16718.197754188262
4462.657446149992,16543.34543426001
4462.680654283847,16212.046983765931
