wave,flux
5000.025812696027,16167.137445874818
5000.051815424163,15480.401341752138
5000.0778182875265,14852.721544479125
5000.103821286119,14272.237692211662
5000.12982441994,13551.970889987315
5000.155827688991,12870.577131953483
5000.181831093272,12157.686669907393
5000.207834632784,11302.11687900907
5000.2338383075285,10655.466253830362
5000.259842117506,10274.119222699901
5000.285846062716,9863.67814857444
5000.311850143161,9585.341588496154
5000.33785435884,9716.093117679075
5000.363858709754,9915.154924946091
5000.389863195905,10299.861666945917
5000.415867817292,11090.196497106557
5000.441872573917,11890.872856652071
5000.4678774657805,12502.298174265043
5000.493882492882,13117.827194194273
5000.519887655224,13665.70636720605
5000.545892952806,14040.939241898612
5000.571898385629,14055.71735986538
5000.597903953694,13774.249938837334
5000.623909657001,13624.532590705008
5000.649915495552,13374.427744219554
5000.675921469346,12941.853909164427
5000.701927578384,12647.282326747965
5000.727933822669,12191.574471834121
5000.7539402021985,12164.827574713134
5000.779946716975,12272.598863883108
5000.805953366999,12377.065566992655
5000.831960152272,12552.99398687884
5000.857967072792,12856.455320992292
5000.883974128563,13046.571095341706
5000.9099813195835,13304.501738718849
5000.935988645855,13560.76976319525
5000.961996107378,13683.40983965907
5000.988003704153,13887.815454807836
5001.014011436181,14294.323391664868
5001.040019303464,14769.558639909936
5001.066027306,15044.0536758327
5001.092035443791,15492.030276453952
5001.118043716839,15807.509172476817
5001.1440521251425,15891.322832279331
5001.170060668704,15970.42702091934
5001.196069347523,15920.444383996588
5001.222078161601,15750.627992093363
5001.248087110937,15701.078877286656
5001.274096195534,15551.222536272386
5001.300105415392,15436.220536918578
5001.326114770512,15408.872130711035
5001.352124260892,15071.831115553246
5001.3781338865365,14736.582227961442
5001.4041436474445,14589.200729448696
5001.430153543616,14207.034374774443
5001.456163575053,13951.899152965641
5001.482173741756,13663.223655076788
5001.508184043724,13452.6440761695
5001.534194480961,13305.673666842962
5001.560205053464,13212.588119509044
5001.586215761236,12773.59536190391
5001.612226604278,12202.540035200964
5001.638237582589,11731.65936620091
5001.664248696171,11266.765349762882
5001.690259945024,10508.52568321734
5001.716271329149,9658.25093217425
5001.742282848547,8831.175607305884
5001.768294503218,8085.159272766153
5001.794306293164,7522.604374050732
5001.820318218383,7152.357387202457
5001.84633027888,7087.891057138286
5001.872342474651,7369.299330745649
5001.8983548056995,7932.939648886158
5001.924367272026,8851.110263376171
5001.9503798736305,9985.508652007007
5001.976392610514,11365.866718491561
5002.002405482678,12694.823986706328
5002.028418490122,13707.269306691578
5002.054431632847,14751.442119293817
5002.080444910854,15387.554053014437
5002.106458324142,15989.532910026719
5002.1324718727155,16441.294060736767
5002.158485556572,16774.43903137729
5002.184499375713,16916.918550481205
5002.210513330139,16943.451491456766
5002.236527419852,17053.874851125882
5002.262541644852,17052.572832029226
5002.288556005138,16977.17302567253
5002.314570500714,16785.588847833224
5002.340585131577,16678.60252950274
5002.36659989773,16466.95748377072
5002.392614799174,16075.72851442674
5002.418629835909,16000.790871882464
5002.444645007936,15488.688759026494
5002.4706603152545,15099.161521112868
5002.496675757866,14801.608162821916
5002.522691335772,14505.11176047614
5002.548707048972,13849.368196612062
5002.574722897468,13138.514636484915
5002.600738881259,12593.108986479552
5002.626755000347,12069.253859598486
5002.652771254732,11543.05530305651
5002.678787644415,11054.19268640386
5002.704804169397,10600.2375073806
5002.730820829678,10210.00174055686
5002.75683762526,10071.307305935665
5002.782854556142,10037.735088758353
5002.8088716223265,10320.824563300797
5002.834888823812,11102.83882787083
5002.860906160601,12145.65172350517
5002.886923632695,13022.059023628983
5002.912941240092,14067.040839766885
5002.938958982793,15085.898025363764
5002.9649768608015,15692.248318399199
5002.990994874116,16313.388897744906
5003.017013022737,16890.79316759604
5003.043031306666,17066.024004218103
5003.069049725905,17061.676049815585
5003.095068280452,17178.95379841434
5003.121086970309,17368.70199200051
5003.147105795477,17387.221821513434
5003.173124755956,17236.757306448773
5003.199143851748,17364.476696252088
5003.225163082852,17250.276797491024
5003.251182449269,17225.044400185652
5003.277201951001,17226.37648250619
5003.3032215880485,17307.291609778014
5003.32924136041,17095.508533603585
5003.35526126809,17088.192538335697
5003.381281311085,16935.103538976546
5003.407301489398,16925.436477385374
5003.433321803031,16794.7319400987
5003.459342251982,16555.644476284222
5003.4853628362525,16340.049642264536
5003.511383555844,16187.532811700825
5003.537404410757,15855.997981929107
5003.563425400991,15385.11412455508
5003.589446526548,15212.310352216306
5003.615467787429,14921.078016371343
5003.641489183634,14470.83420001664
5003.667510715163,14095.115385902523
5003.693532382018,13597.348507781977
5003.719554184199,13299.11429764057
5003.745576121707,13111.330770083068
5003.771598194542,13307.331965170959
5003.797620402706,13320.609971460046
5003.823642746199,13483.300718771585
5003.849665225021,13833.028694723746
5003.875687839174,13940.667153805312
5003.901710588658,13754.238511505568
5003.927733473473,13596.611135995938
5003.953756493622,13397.496695522728
5003.979779649103,13087.750289489899
5004.005802939919,12905.831034385756
5004.031826366068,12830.499542646307
5004.057849927553,12866.34197685963
5004.083873624375,13169.050907767714
5004.109897456533,13447.990881091097
5004.135921424028,13962.02880153097
5004.161945526862,14538.084949165957
5004.187969765035,14955.787986484434
5004.213994138547,15065.666055069254
5004.240018647399,15387.471756423925
5004.266043291592,15440.324139812257
5004.292068071127,15506.316491465854
5004.318092986004,15617.089714754857
5004.344118036223,15665.814655347876
5004.370143221788,15738.639509118904
5004.396168542696,16006.00615038058
5004.422193998949,16331.55845765518
5004.448219590549,16643.969101055354
5004.474245317495,16898.782888685568
5004.500271179789,16963.999340581588
5004.52629717743,17029.393657322616
5004.5523233104195,17217.41741475016
5004.578349578759,17416.476513221147
5004.604375982449,17256.563432885436
5004.630402521489,17173.05340526894
5004.656429195881,17160.61377422159
5004.682456005625,17149.12465689504
5004.708482950721,17020.16775594381
5004.734510031172,16713.045783931175
5004.760537246977,16520.510762511793
5004.7865645981365,16280.765778130577
5004.812592084652,15959.130654026423
5004.838619706525,15723.222700537743
5004.8646474637535,15213.203063633291
5004.890675356341,14716.880414376817
5004.916703384286,14319.425598093749
5004.942731547591,13852.0733318694
5004.968759846256,13456.652158572779
5004.994788280281,12992.77008651973
5005.020816849668,12538.044214834314
5005.046845554417,11976.29696227546
5005.072874394528,11616.186106335603
5005.098903370003,11107.841392746179
5005.124932480842,10777.608071995091
5005.150961727047,10532.82709866808
5005.176991108617,10685.694137965156
5005.203020625552,11089.077212261887
5005.229050277856,11851.719003173625
5005.255080065526,12671.22768753945
5005.281109988566,13368.16793838613
5005.3071400469735,14053.888735103981
5005.333170240751,14476.617688408087
5005.3592005699,14579.106196997458
5005.38523103442,14459.54778226234
5005.411261634312,14063.892827751197
5005.4372923695755,13546.955295975315
5005.463323240213,12990.652049818198
5005.489354246225,12221.390024644284
5005.515385387611,11397.408505280857
5005.541416664373,10610.449427925636
5005.567448076511,9721.750018827443
5005.593479624025,8960.03746818063
5005.619511306918,8223.389130094763
5005.645543125189,7689.63956914604
5005.671575078838,7184.148645480588
5005.697607167867,6870.923899004223
5005.723639392277,6883.473044201456
5005.749671752068,7091.3198095755015
5005.77570424724,7588.794995704729
5005.8017368777955,8061.207629267978
5005.8277696437335,8573.815304892756
5005.853802545055,8992.41932800458
5005.879835581762,9059.129810148748
5005.905868753854,8926.133783477819
5005.931902061331,8596.9605246361
5005.957935504196,8002.078391936301
5005.983969082448,7408.446728508745
5006.010002796088,6890.924482454623
5006.036036645117,6372.035099637324
5006.062070629536,5947.974145636985
5006.088104749344,5788.0009577237815
5006.114139004544,5970.383384308148
5006.140173395135,6409.265421897538
5006.166207921118,7178.891948283419
5006.192242582495,8242.898346140206
5006.218277379266,9569.696010709276
5006.244312311431,10942.927850808679
5006.270347378991,12228.535536285404
5006.296382581946,13443.378476202117
5006.322417920299,14398.63323007885
5006.348453394048,15038.563709243932
5006.374489003196,15724.779919636418
5006.400524747743,16359.62259401006
5006.426560627688,16491.380306422117
5006.452596643034,16469.068300592065
5006.47863279378,16674.38272153654
5006.504669079928,16743.854376595114
5006.530705501478,16673.45843943885
5006.556742058431,16669.608242552786
5006.582778750788,16656.140302620486
5006.608815578549,16690.090213237985
5006.634852541715,16677.005780414875
5006.660889640287,16553.081958071958
5006.686926874265,16619.501398752862
5006.71296424365,16503.72009937724
5006.739001748444,16590.088598646114
5006.765039388645,16493.927236456042
5006.791077164256,16341.641773033627
5006.817115075277,16069.447479051625
5006.843153121708,15820.40334677117
5006.869191303552,15534.680823648843
5006.895229620806,15097.047122553306
5006.921268073474,14409.624220068472
5006.947306661555,13720.527682830478
5006.97334538505,13061.030184514657
5006.999384243961,12133.777615990031
5007.025423238286,11238.993612234082
5007.051462368028,10485.743754188721
5007.077501633187,9504.506352224404
5007.103541033764,8597.890802353233
5007.129580569759,7710.453084496741
5007.155620241173,7168.092708316546
5007.181660048007,6553.005574197436
5007.207699990262,6365.363687837506
5007.233740067937,6410.509689071009
5007.259780281035,6901.0864419670315
5007.285820629555,7580.7222363947785
5007.311861113499,8649.829027967487
5007.337901732866,9834.790036569857
5007.363942487658,11076.4127864733
5007.389983377876,12261.829141210788
5007.41602440352,13520.909299243407
5007.442065564591,14433.842242609726
5007.468106861089,15109.961626761991
5007.494148293015,15660.026971187368
5007.520189860371,15950.27223353767
5007.546231563156,16079.077395799204
5007.572273401372,16066.863869763674
5007.598315375018,15976.904881040331
5007.624357484096,15788.96008049634
5007.650399728607,15599.131909346148
5007.676442108551,15485.025517888387
5007.702484623929,15400.950754135876
5007.728527274741,15449.047629153329
5007.754570060989,15499.583177382843
5007.780612982673,16057.983418080647
5007.806656039793,16423.58251955657
5007.832699232351,16772.15357512969
5007.858742560347,17116.153049743767
5007.884786023782,17508.252193912056
5007.910829622656,17784.929454792044
5007.936873356971,17908.90610124768
5007.962917226726,17978.13779771384
5007.988961231923,17889.794227884526
5008.015005372563,17869.26349004796
5008.041049648646,17973.437281643164
5008.067094060171,17999.131000827252
5008.0931386071425,18026.173632412385
5008.119183289558,18039.559167340332
5008.14522810742,18026.20182060544
5008.171273060728,18111.998803791696
5008.197318149483,18181.238176803196
5008.223363373687,18354.547089939693
5008.249408733339,18366.412179962248
5008.27545422844,18098.476469916237
5008.301499858992,18205.780022645922
5008.327545624995,18087.56172676443
5008.353591526448,18163.43160282161
5008.379637563355,18052.348212622448
5008.405683735714,17771.979164069424
5008.431730043527,17889.20177683753
5008.457776486794,17689.726441717256
5008.483823065515,17465.593939099064
5008.509869779693,17323.815591525683
5008.535916629327,17174.543599707464
5008.561963614418,17083.093011421148
5008.588010734968,16973.844105902775
5008.614057990975,16805.419280260154
5008.640105382442,16794.78574489831
5008.666152909369,16928.58039165719
5008.692200571756,17101.959757758937
5008.718248369605,17312.404722141622
5008.744296302916,17557.513546315364
5008.77034437169,17819.91046282773
5008.796392575927,17946.424518751708
5008.822440915628,18005.49883678786
5008.848489390794,17994.44870096039
5008.874538001426,18290.801546374136
5008.900586747524,18052.198601894976
5008.926635629089,18019.246042132163
5008.952684646122,17971.46547123144
5008.978733798623,18063.552975251787
5009.004783086593,18100.56921326002
5009.030832510033,18196.31134588905
5009.056882068944,18061.38747647104
5009.082931763326,18136.59278826609
5009.108981593179,18166.63161855922
5009.135031558506,18003.14534311977
5009.161081659306,17993.7471885831
5009.187131895579,18001.76905592768
5009.213182267327,17955.783220707875
5009.239232774552,17980.024509338735
5009.265283417251,17914.43191625139
5009.291334195428,17725.761877598292
5009.317385109083,17621.073638128135
5009.343436158216,17545.543652094973
5009.369487342828,17300.968990161255
5009.395538662919,17009.15638710427
5009.421590118491,16862.321874179677
5009.447641709544,16576.139821977777
5009.473693436078,16131.065686661856
5009.499745298095,16101.701297284191
5009.525797295596,15769.550667861435
5009.55184942858,15657.329815103054
5009.577901697049,15403.090299931764
5009.603954101003,15218.881482350851
5009.630006640443,14998.143566842893
5009.65605931537,15114.144438592783
5009.682112125784,15365.579707279223
5009.708165071686,15580.727492998329
5009.7342181530785,15788.627606511676
5009.760271369959,15959.24523198031
5009.78632472233,15930.611048072189
5009.812378210192,15900.661394509947
5009.838431833546,15661.346311512089
5009.864485592391,15205.934401676446
5009.890539486731,14713.532775277574
5009.916593516564,14182.2825899568
5009.942647681891,13599.246881284369
5009.968701982713,13027.323334744695
5009.994756419032,12442.352886207578
5010.020810990847,11887.829554220374
5010.046865698159,11552.089398652037
5010.072920540969,11265.246933976216
5010.098975519279,11129.805076548664
5010.125030633087,11113.96987600229
5010.151085882395,11171.39679567091
5010.177141267204,11134.600550923322
5010.2031967875155,11290.164049500503
5010.229252443328,11723.487251588973
5010.255308234644,12273.306777041233
5010.281364161464,12932.626474177712
5010.307420223788,13932.41824033718
5010.333476421617,14930.22524092734
5010.359532754951,15753.496548707713
5010.3855892237925,16302.41274820573
5010.4116458281405,16923.48265803347
5010.437702567997,17349.379367669233
5010.463759443362,17610.099243307493
5010.489816454236,17866.095958527603
5010.51587360062,17987.25099810616
5010.541930882514,17953.805239265654
5010.56798829992,17874.972221061224
5010.5940458528385,17717.22101667866
5010.62010354127,17377.232990957997
5010.646161365214,17112.920969177852
5010.672219324672,16930.376423435144
5010.698277419646,16530.63728818656
5010.724335650135,16131.299952790258
5010.7503940161405,15605.702547981724
5010.7764525176635,14973.569629464228
5010.802511154703,14418.903732205627
5010.828569927262,13967.585215798224
5010.85462883534,13503.57649276809
5010.880687878937,13225.184447258212
5010.906747058056,13028.278491755043
5010.932806372695,13064.358752311196
5010.958865822856,13376.756294342815
5010.98492540854,13907.520930189057
5011.0109851297475,14648.624631009861
5011.0370449864795,15297.998450283478
5011.063104978735,16196.91557400803
5011.089165106517,16698.870892465282
5011.115225369825,17230.482094789106
5011.14128576866,17612.839739120816
5011.167346303022,17689.28944376789
5011.193406972913,17872.45763385773
5011.219467778333,17945.256144753635
5011.2455287192815,18011.004719442095
5011.271589795761,18101.020960824677
5011.297651007772,18073.567552323748
5011.323712355315,17998.03464950506
5011.34977383839,17998.4399648805
5011.375835456999,18005.15072318622
5011.401897211142,17816.445185199074
5011.427959100819,17710.5768422222
5011.454021126031,17652.229023402917
5011.4800832867795,17366.87016912276
5011.506145583065,17031.18161436153
5011.532208014888,16794.648179079413
5011.558270582248,16414.946029092516
5011.584333285148,16243.42415058561
5011.610396123588,15857.492266600751
5011.636459097567,15406.799510635525
5011.662522207088,14840.10756614115
5011.68858545215,14299.061350011863
5011.714648832754,13696.512813957563
5011.740712348902,13024.947362441872
5011.766776000594,12532.298413114428
5011.79283978783,11973.139042678831
5011.818903710611,11253.013031069811
5011.844967768939,10515.967961758772
5011.871031962813,9763.806823913532
5011.897096292234,8933.966545501866
5011.923160757203,8051.477331143202
5011.949225357721,7166.187455188108
5011.975290093788,6428.355289607351
5012.001354965406,5810.042669994251
5012.027419972574,5263.761560370014
5012.053485115294,5061.970123973846
5012.079550393566,5253.140560909912
5012.105615807392,5641.246005589212
5012.13168135677,6216.0945182269625
5012.157747041703,7092.971321703016
5012.183812862192,8079.8762814159445
5012.209878818236,8869.31370265049
5012.235944909837,9726.747222730331
5012.262011136994,10481.884751906422
5012.28807749971,11089.677370440002
5012.3141439979845,11228.059436373545
5012.340210631818,11359.035147306504
5012.366277401212,11344.677368745974
5012.392344306166,11175.59439479666
5012.418411346682,11112.729512473923
5012.44447852276,11069.48896462999
5012.470545834401,11228.21403832456
5012.496613281605,11749.267831581936
5012.522680864374,12244.205400969373
5012.548748582707,12750.052323344651
5012.574816436606,13171.860250110954
5012.600884426071,13621.53867135991
5012.626952551104,13868.576465136888
5012.653020811705,14052.6938296112
5012.679089207873,14149.939878282235
5012.705157739611,14253.776125484828
5012.73122640692,14621.82362780493
5012.757295209798,15133.296963506318
5012.7833641482475,15775.24388128703
5012.80943322227,16250.876436477705
5012.835502431864,16701.280323335734
5012.861571777033,17058.184130825262
5012.887641257775,17137.930787967467
5012.9137108740915,17262.78058857312
5012.939780625984,17276.685838350906
5012.965850513452,17087.409921909482
5012.991920536498,16899.018641596005
5013.017990695121,16617.74985087349
5013.044060989323,16212.396635758021
5013.070131419104,15786.299432303713
5013.096201984464,15248.894132870206
5013.122272685405,14708.59749928327
5013.148343521927,13985.744439875405
5013.17441449403,13499.338492703975
5013.200485601717,12869.926022784492
5013.226556844987,12096.186151075035
5013.2526282238405,11689.686365801945
5013.278699738279,11319.613218093542
5013.304771388303,10975.17832415676
5013.330843173913,11056.07948622429
5013.35691509511,11200.922926318546
5013.382987151894,11336.402826620179
5013.409059344267,11623.877196631196
5013.435131672228,11888.84557633899
5013.46120413578,11817.174087118105
5013.487276734921,11507.477338920118
5013.513349469653,11100.905466398139
5013.539422339977,10518.651802657503
5013.565495345894,9844.924357311134
5013.5915684874035,9130.595302431366
5013.617641764507,8611.089378384375
5013.643715177206,8276.05694942864
5013.6697887254995,8123.092516771993
5013.695862409389,8203.256685399117
5013.721936228875,8631.76505381121
5013.748010183958,9402.0719099728
5013.77408427464,10253.501550554269
5013.800158500921,11176.294924282336
5013.826232862801,12064.852576009702
5013.852307360281,12700.963492066305
5013.8783819933615,13099.06258077036
5013.904456762045,13167.94717208708
5013.930531666329,13055.030747844705
5013.956606706218,12842.716279406046
5013.982681881709,12423.234041452082
5014.008757192805,11746.585971359058
5014.034832639507,11087.841687456214
5014.060908221814,10444.265347730434
5014.086983939728,9584.152498716536
5014.113059793249,8735.249738785518
5014.139135782378,7936.568475993217
5014.165211907116,7309.885279200671
5014.1912881674625,6795.127627372029
5014.21736456342,6658.986801357467
