wave,flux
5000.025812696027,20840.35821343045
5000.051815424163,19987.284363834653
5000.0778182875265,19383.335505173975
5000.103821286119,18720.840646082193
5000.12982441994,17602.404816365
5000.155827688991,16498.875357139048
5000.181831093272,15649.756239613771
5000.207834632784,14722.665156022005
5000.2338383075285,13860.963152795432
5000.259842117506,13266.548580211054
5000.285846062716,12733.271119378749
5000.311850143161,12446.770373859825
5000.33785435884,12521.181979549936
5000.363858709754,12879.73010658362
5000.389863195905,13481.906502507312
5000.415867817292,14309.548067237503
5000.441872573917,15341.709162780622
5000.4678774657805,16259.30065245197
5000.493882492882,17049.347471799836
5000.519887655224,17572.437582187642
5000.545892952806,17864.400370398456
5000.571898385629,17941.310206034977
5000.597903953694,17710.50850233902
5000.623909657001,17457.467266092677
5000.649915495552,17137.80770247946
5000.675921469346,16524.425760266673
5000.701927578384,16299.55603588436
5000.727933822669,15775.197127785663
5000.7539402021985,15696.93739868411
5000.779946716975,15738.233782203373
5000.805953366999,16092.790057053528
5000.831960152272,16346.263171230232
5000.857967072792,16693.80520837948
5000.883974128563,17029.554655896423
5000.9099813195835,17204.73590439839
5000.935988645855,17455.186106118374
5000.961996107378,17666.209801468285
5000.988003704153,17906.010801706205
5001.014011436181,18412.905392894638
5001.040019303464,18828.70447891803
5001.066027306,19380.995946270068
5001.092035443791,19988.873197589015
5001.118043716839,20394.67103574378
5001.1440521251425,20726.21309584242
5001.170060668704,20550.205494066562
5001.196069347523,20655.23059558987
5001.222078161601,20545.733428074513
5001.248087110937,20304.81559696869
5001.274096195534,20182.45024929399
5001.300105415392,20021.006257522044
5001.326114770512,19749.123851118755
5001.352124260892,19556.296398151844
5001.3781338865365,19244.361480211523
5001.4041436474445,18847.869384653128
5001.430153543616,18595.480995623733
5001.456163575053,18113.907978861364
5001.482173741756,17740.21935493018
5001.508184043724,17374.374908574267
5001.534194480961,17120.31045466299
5001.560205053464,17023.513160747898
5001.586215761236,16539.440478725457
5001.612226604278,16119.275815806432
5001.638237582589,15454.884169383009
5001.664248696171,14580.329786654424
5001.690259945024,13589.412184416275
5001.716271329149,12481.073769831182
5001.742282848547,11440.767678122771
5001.768294503218,10535.420490032744
5001.794306293164,9767.086927087772
5001.820318218383,9299.376753949628
5001.84633027888,9197.223930504213
5001.872342474651,9453.591004302969
5001.8983548056995,10161.60887018366
5001.924367272026,11363.630133656323
5001.9503798736305,12897.262234088294
5001.976392610514,14681.088412516925
5002.002405482678,16202.304931102719
5002.028418490122,17714.877302944922
5002.054431632847,18932.941939341916
5002.080444910854,19904.29685583633
5002.106458324142,20726.715105925006
5002.1324718727155,21415.29543947227
5002.158485556572,21792.257983458076
5002.184499375713,21933.82103413738
5002.210513330139,22009.12207417166
5002.236527419852,22026.98905403855
5002.262541644852,21972.597261878243
5002.288556005138,21869.445688337823
5002.314570500714,21818.070791700513
5002.340585131577,21550.10106619155
5002.36659989773,21321.722678627837
5002.392614799174,20914.375155337486
5002.418629835909,20729.223715372947
5002.444645007936,20193.291427624095
5002.4706603152545,19793.36908232924
5002.496675757866,19276.120247736788
5002.522691335772,18659.53288217717
5002.548707048972,18015.13238354865
5002.574722897468,17294.67875431659
5002.600738881259,16568.032052992978
5002.626755000347,15816.808809762862
5002.652771254732,14997.672627025548
5002.678787644415,14228.376938031652
5002.704804169397,13632.234604971867
5002.730820829678,13214.877488850694
5002.75683762526,12860.852034498555
5002.782854556142,12918.506976776
5002.8088716223265,13479.164923304015
5002.834888823812,14125.414415594634
5002.860906160601,15412.603629132713
5002.886923632695,16846.95370486127
5002.912941240092,18172.153617238204
5002.938958982793,19486.60345657753
5002.9649768608015,20501.327911033335
5002.990994874116,21206.726471540027
5003.017013022737,21677.831949550713
5003.043031306666,22009.840807886783
5003.069049725905,22246.588690917724
5003.095068280452,22314.71436623112
5003.121086970309,22362.31190835829
5003.147105795477,22411.435390329356
5003.173124755956,22256.641443157343
5003.199143851748,22282.06154571178
5003.225163082852,22284.187689734892
5003.251182449269,22472.272384605298
5003.277201951001,22183.401219191735
5003.3032215880485,22232.704534623663
5003.32924136041,22114.559180422675
5003.35526126809,22042.07521263373
5003.381281311085,21930.710831420678
5003.407301489398,21809.487249848546
5003.433321803031,21712.258015498268
5003.459342251982,21421.49223182792
5003.4853628362525,21048.614407901056
5003.511383555844,20824.440197440934
5003.537404410757,20559.713460983654
5003.563425400991,20104.54556899034
5003.589446526548,19659.878671833663
5003.615467787429,19259.046722687774
5003.641489183634,18698.086758998696
5003.667510715163,18079.525206968385
5003.693532382018,17697.624922389037
5003.719554184199,17336.783926490614
5003.745576121707,16900.61829653307
5003.771598194542,17090.098697403657
5003.797620402706,17352.701718334203
5003.823642746199,17625.531625832966
5003.849665225021,17815.154035125113
5003.875687839174,17909.25324175485
5003.901710588658,17806.235371847954
5003.927733473473,17609.25328699816
5003.953756493622,17378.126429367527
5003.979779649103,17157.316588610658
5004.005802939919,16913.25431457289
5004.031826366068,16605.53600887334
5004.057849927553,16560.89882416904
5004.083873624375,16874.084420600993
5004.109897456533,17371.753730708802
5004.135921424028,18052.97164695609
5004.161945526862,18808.15368843028
5004.187969765035,19277.799960128796
5004.213994138547,19549.775308256987
5004.240018647399,19775.89179422914
5004.266043291592,19854.95345782999
5004.292068071127,20155.050296536527
5004.318092986004,20130.363690435603
5004.344118036223,20275.881646262744
5004.370143221788,20462.317988749448
5004.396168542696,20668.097127328227
5004.422193998949,21033.404299441892
5004.448219590549,21387.75240971464
5004.474245317495,21662.411003152643
5004.500271179789,21939.45015941338
5004.52629717743,22218.76451057475
5004.5523233104195,22355.857919878676
5004.578349578759,22450.937555366905
5004.604375982449,22339.40372222081
5004.630402521489,22303.080227004535
5004.656429195881,22084.959429664577
5004.682456005625,22017.595359536455
5004.708482950721,21972.737462972993
5004.734510031172,21801.23096136426
5004.760537246977,21617.59930127425
5004.7865645981365,21148.88013604058
5004.812592084652,20786.805057086935
5004.838619706525,20295.500205907647
5004.8646474637535,19673.210645431274
5004.890675356341,19095.897189951287
5004.916703384286,18531.09115809452
5004.942731547591,18021.932468378778
5004.968759846256,17432.361574171304
5004.994788280281,16740.8996212567
5005.020816849668,16189.548683115325
5005.046845554417,15556.238434509973
5005.072874394528,14908.962345648986
5005.098903370003,14258.885124050084
5005.124932480842,13768.27378098584
5005.150961727047,13781.912467360382
5005.176991108617,13807.50733499437
5005.203020625552,14403.938181116187
5005.229050277856,15206.841534192583
5005.255080065526,16178.599314728579
5005.281109988566,17168.220584976327
5005.3071400469735,18038.552081482983
5005.333170240751,18610.729187501664
5005.3592005699,18848.494640078596
5005.38523103442,18707.93781917856
5005.411261634312,18266.296233970505
5005.4372923695755,17596.88355351183
5005.463323240213,16787.16035152541
5005.489354246225,15875.599998652158
5005.515385387611,14709.828455573355
5005.541416664373,13675.321436093425
5005.567448076511,12651.128000150366
5005.593479624025,11704.157648032171
5005.619511306918,10582.401978245847
5005.645543125189,9999.335080940611
5005.671575078838,9183.68098919297
5005.697607167867,8950.986016773122
5005.723639392277,8954.281488434899
5005.749671752068,9290.49019815347
5005.77570424724,9815.359268021237
5005.8017368777955,10550.228274665511
5005.8277696437335,11095.241969833387
5005.853802545055,11421.704027835813
5005.879835581762,11590.950408410881
5005.905868753854,11552.1057180537
5005.931902061331,11135.292390408724
5005.957935504196,10504.436658257648
5005.983969082448,9894.70387532771
5006.010002796088,8986.959178126524
5006.036036645117,8193.419234558654
5006.062070629536,7729.757593136443
5006.088104749344,7465.701543803922
5006.114139004544,7683.213929293417
5006.140173395135,8409.29904583285
5006.166207921118,9329.065317186636
5006.192242582495,10773.363106890467
5006.218277379266,12325.733302244547
5006.244312311431,14003.755439535707
5006.270347378991,15745.131648728706
5006.296382581946,17278.795688824117
5006.322417920299,18661.833981554213
5006.348453394048,19644.041199819778
5006.374489003196,20381.19310396721
5006.400524747743,20957.09271960204
5006.426560627688,21479.197847258285
5006.452596643034,21678.45821980227
5006.47863279378,21672.595444647734
5006.504669079928,21825.361195972233
5006.530705501478,21611.858341102103
5006.556742058431,21616.057688118333
5006.582778750788,21544.8972434653
5006.608815578549,21663.885409945393
5006.634852541715,21533.059983167623
5006.660889640287,21498.788346506542
5006.686926874265,21566.726302647876
5006.71296424365,21368.389675180548
5006.739001748444,21487.88351814829
5006.765039388645,21348.631332222445
5006.791077164256,21199.77821184049
5006.817115075277,20823.540139351022
5006.843153121708,20545.160240796584
5006.869191303552,19985.039328185245
5006.895229620806,19396.420991469917
5006.921268073474,18671.36438041333
5006.947306661555,17772.669677155238
5006.97334538505,16911.521539131194
5006.999384243961,15899.66961925443
5007.025423238286,14730.247714771089
5007.051462368028,13560.563474223862
5007.077501633187,12414.203255650422
5007.103541033764,11112.501364021622
5007.129580569759,10112.985304884245
5007.155620241173,9226.95756653783
5007.181660048007,8534.168713668641
5007.207699990262,8204.103969324264
5007.233740067937,8337.878796704783
5007.259780281035,8843.564018878838
5007.285820629555,9839.73646454755
5007.311861113499,11152.534324818147
5007.337901732866,12616.851739272803
5007.363942487658,14132.103429778736
5007.389983377876,15820.746133107396
5007.41602440352,17409.474219313055
5007.442065564591,18683.10434971151
5007.468106861089,19623.768426678296
5007.494148293015,20204.09968588325
5007.520189860371,20500.50866069246
5007.546231563156,20658.13291459469
5007.572273401372,20697.76189589564
5007.598315375018,20548.444902781117
5007.624357484096,20315.012387677056
5007.650399728607,20207.652377128088
5007.676442108551,20077.19023833397
5007.702484623929,19892.796607229877
5007.728527274741,20034.648246978235
5007.754570060989,20357.837546224255
5007.780612982673,20510.46386935354
5007.806656039793,21186.54792203226
5007.832699232351,21620.517818357475
5007.858742560347,22235.37875519752
5007.884786023782,22446.409058734298
5007.910829622656,22649.351341480888
5007.936873356971,22803.884007649547
5007.962917226726,23200.397160665383
5007.988961231923,23053.91327528278
5008.015005372563,22950.310121527833
5008.041049648646,23209.919258636062
5008.067094060171,23245.718130444133
5008.0931386071425,23187.894864283757
5008.119183289558,23149.813106885616
5008.14522810742,23115.238559200476
5008.171273060728,23293.428101680096
5008.197318149483,23520.84677316666
5008.223363373687,23553.8974574492
5008.249408733339,23394.55334958643
5008.27545422844,23442.730984427028
5008.301499858992,23582.470995707892
5008.327545624995,23549.067800097266
5008.353591526448,23334.02118380296
5008.379637563355,23254.327360314503
5008.405683735714,23045.10268473917
5008.431730043527,22954.712760526545
5008.457776486794,22837.24811060458
5008.483823065515,22808.04214741069
5008.509869779693,22387.77894084619
5008.535916629327,22223.52455849091
5008.561963614418,22095.953662451077
5008.588010734968,21862.90924349345
5008.614057990975,21902.072956352888
5008.640105382442,21940.495783893904
5008.666152909369,21854.69349334937
5008.692200571756,22015.777781184657
5008.718248369605,22394.397740726046
5008.744296302916,22759.081122945372
5008.77034437169,22984.38954544201
5008.796392575927,23094.33089343589
5008.822440915628,23258.79971252043
5008.848489390794,23238.455270639082
5008.874538001426,23256.124423113535
5008.900586747524,23493.133017072265
5008.926635629089,23446.071580182703
5008.952684646122,23480.938651452772
5008.978733798623,23417.984540862013
5009.004783086593,23433.3705476145
5009.030832510033,23312.456410167957
5009.056882068944,23297.054720716293
5009.082931763326,23282.536058063164
5009.108981593179,23188.14798163983
5009.135031558506,23217.74705439516
5009.161081659306,23350.18315456482
5009.187131895579,23342.09900826058
5009.213182267327,23275.022120007874
5009.239232774552,23170.080114713404
5009.265283417251,22964.390112548692
5009.291334195428,22799.54193966646
5009.317385109083,22701.37227890821
5009.343436158216,22618.167657607843
5009.369487342828,22392.924403860347
5009.395538662919,22012.680565786482
5009.421590118491,21808.058347171183
5009.447641709544,21421.372758592828
5009.473693436078,21041.571912811785
5009.499745298095,20799.3139936996
5009.525797295596,20491.439341914844
5009.55184942858,20101.629070175288
5009.577901697049,19909.649709743757
5009.603954101003,19778.599374104324
5009.630006640443,19679.15757523403
5009.65605931537,19726.008489897213
5009.682112125784,19944.922954270667
5009.708165071686,20068.70496187511
5009.7342181530785,20406.10785708769
5009.760271369959,20619.066559834326
5009.78632472233,20622.448678830973
5009.812378210192,20448.015924313488
5009.838431833546,20200.918095547364
5009.864485592391,19739.45877308933
5009.890539486731,19247.34333943388
5009.916593516564,18606.56510177056
5009.942647681891,17722.21040387373
5009.968701982713,16920.962244976618
5009.994756419032,16175.55749827769
5010.020810990847,15491.103928134999
5010.046865698159,14944.87026472586
5010.072920540969,14558.5296354676
5010.098975519279,14369.191743636344
5010.125030633087,14364.667800040204
5010.151085882395,14403.50324198536
5010.177141267204,14536.683695678299
5010.2031967875155,14713.710034055539
5010.229252443328,15138.814492441481
5010.255308234644,15967.840625945035
5010.281364161464,16982.74250195229
5010.307420223788,18036.32974112182
5010.333476421617,19076.33555017285
5010.359532754951,20241.853085513525
5010.3855892237925,21204.408213437157
5010.4116458281405,21880.38508045577
5010.437702567997,22358.396691808328
5010.463759443362,22813.4778651175
5010.489816454236,22962.87158146977
5010.51587360062,23072.718377794652
5010.541930882514,23123.74019891852
5010.56798829992,22961.666657738606
5010.5940458528385,22729.396990398105
5010.62010354127,22584.42961681848
5010.646161365214,22347.090644001535
5010.672219324672,21893.44095711259
5010.698277419646,21344.931880931224
5010.724335650135,20669.9245227404
5010.7503940161405,20144.58916284211
5010.7764525176635,19488.009890384026
5010.802511154703,18939.331074061574
5010.828569927262,18145.851420359995
5010.85462883534,17407.398532103503
5010.880687878937,17267.79673626172
5010.906747058056,16736.52739356915
5010.932806372695,16967.629488292638
5010.958865822856,17324.037368688365
5010.98492540854,17874.573597697476
5011.0109851297475,18830.12678580096
5011.0370449864795,19815.9056023939
5011.063104978735,20815.582357709805
5011.089165106517,21654.977368944477
5011.115225369825,22262.547122382937
5011.14128576866,22561.29530438515
5011.167346303022,22903.4737181328
5011.193406972913,23129.20168327556
5011.219467778333,23142.565466799664
5011.2455287192815,23187.21111625034
5011.271589795761,23333.820602034655
5011.297651007772,23291.043260193073
5011.323712355315,23229.539807141446
5011.34977383839,23255.836480568607
5011.375835456999,23070.71517322783
5011.401897211142,23040.896775895417
5011.427959100819,23178.747126199505
5011.454021126031,22849.726744596235
5011.4800832867795,22433.465139743977
5011.506145583065,22358.93629253334
5011.532208014888,21795.902574195345
5011.558270582248,21372.893795398082
5011.584333285148,20894.399577458065
5011.610396123588,20478.422034093277
5011.636459097567,19968.220435050203
5011.662522207088,19246.152683152406
5011.68858545215,18606.784022004613
5011.714648832754,17662.119703818058
5011.740712348902,16916.99169445007
5011.766776000594,16317.320576037908
5011.79283978783,15455.155001072344
5011.818903710611,14472.619154753414
5011.844967768939,13634.099532377433
5011.871031962813,12752.439115421817
5011.897096292234,11681.407587654816
5011.923160757203,10597.140684111913
5011.949225357721,9372.536626800358
5011.975290093788,8289.773007346208
5012.001354965406,7479.7769225818
5012.027419972574,6808.979433873032
5012.053485115294,6591.561734123171
5012.079550393566,6830.151253503954
5012.105615807392,7308.366406799982
5012.13168135677,8098.885625848913
5012.157747041703,9097.018224639245
5012.183812862192,10296.014812265363
5012.209878818236,11538.248302641694
5012.235944909837,12543.345125795151
5012.262011136994,13561.586498933048
5012.28807749971,14256.273728301348
5012.3141439979845,14682.61540441032
5012.340210631818,14710.113062704599
5012.366277401212,14707.48982294423
5012.392344306166,14557.793644475596
5012.418411346682,14364.612364062545
5012.44447852276,14314.234193974655
5012.470545834401,14566.234241336953
5012.496613281605,14938.438185752315
5012.522680864374,15677.828060063306
5012.548748582707,16464.491245067584
5012.574816436606,16960.59750040556
5012.600884426071,17448.142059401325
5012.626952551104,17880.429024417794
5012.653020811705,18031.221271264883
5012.679089207873,18146.89438078541
5012.705157739611,18546.64694821092
5012.73122640692,18939.58700079588
5012.757295209798,19507.298771763388
5012.7833641482475,20167.089570873886
5012.80943322227,20919.655889973725
5012.835502431864,21579.548860801155
5012.861571777033,22099.675751846476
5012.887641257775,22287.852301888248
5012.9137108740915,22283.518376114396
5012.939780625984,22383.55279483776
5012.965850513452,22163.19980633488
5012.991920536498,21796.283790511447
5013.017990695121,21387.472276939177
5013.044060989323,20997.032127003968
5013.070131419104,20463.2274115868
5013.096201984464,19652.61329605171
5013.122272685405,18991.074862230245
5013.148343521927,18193.833692928933
5013.17441449403,17374.04856862087
5013.200485601717,16571.48106969827
5013.226556844987,15836.6125615955
5013.2526282238405,15103.190474917903
5013.278699738279,14639.032470743969
5013.304771388303,14323.436458542888
5013.330843173913,14280.008331613646
5013.35691509511,14363.122295056644
5013.382987151894,14665.413604151841
5013.409059344267,15150.382685893364
5013.435131672228,15107.96709967535
5013.46120413578,15144.994635435869
5013.487276734921,14944.20833289403
5013.513349469653,14268.493807617264
5013.539422339977,13589.33252936006
5013.565495345894,12682.325278381088
5013.5915684874035,11779.575561922353
5013.617641764507,11218.282317503275
5013.643715177206,10684.246929015144
5013.6697887254995,10423.592522362092
5013.695862409389,10626.181711799514
5013.721936228875,11224.180036096248
5013.748010183958,12082.887118781568
5013.77408427464,13124.825745750968
5013.800158500921,14376.744201874593
5013.826232862801,15518.387989823157
5013.852307360281,16380.89050005591
5013.8783819933615,16854.45208036694
5013.904456762045,16958.44737967298
5013.930531666329,16890.848530486626
5013.956606706218,16440.589662566905
5013.982681881709,16017.867008473964
5014.008757192805,15380.152231560844
5014.034832639507,14648.89149642092
5014.060908221814,13534.941469713931
5014.086983939728,12422.091014746944
5014.113059793249,11517.304996675732
5014.139135782378,10342.057987702789
5014.165211907116,9446.85840884695
5014.1912881674625,8827.691305884668
5014.21736456342,8524.376826731574
