wave,flux
5000.025812696027,17891.261405172754
5000.051815424163,17279.757242237825
5000.0778182875265,16443.027640443273
5000.103821286119,15600.260637390877
5000.12982441994,14785.204710523003
5000.155827688991,13984.33939490539
5000.181831093272,13092.164344739713
5000.207834632784,12220.822116761801
5000.2338383075285,11688.594110852575
5000.259842117506,11152.199375713431
5000.285846062716,10826.2141533798
5000.311850143161,10718.877076793317
5000.33785435884,10823.531392364723
5000.363858709754,11370.388530237668
5000.389863195905,12074.88845537603
5000.415867817292,13046.351081059762
5000.441872573917,13925.219051574748
5000.4678774657805,14598.638671948762
5000.493882492882,15132.862915852276
5000.519887655224,15506.295695724302
5000.545892952806,15727.104408667952
5000.571898385629,15649.492061653855
5000.597903953694,15257.963151594124
5000.623909657001,14935.11178159752
5000.649915495552,14630.331428959018
5000.675921469346,14198.303981334853
5000.701927578384,13745.484706554182
5000.727933822669,13496.244259107512
5000.7539402021985,13570.342815525984
5000.779946716975,13825.82291077637
5000.805953366999,14021.77080601621
5000.831960152272,14346.190491283707
5000.857967072792,14716.45705308206
5000.883974128563,14967.49599046513
5000.9099813195835,15010.795244689585
5000.935988645855,15125.938695615512
5000.961996107378,15451.638826331015
5000.988003704153,15795.956709750797
5001.014011436181,16159.702478427083
5001.040019303464,16579.252227781846
5001.066027306,17121.648725728966
5001.092035443791,17422.500966681757
5001.118043716839,17849.42052304339
5001.1440521251425,18157.586299070215
5001.170060668704,18066.276269408856
5001.196069347523,18058.221281739203
5001.222078161601,17822.690313171883
5001.248087110937,17469.503196210262
5001.274096195534,17295.347056877632
5001.300105415392,17147.105388492215
5001.326114770512,16891.907707814407
5001.352124260892,16760.569396135983
5001.3781338865365,16601.526951063355
5001.4041436474445,16163.498982660014
5001.430153543616,15861.153968619305
5001.456163575053,15685.108944034951
5001.482173741756,15229.869803124662
5001.508184043724,15092.878117099493
5001.534194480961,14794.188524238929
5001.560205053464,14509.076824522754
5001.586215761236,14120.138576107925
5001.612226604278,13588.269941739387
5001.638237582589,12852.55393483589
5001.664248696171,12188.635975114676
5001.690259945024,11321.898611778457
5001.716271329149,10310.886346670768
5001.742282848547,9429.396162738594
5001.768294503218,8729.641641623133
5001.794306293164,8172.801528215629
5001.820318218383,7814.991075111552
5001.84633027888,7908.987816638175
5001.872342474651,8507.378008888876
5001.8983548056995,9406.689928864267
5001.924367272026,10541.714316908821
5001.9503798736305,11969.688096736429
5001.976392610514,13538.039874877415
5002.002405482678,14745.827951440066
5002.028418490122,16132.432009276448
5002.054431632847,17047.145361137056
5002.080444910854,17686.89801328838
5002.106458324142,18197.179795424272
5002.1324718727155,18706.407282590702
5002.158485556572,18961.568504061914
5002.184499375713,19048.707907874665
5002.210513330139,19101.67539230951
5002.236527419852,19054.679050252256
5002.262541644852,19083.508189108667
5002.288556005138,18883.522512998738
5002.314570500714,18739.783154882607
5002.340585131577,18509.601822524703
5002.36659989773,18367.718595567887
5002.392614799174,18065.528704962202
5002.418629835909,17805.314925446848
5002.444645007936,17328.861925611825
5002.4706603152545,16922.15077887573
5002.496675757866,16368.437725611313
5002.522691335772,15775.566039209834
5002.548707048972,15252.152900882968
5002.574722897468,14606.724803227433
5002.600738881259,13917.59520060477
5002.626755000347,13273.23027663601
5002.652771254732,12590.440154581735
5002.678787644415,12036.785799292851
5002.704804169397,11631.37624692086
5002.730820829678,11189.851904758882
5002.75683762526,11039.940353999602
5002.782854556142,11281.988289464167
5002.8088716223265,11896.219494520694
5002.834888823812,12971.672607401315
5002.860906160601,14085.646798650081
5002.886923632695,15270.657835006255
5002.912941240092,16455.137436464665
5002.938958982793,17415.862689151967
5002.9649768608015,18163.429875094593
5002.990994874116,18651.773485705235
5003.017013022737,19024.594179523763
5003.043031306666,19298.733154307447
5003.069049725905,19352.243938603893
5003.095068280452,19380.33723913394
5003.121086970309,19413.949629987008
5003.147105795477,19369.89232057021
5003.173124755956,19499.959137272162
5003.199143851748,19338.427293284007
5003.225163082852,19428.625078009336
5003.251182449269,19307.207114767098
5003.277201951001,19345.364821562704
5003.3032215880485,19275.241459227
5003.32924136041,19314.372498767883
5003.35526126809,19077.823913694356
5003.381281311085,18926.95433776283
5003.407301489398,18720.333877136534
5003.433321803031,18696.383722093426
5003.459342251982,18528.644625720703
5003.4853628362525,18076.11258760112
5003.511383555844,17831.64896989697
5003.537404410757,17689.05053870506
5003.563425400991,17336.299977956594
5003.589446526548,16918.474752390197
5003.615467787429,16436.028507468847
5003.641489183634,15864.584496460338
5003.667510715163,15346.30960384193
5003.693532382018,15051.260544484441
5003.719554184199,14869.237721978385
5003.745576121707,14734.826544632879
5003.771598194542,15071.650821175073
5003.797620402706,15170.010755543812
5003.823642746199,15422.113064113215
5003.849665225021,15630.888318819507
5003.875687839174,15618.611456576788
5003.901710588658,15402.230314044775
5003.927733473473,15124.06956680099
5003.953756493622,14832.265280680036
5003.979779649103,14522.313783798556
5004.005802939919,14367.269346220577
5004.031826366068,14442.31838575695
5004.057849927553,14623.675367168848
5004.083873624375,14917.405081168541
5004.109897456533,15473.564254451398
5004.135921424028,15968.425396738196
5004.161945526862,16362.289848723229
5004.187969765035,16829.093268681572
5004.213994138547,17061.602062254813
5004.240018647399,17215.86401440732
5004.266043291592,17241.770941327693
5004.292068071127,17304.872838548803
5004.318092986004,17530.90978089228
5004.344118036223,17743.464571271525
5004.370143221788,17860.96655016716
5004.396168542696,18112.199208922295
5004.422193998949,18450.072638839913
5004.448219590549,18744.15169251708
5004.474245317495,18922.937798984836
5004.500271179789,18987.48042360178
5004.52629717743,19210.646368593953
5004.5523233104195,19308.23359466832
5004.578349578759,19408.90044029051
5004.604375982449,19449.04093428902
5004.630402521489,19266.923482905822
5004.656429195881,19298.213502511382
5004.682456005625,19277.002454642374
5004.708482950721,19034.378644746812
5004.734510031172,18792.20733257203
5004.760537246977,18512.260706138863
5004.7865645981365,18149.175236000046
5004.812592084652,17802.356798848858
5004.838619706525,17483.35050829548
5004.8646474637535,16941.493760230947
5004.890675356341,16382.076578253625
5004.916703384286,15887.372196029535
5004.942731547591,15381.700905921442
5004.968759846256,14922.083432273605
5004.994788280281,14278.185422226039
5005.020816849668,13698.901186031508
5005.046845554417,13038.79105165341
5005.072874394528,12534.096239938672
5005.098903370003,12124.26479951965
5005.124932480842,11889.464756154235
5005.150961727047,11716.353015212264
5005.176991108617,12112.864547952911
5005.203020625552,12921.820693889305
5005.229050277856,13823.71815301465
5005.255080065526,14795.163216651525
5005.281109988566,15524.499902218766
5005.3071400469735,16147.05264523109
5005.333170240751,16408.93915133855
5005.3592005699,16415.697969368844
5005.38523103442,16241.017466545774
5005.411261634312,15668.855124861246
5005.4372923695755,14885.14069748457
5005.463323240213,14109.009614696874
5005.489354246225,13303.601120906173
5005.515385387611,12301.877829139532
5005.541416664373,11387.384926896793
5005.567448076511,10534.708990599147
5005.593479624025,9490.650550559636
5005.619511306918,8817.993526234515
5005.645543125189,8133.676422174247
5005.671575078838,7740.807476224205
5005.697607167867,7609.885886097254
5005.723639392277,7840.771791413096
5005.749671752068,8285.5408166604
5005.77570424724,8867.008673476195
5005.8017368777955,9561.843665038072
5005.8277696437335,10107.372447480127
5005.853802545055,10338.325302282412
5005.879835581762,10232.160800949074
5005.905868753854,9937.129678558313
5005.931902061331,9453.748657398648
5005.957935504196,8686.768524883364
5005.983969082448,7971.831240333402
5006.010002796088,7353.659595794943
5006.036036645117,6718.185528057244
5006.062070629536,6478.2019024014935
5006.088104749344,6208.529776424958
5006.114139004544,6725.237814307399
5006.140173395135,7617.591432639547
5006.166207921118,8626.44358931366
5006.192242582495,10044.882584814992
5006.218277379266,11475.612164929882
5006.244312311431,13107.28542346152
5006.270347378991,14352.867040045521
5006.296382581946,15577.75596374497
5006.322417920299,16743.133837644124
5006.348453394048,17461.6399163828
5006.374489003196,18066.83125967648
5006.400524747743,18437.93354026974
5006.426560627688,18501.409970437726
5006.452596643034,18600.161914001685
5006.47863279378,18698.767087792097
5006.504669079928,18795.631156366602
5006.530705501478,18743.494164391657
5006.556742058431,18739.521229484555
5006.582778750788,18663.61645259735
5006.608815578549,18549.189247723683
5006.634852541715,18850.344634385434
5006.660889640287,18642.194338566256
5006.686926874265,18524.08945725955
5006.71296424365,18515.755109777278
5006.739001748444,18488.795146220335
5006.765039388645,18534.87731269202
5006.791077164256,18422.701415194082
5006.817115075277,18051.283710761585
5006.843153121708,17654.611439992095
5006.869191303552,17071.203104262502
5006.895229620806,16497.248925747725
5006.921268073474,15909.864562415321
5006.947306661555,15050.68451605597
5006.97334538505,14136.71087691454
5006.999384243961,13248.309506409409
5007.025423238286,12210.657156768902
5007.051462368028,11119.69147431278
5007.077501633187,10148.271860088118
5007.103541033764,9202.167210831041
5007.129580569759,8228.976666437055
5007.155620241173,7628.73975541148
5007.181660048007,6995.380071918907
5007.207699990262,6906.190732834061
5007.233740067937,7298.020269298555
5007.259780281035,8044.960565205986
5007.285820629555,9098.599505881031
5007.311861113499,10351.893710717066
5007.337901732866,11763.85635893864
5007.363942487658,13154.153102673165
5007.389983377876,14435.429425198601
5007.41602440352,15585.692486280284
5007.442065564591,16604.713932916282
5007.468106861089,17250.56311756731
5007.494148293015,17627.45982814335
5007.520189860371,17909.835680134143
5007.546231563156,17958.645298500895
5007.572273401372,17852.924771283357
5007.598315375018,17672.745084132934
5007.624357484096,17596.218624504938
5007.650399728607,17558.105484208543
5007.676442108551,17253.869730043825
5007.702484623929,17253.843588880845
5007.728527274741,17413.77950177976
5007.754570060989,17757.083968267154
5007.780612982673,17979.534278315845
5007.806656039793,18467.93844350877
5007.832699232351,19066.004744747035
5007.858742560347,19457.484857074665
5007.884786023782,19780.076915893416
5007.910829622656,19824.044525366022
5007.936873356971,19941.081243338525
5007.962917226726,20049.5160615632
5007.988961231923,20146.674216915413
5008.015005372563,20106.236723534024
5008.041049648646,19983.395467722952
5008.067094060171,20075.5251275429
5008.0931386071425,20164.619093073026
5008.119183289558,20099.82748178322
5008.14522810742,20201.364668563267
5008.171273060728,20410.782643557828
5008.197318149483,20379.15333223127
5008.223363373687,20268.266057603574
5008.249408733339,20394.98069094811
5008.27545422844,20434.354888031874
5008.301499858992,20265.14107935182
5008.327545624995,20316.328940959804
5008.353591526448,20257.43405566299
5008.379637563355,20057.2163638735
5008.405683735714,19869.56075765944
5008.431730043527,19813.474449569174
5008.457776486794,19737.417612762332
5008.483823065515,19426.51538797492
5008.509869779693,19237.27648282232
5008.535916629327,19287.70807059217
5008.561963614418,19113.932392549934
5008.588010734968,19091.85289931554
5008.614057990975,19040.2520661637
5008.640105382442,18915.953279644207
5008.666152909369,19101.118433061045
5008.692200571756,19289.281024529475
5008.718248369605,19442.01474613756
5008.744296302916,19713.259773229107
5008.77034437169,19942.44254308254
5008.796392575927,20140.688076181756
5008.822440915628,20273.528381696226
5008.848489390794,20189.83522558617
5008.874538001426,20148.209200648515
5008.900586747524,20267.96139768584
5008.926635629089,20181.554828146527
5008.952684646122,20346.08815159179
5008.978733798623,20327.54561880563
5009.004783086593,20164.42503282017
5009.030832510033,20344.81171182769
5009.056882068944,20188.165880533732
5009.082931763326,20184.94469305065
5009.108981593179,20161.042372394855
5009.135031558506,20169.324563666894
5009.161081659306,20072.163645516404
5009.187131895579,20108.26913924643
5009.213182267327,20148.331951899476
5009.239232774552,20033.198926205194
5009.265283417251,19954.6899300527
5009.291334195428,19949.59064783709
5009.317385109083,19824.333725644283
5009.343436158216,19513.67774522404
5009.369487342828,19235.83635993851
5009.395538662919,18971.000924644366
5009.421590118491,18760.554368267145
5009.447641709544,18418.604390472963
5009.473693436078,18181.193904007992
5009.499745298095,17989.225441564344
5009.525797295596,17541.4925262046
5009.55184942858,17416.495499683726
5009.577901697049,17179.000732765406
5009.603954101003,17016.848303436233
5009.630006640443,17090.77196610463
5009.65605931537,17131.871733755965
5009.682112125784,17223.478508864904
5009.708165071686,17504.106136145096
5009.7342181530785,17761.088082810027
5009.760271369959,17903.668836310295
5009.78632472233,17853.131358518775
5009.812378210192,17643.306087766385
5009.838431833546,17394.52532918668
5009.864485592391,16834.78891444345
5009.890539486731,16168.60817332378
5009.916593516564,15621.295826784113
5009.942647681891,14990.398075078574
5009.968701982713,14319.191957012463
5009.994756419032,13693.513681068926
5010.020810990847,13136.982332689991
5010.046865698159,12675.093545830734
5010.072920540969,12580.205443144165
5010.098975519279,12489.562666337833
5010.125030633087,12414.162029482817
5010.151085882395,12432.139988853363
5010.177141267204,12609.287201334966
5010.2031967875155,12893.045193473346
5010.229252443328,13527.65119474553
5010.255308234644,14187.686877035549
5010.281364161464,15125.98469343307
5010.307420223788,16280.238843331783
5010.333476421617,17219.838966362095
5010.359532754951,18052.44844563298
5010.3855892237925,18676.838782294195
5010.4116458281405,19317.615577542834
5010.437702567997,19669.456876662614
5010.463759443362,19916.01258867366
5010.489816454236,19965.65156360693
5010.51587360062,19947.493315765627
5010.541930882514,19964.82899016847
5010.56798829992,19825.48056893555
5010.5940458528385,19641.468337959122
5010.62010354127,19432.56111579289
5010.646161365214,19062.201790965515
5010.672219324672,18670.148273323975
5010.698277419646,18281.30024288613
5010.724335650135,17718.98830337692
5010.7503940161405,17094.957660512846
5010.7764525176635,16428.43311431056
5010.802511154703,15927.957594469928
5010.828569927262,15301.787656818236
5010.85462883534,15036.496216962112
5010.880687878937,14534.520352862288
5010.906747058056,14582.42719187848
5010.932806372695,14630.960419064662
5010.958865822856,15291.961201129203
5010.98492540854,15959.462299003968
5011.0109851297475,16795.070243305825
5011.0370449864795,17627.902737418437
5011.063104978735,18395.506501569063
5011.089165106517,19180.07170670679
5011.115225369825,19516.822939332753
5011.14128576866,19671.301970563836
5011.167346303022,19877.39796273802
5011.193406972913,20049.502477915263
5011.219467778333,20003.809547247387
5011.2455287192815,20064.408970764034
5011.271589795761,20149.7456564645
5011.297651007772,20125.142355392138
5011.323712355315,20133.585154394554
5011.34977383839,20071.492260710824
5011.375835456999,19981.655898337547
5011.401897211142,19863.573584909398
5011.427959100819,19772.89469329888
5011.454021126031,19562.199821516446
5011.4800832867795,19445.2623556158
5011.506145583065,19209.318944164053
5011.532208014888,18754.46854024584
5011.558270582248,18455.729779354107
5011.584333285148,18059.8118974372
5011.610396123588,17543.2586620558
5011.636459097567,16888.211918729376
5011.662522207088,16388.9533094024
5011.68858545215,15650.625345095958
5011.714648832754,15064.604422448234
5011.740712348902,14297.377850076524
5011.766776000594,13707.990706522274
5011.79283978783,13094.494258845383
5011.818903710611,12348.142573350238
5011.844967768939,11474.151231221615
5011.871031962813,10513.866868626514
5011.897096292234,9484.584410348396
5011.923160757203,8529.119883236108
5011.949225357721,7592.3737193964025
5011.975290093788,6709.413817588543
5012.001354965406,6048.524159094354
5012.027419972574,5676.480908222774
5012.053485115294,5670.1473745710255
5012.079550393566,6064.727931157716
5012.105615807392,6646.827437940903
5012.13168135677,7423.738739560921
5012.157747041703,8495.768511181504
5012.183812862192,9542.674699067838
5012.209878818236,10599.559170050548
5012.235944909837,11525.832459580986
5012.262011136994,12283.774787209264
5012.28807749971,12704.870579260594
5012.3141439979845,12801.242732819526
5012.340210631818,12894.579470215303
5012.366277401212,12724.45373409731
5012.392344306166,12489.395923005055
5012.418411346682,12251.304039082463
5012.44447852276,12512.411626825999
5012.470545834401,12770.386183648852
5012.496613281605,13386.828036740459
5012.522680864374,14039.524674400338
5012.548748582707,14677.540610516817
5012.574816436606,15053.954447066279
5012.600884426071,15318.708618725319
5012.626952551104,15640.420769469056
5012.653020811705,15664.398150273146
5012.679089207873,15749.560463183276
5012.705157739611,16138.019856391204
5012.73122640692,16816.618442314943
5012.757295209798,17280.516440532258
5012.7833641482475,17895.766443899272
5012.80943322227,18577.646897832547
5012.835502431864,19039.985564102863
5012.861571777033,19305.772579081688
5012.887641257775,19363.90125032439
5012.9137108740915,19436.58965244334
5012.939780625984,19300.640779175083
5012.965850513452,19072.97184318544
5012.991920536498,18837.670389609444
5013.017990695121,18385.97147088064
5013.044060989323,17861.262616610733
5013.070131419104,17253.55399829452
5013.096201984464,16726.16895810794
5013.122272685405,16189.500873468054
5013.148343521927,15392.572717599862
5013.17441449403,14643.310093680042
5013.200485601717,13951.81152846188
5013.226556844987,13368.707823802606
5013.2526282238405,12745.874250434388
5013.278699738279,12441.322072085299
5013.304771388303,12387.08415644009
5013.330843173913,12464.1342653872
5013.35691509511,12794.158631019334
5013.382987151894,13030.587079910765
5013.409059344267,13305.683357918204
5013.435131672228,13257.38306298284
5013.46120413578,13142.57815511367
5013.487276734921,12676.042343726602
5013.513349469653,12063.439940129594
5013.539422339977,11313.22689505017
5013.565495345894,10552.319997582437
5013.5915684874035,10002.765223732418
5013.617641764507,9345.704377156024
5013.643715177206,9009.41275596415
5013.6697887254995,9005.214579139189
5013.695862409389,9378.851136034866
5013.721936228875,10090.274272353656
5013.748010183958,11001.448114738188
5013.77408427464,12056.091787401449
5013.800158500921,13006.52353275962
5013.826232862801,13973.782538648626
5013.852307360281,14523.693726786152
5013.8783819933615,14765.930327268165
5013.904456762045,14866.06741070287
5013.930531666329,14601.880281177506
5013.956606706218,14069.046693549059
5013.982681881709,13688.39965287554
5014.008757192805,13003.494976919876
5014.034832639507,12069.604444564216
5014.060908221814,11192.278711212542
5014.086983939728,10183.881912924353
5014.113059793249,9266.232499928234
5014.139135782378,8321.665749250205
5014.165211907116,7687.758139381657
5014.1912881674625,7268.243135991618
