wave,flux
4450.003811362098,14130.835147509219
4450.026953690486,14057.365163884393
4450.050096139227,13818.769804098276
4450.073238708321,13422.190769912087
4450.096381397769,12876.450632032627
4450.119524207569,12279.433411447115
4450.142667137726,11594.639166187379
4450.165810188237,10744.88562846183
4450.188953359103,9785.875312366676
4450.212096650326,8996.30370875861
4450.2352400619075,8064.828444293237
4450.258383593846,7073.390674218588
4450.281527246142,6264.785839602107
4450.304671018797,5517.507408495744
4450.327814911813,4752.372896971082
4450.350958925188,4183.980979335063
4450.374103058924,3780.7523193965367
4450.3972473130225,3609.3429459228487
4450.420391687483,3367.515588300871
4450.443536182305,3356.70218524059
4450.466680797492,3456.795946878788
4450.489825533042,3510.175669400057
4450.512970388957,3831.400849889231
4450.536115365237,4417.085065753979
4450.559260461882,4957.021984714723
4450.582405678895,5629.619606063562
4450.605551016274,6269.589535230484
4450.628696474022,6914.0236198401735
4450.651842052138,7412.262292838531
4450.674987750623,7674.094583698197
4450.698133569476,7756.174689474628
4450.721279508702,7883.544729325525
4450.744425568297,7950.3499080630045
4450.767571748264,8107.400686389762
4450.790718048604,8470.004302145111
4450.813864469315,8849.97595652833
4450.837011010401,9315.672637629032
4450.86015767186,9894.363022614907
4450.883304453694,10364.357624614506
4450.906451355903,10941.024560822902
4450.929598378489,11867.199611240312
4450.95274552145,12741.056626452146
4450.975892784789,13493.435727935426
4450.999040168505,14463.845456887411
4451.022187672601,15367.663468779932
4451.045335297074,15859.003224732125
4451.068483041929,16174.293204148646
4451.091630907163,16388.565285289176
4451.114778892777,16472.72524896487
4451.137926998774,16456.350900566453
4451.161075225153,16571.637187304663
4451.184223571914,16233.877824317662
4451.207372039059,16144.434854492552
4451.230520626587,15795.24236532804
4451.253669334501,15302.363586794558
4451.2768181628,14767.400924509302
4451.299967111485,14208.248018174185
4451.323116180556,13583.011096968949
4451.346265370014,12963.78876253491
4451.369414679861,12200.660359745429
4451.392564110095,11270.031157676553
4451.415713660719,10277.918728955621
4451.438863331732,9500.553890223504
4451.462013123136,8673.792849133304
4451.48516303493,7901.642698483624
4451.508313067117,7286.30866283273
4451.531463219695,6779.819202138905
4451.554613492666,6566.509129677912
4451.577763886031,6806.350726715843
4451.60091439979,7484.514628620385
4451.624065033943,8178.820725238664
4451.647215788492,9065.449164228981
4451.670366663436,10281.717551420483
4451.693517658777,11434.20899149136
4451.716668774516,12380.689502821153
4451.739820010652,13026.688598862518
4451.762971367186,13354.866154172712
4451.78612284412,13509.572888510524
4451.8092744414525,13554.581264320308
4451.832426159187,13345.373217286773
4451.855577997321,12863.026703767355
4451.878729955857,12342.992497243917
4451.901882034796,11846.661910902549
4451.925034234137,11314.008876625641
4451.948186553881,11063.148453981908
4451.97133899403,10842.902744828216
4451.994491554583,10733.447306044514
4452.017644235542,10942.500679303426
4452.040797036907,11524.5527150482
4452.063949958678,12335.857188864564
4452.087103000857,12976.733401167776
4452.1102561634425,13778.152256124065
4452.133409446437,14605.182773052446
4452.156562849841,15166.19300848708
4452.179716373655,15694.137265406514
4452.202870017878,16030.26195392192
4452.226023782513,16300.723855995964
4452.24917766756,16560.106727406277
4452.272331673018,16486.259417182904
4452.29548579889,16334.797094554751
4452.318640045174,16335.412000984612
4452.341794411874,15991.200306931118
4452.364948898987,15812.859188776863
4452.388103506516,15609.471306675154
4452.4112582344615,15150.874909454362
4452.434413082823,14594.44944027407
4452.457568051602,14154.230997975605
4452.480723140799,13680.110469522173
4452.503878350413,12834.346220770365
4452.527033680448,12127.071668661461
4452.550189130902,11564.95759501584
4452.5733447017765,11121.82894808096
4452.596500393071,10649.989475545612
4452.619656204789,10290.225279802897
4452.642812136928,10107.875829275268
4452.66596818949,9829.527623514392
4452.689124362475,9799.840549705501
4452.7122806558855,9912.987329638525
4452.735437069719,10075.292974732458
4452.7585936039795,10318.444380970182
4452.781750258665,10670.190218212543
4452.804907033777,11138.873066746428
4452.828063929317,11443.781922324242
4452.851220945285,11596.454624952094
4452.87437808168,11687.579245369163
4452.897535338506,11562.181625109242
4452.92069271576,11232.239478706344
4452.943850213445,11019.703410591033
4452.967007831562,10854.589898371227
4452.99016557011,10654.935263862482
4453.01332342909,10550.224095789648
4453.036481408502,10583.860594799955
4453.059639508349,10812.513079935816
4453.08279772863,11006.977311962946
4453.105956069345,11241.601765055124
4453.129114530496,11132.679762390135
4453.152273112083,11008.763284224937
4453.175431814107,10680.434115265216
4453.198590636567,10351.181027147566
4453.221749579466,10044.86111154693
4453.244908642802,9518.632227526148
4453.268067826579,9406.574806843917
4453.291227130795,9380.43537526463
4453.314386555451,9397.257824855897
4453.337546100549,9905.565868087668
4453.360705766087,10545.926257250023
4453.3838655520685,11404.12117432808
4453.407025458493,12308.374460153178
4453.430185485361,13062.704856308688
4453.453345632673,13706.558220110555
4453.476505900429,13961.459560280264
4453.4996662886315,14031.20858334684
4453.52282679728,13925.033252723633
4453.545987426375,13650.8546205942
4453.569148175917,13438.761116824942
4453.592309045907,13299.048540508138
4453.615470036346,12940.161901559997
4453.638631147233,12453.117424059568
4453.661792378571,12276.75926499421
4453.684953730359,12094.085599891354
4453.708115202598,12053.088871800945
4453.731276795288,12535.87813776854
4453.754438508431,13019.585668428845
4453.777600342027,13430.814423808626
4453.800762296077,14116.027918033398
4453.82392437058,14816.06996383787
4453.847086565538,15204.407103944855
4453.870248880952,15548.215574548014
4453.8934113168225,15782.628118292438
4453.916573873149,15939.231671630458
4453.939736549933,16121.018605604515
4453.962899347174,15984.824652884034
4453.986062264875,15950.904582181387
4454.009225303034,15936.712274424695
4454.032388461654,15549.807443961103
4454.055551740734,15274.205819801722
4454.078715140275,14826.839859659507
4454.101878660277,14211.937347485506
4454.125042300742,13605.290600383476
4454.14820606167,12809.336813819711
4454.171369943061,11998.92331093479
4454.194533944917,11039.395873108138
4454.2176980672375,10108.262274550429
4454.240862310024,9192.696250871197
4454.264026673275,8137.445522960678
4454.287191156994,7309.474645443359
4454.31035576118,6659.978688662209
4454.333520485834,6024.729277450721
4454.356685330957,5625.373936318568
4454.379850296548,5422.857768468923
4454.40301538261,5623.511643774797
4454.426180589142,5744.578855480551
4454.449345916145,6177.588270744524
4454.4725113636205,6574.4237459301
4454.495676931568,7006.564533266074
4454.5188426199875,7215.1416218033455
4454.542008428882,7029.403280155274
4454.565174358249,6711.850704378782
4454.588340408092,6241.6019356278575
4454.611506578411,5569.3839495806105
4454.634672869205,4924.328136945373
4454.657839280476,4440.057511123292
4454.681005812225,3874.693613478241
4454.704172464451,3493.049982596742
4454.727339237156,3246.640537481636
4454.750506130341,3151.4112628830258
4454.773673144005,3241.029612157012
4454.79684027815,3480.1596457856763
4454.820007532776,3773.585630601477
4454.843174907884,4328.204383117843
4454.866342403473,4865.546221362216
4454.889510019546,5322.836717907971
4454.912677756102,5704.4804803453935
4454.935845613144,6141.337302789395
4454.959013590669,6495.551381126428
4454.982181688681,6716.349976684237
4455.005349907178,6941.517489455676
4455.028518246162,7235.910404584157
4455.051686705633,7528.426996214911
4455.074855285593,7949.415771993695
4455.098023986041,8449.897994290159
4455.121192806979,8881.75545563936
4455.144361748406,9242.356005669903
4455.167530810323,9191.008729738593
4455.190699992732,8959.522734815884
4455.213869295633,8794.942791033633
4455.237038719026,8538.70804898618
4455.260208262912,8323.711245527176
4455.283377927292,8181.434368737526
4455.306547712166,8204.623873830333
4455.329717617535,8678.028570441895
4455.352887643399,9416.280318365134
4455.37605778976,10391.103358517972
4455.399228056617,11265.433420925732
4455.422398443972,12136.124297838327
4455.445568951825,12939.413769594441
4455.468739580177,13309.242863787707
4455.491910329028,13611.247557369226
4455.515081198378,13384.790058516399
4455.538252188229,12953.681659627142
4455.561423298582,12661.661274417513
4455.584594529436,12041.588318132515
4455.607765880793,11301.619839333032
4455.630937352652,10505.658270885484
4455.654108945016,9711.70105585618
4455.677280657883,8991.707158608018
4455.700452491255,8353.337517538277
4455.723624445134,7656.724961335834
4455.746796519518,6958.765287104424
4455.7699687144095,6259.387809143767
4455.793141029808,5651.706160148204
4455.816313465714,5414.324330421196
4455.83948602213,4947.619333332117
4455.862658699055,4955.059140196751
4455.885831496489,5375.555135257573
4455.909004414434,5982.869229399475
4455.932177452891,6793.990852355207
4455.955350611858,8022.828272627863
4455.978523891339,9203.747801013034
4456.001697291333,10311.985198005665
4456.024870811841,11200.307943483245
4456.048044452862,11816.486942252555
4456.071218214399,12355.99609386621
4456.094392096451,12766.25608840632
4456.117566099019,12683.801192621335
4456.140740222105,12239.586943211996
4456.163914465707,11969.66572426264
4456.187088829828,11587.498737290023
4456.210263314468,10962.320851562634
4456.233437919626,10435.634531677293
4456.256612645306,9634.715530507876
4456.279787491505,8964.684510470626
4456.302962458226,8345.553161326134
4456.326137545469,7825.302696197101
4456.349312753233,7553.484340920585
4456.372488081522,7460.302653102039
4456.395663530333,7666.129742176134
4456.41883909967,8005.434994940036
4456.442014789531,8246.490446472562
4456.465190599917,8558.973086416383
4456.488366530831,8763.889800774345
4456.5115425822705,8774.679880566835
4456.5347187542375,8704.338784672693
4456.557895046733,8558.172214181053
4456.581071459757,8435.040418489332
4456.604247993311,8412.342131945767
4456.627424647395,8572.701323433912
4456.650601422009,9140.474328070432
4456.673778317154,9953.213411471135
4456.696955332832,10803.926817861779
4456.720132469041,11698.115821410445
4456.7433097257845,12662.232437643808
4456.766487103061,13278.48074775841
4456.789664600872,13703.006681400375
4456.8128422192185,13840.432145046305
4456.8360199581,13864.851022670966
4456.859197817518,13786.602913204995
4456.882375797473,13589.79116936923
4456.905553897966,13309.812056825644
4456.928732118997,13007.541036220908
4456.951910460566,12720.883754795417
4456.975088922674,12389.236766326989
4456.998267505323,12147.484711433952
4457.021446208513,11953.937663760938
4457.044625032244,12050.515599952154
4457.067803976516,12295.743130677076
4457.090983041332,12419.394639101673
4457.1141622266905,12675.012232493897
4457.1373415325925,13058.60226823251
4457.160520959039,13168.758427895034
4457.183700506031,12884.099597684872
4457.206880173568,12479.32742764134
4457.230059961651,12036.428437684215
4457.2532398702815,11396.934949612512
4457.27641989946,10640.140440251225
4457.299600049186,9886.42465021726
4457.322780319461,9053.860848866761
4457.345960710286,8221.733685149908
4457.36914122166,7502.4680756385205
4457.392321853586,6916.781548295456
4457.415502606062,6473.809512107534
4457.43868347909,6172.483500760382
4457.461864472672,6250.936971341942
4457.485045586805,6681.310479375065
4457.508226821494,7263.488992935992
4457.5314081767365,8137.871955704672
4457.554589652534,8978.078158213519
4457.577771248887,9864.433178318259
4457.600952965797,10920.400400797424
4457.624134803263,11799.488615677836
4457.647316761288,12708.551553747731
4457.67049883987,13366.698952101151
4457.693681039011,13699.661154326132
4457.716863358712,13797.555527948498
4457.7400457989725,13779.533034400109
4457.763228359793,13699.500062136396
4457.7864110411765,13466.41442447465
4457.809593843121,13342.470388511956
4457.832776765628,13053.713980228975
4457.855959808699,12642.922800838605
4457.879142972333,12161.531342579588
4457.902326256532,11718.994050346304
4457.925509661296,11154.26115529689
4457.948693186626,10448.81462875273
4457.971876832522,9640.82188859751
4457.995060598985,8965.891271697295
4458.018244486016,8323.050341784156
4458.041428493615,7694.469283803699
4458.0646126217825,7358.13411196754
4458.08779687052,7011.619010448621
4458.110981239827,6829.669759827688
4458.134165729705,6880.616279365477
4458.157350340155,7127.879170868646
4458.180535071177,7443.07976737389
4458.203719922771,7766.865977851009
4458.226904894938,7984.451718896591
4458.2500899876795,8259.869511159424
4458.273275200995,8594.086863840997
4458.296460534886,9139.093964171181
4458.3196459893525,9683.66274514989
4458.342831564396,10150.93352731908
4458.366017260016,10607.904116924268
4458.389203076214,10691.439981100184
4458.4123890129895,10739.379882729312
4458.435575070344,10686.155028422432
4458.458761248279,10353.88448801898
4458.481947546794,10307.896302307028
4458.505133965889,10310.913772634742
4458.528320505566,10268.169223967412
4458.551507165825,10661.887319547992
4458.574693946666,11404.951116507655
4458.597880848091,12209.911814344165
4458.6210678701,13061.582808774889
4458.644255012693,13759.40251319527
4458.6674422758715,14094.642194896664
4458.690629659636,14313.545140470933
4458.713817163986,14324.265987725827
4458.737004788924,14157.075137083546
4458.76019253445,13659.882326825982
4458.783380400563,13040.024866337462
4458.8065683872655,12334.0680206167
4458.829756494558,11597.606310918063
4458.85294472244,10549.916293243565
4458.876133070914,9502.307428207898
4458.899321539979,8643.550527677256
4458.922510129635,7699.875151039294
4458.945698839884,6675.162916069444
4458.968887670727,5687.12432168541
4458.992076622164,4883.521494797431
4459.015265694195,4198.420693323571
4459.0384548868215,3693.1303876575466
4459.061644200044,3349.4755831242
4459.084833633862,3213.243921649868
4459.108023188278,3339.8618766727636
4459.131212863292,3614.4044336322804
4459.154402658904,3925.563494235742
4459.177592575114,4388.227955553491
4459.200782611925,5102.41225873946
4459.223972769336,5711.437195781108
4459.247163047347,6337.731465341385
4459.27035344596,6891.715343077775
4459.293543965176,7392.08952348804
4459.316734604993,8007.609302772821
4459.339925365414,8638.311116725174
4459.363116246439,9075.18590644996
4459.386307248069,9860.649261997434
4459.409498370304,10924.770794551207
4459.432689613145,11768.683170271604
4459.455880976592,12489.655200160365
4459.479072460647,13366.22496600206
4459.502264065309,13748.250604112507
4459.52545579058,13865.239735782847
4459.5486476364595,13958.756791449445
4459.571839602949,13748.935046450533
4459.595031690048,13305.86443213659
4459.618223897759,12832.129955906701
4459.641416226081,12501.245700610758
4459.664608675014,12072.64314044165
4459.687801244561,11641.911477181457
4459.710993934721,11378.382060026686
4459.734186745496,11213.610180905958
4459.757379676885,11292.435485150647
4459.780572728889,11587.483635426044
4459.803765901509,12203.354801820056
4459.8269591947455,12820.044305984948
4459.850152608599,13541.02219991533
4459.87334614307,13890.333484033465
4459.89653979816,14126.138143714863
4459.91973357387,14318.331905177472
4459.942927470198,14046.846736518111
4459.966121487147,13623.234175515729
4459.989315624717,13058.056242068726
4460.0125098829085,12415.470039888274
4460.035704261722,11629.564653957343
4460.058898761158,10800.095858461307
4460.082093381218,9943.629169655389
4460.105288121902,9000.527316015587
4460.12848298321,8049.704307545761
4460.151677965145,7293.91553495567
4460.1748730677045,6637.057263615783
4460.198068290891,6203.401490925174
4460.221263634704,6139.059111223486
4460.244459099145,6261.905474802509
4460.267654684215,6718.150704797639
4460.290850389914,7469.569886416864
4460.314046216243,8334.756362452423
4460.337242163202,9360.874555622211
4460.360438230791,10491.028314257568
4460.383634419013,11447.51098444937
4460.406830727867,12474.562461139241
4460.430027157354,13400.973729403951
4460.453223707474,14232.934423598452
4460.476420378228,15045.509399441351
4460.499617169617,15440.363165756196
4460.522814081641,15599.32826352733
4460.5460111143,15910.14431867321
4460.569208267598,15966.197328118795
4460.592405541532,15842.27245241792
4460.615602936104,15806.669261585292
4460.638800451314,15757.977923636685
4460.661998087163,15582.446019425393
4460.685195843652,15426.667496626826
4460.708393720782,15213.840719341959
4460.731591718552,14959.193595160894
4460.754789836965,14751.424291834994
4460.777988076019,14597.867994122182
4460.801186435716,14254.362860132967
4460.824384916057,13912.122931204638
4460.847583517042,13714.133216795877
4460.870782238671,13405.968642591875
4460.893981080947,12891.414071217627
4460.917180043868,12223.525894897271
4460.940379127435,11350.241189624201
4460.963578331651,10558.203016913989
4460.986777656513,9742.932123876626
4461.009977102025,8861.535861887507
4461.033176668186,7862.069920481443
4461.056376354995,6900.624636163358
4461.079576162457,6248.719291377917
4461.102776090568,5705.025702328353
4461.125976139332,5387.952296298606
4461.149176308748,5263.273210352723
4461.172376598816,5138.415408896175
4461.195577009538,5068.246919218604
4461.218777540915,5219.867979400163
4461.241978192946,5527.909742594723
4461.265178965633,5814.087703237886
4461.2883798589755,5923.349538538025
4461.311580872974,6032.352419864682
4461.3347820076315,6176.17795922646
4461.357983262946,5964.431457256482
4461.381184638919,5705.636918441772
4461.404386135551,5339.144198130642
4461.4275877528435,4985.0993642085205
4461.4507894907965,4837.707853317747
4461.4739913494095,4680.841357748608
4461.497193328685,4483.194749582234
4461.520395428623,4376.026024033791
4461.543597649224,4149.6254388721145
4461.566799990488,3907.7225385661086
4461.590002452416,3719.585522945642
4461.61320503501,3522.1403824403205
4461.636407738269,3465.5301420615065
4461.659610562193,3639.7010262290746
4461.682813506784,4052.3718824986186
4461.706016572044,4474.193009347526
4461.729219757971,5194.971819895651
4461.752423064566,5913.896734318542
4461.775626491831,6343.6713718591545
4461.798830039766,6936.481211102499
4461.82203370837,7397.292927520267
4461.845237497647,7517.785760648046
4461.868441407595,7425.161960648895
4461.891645438215,7117.957534123403
4461.914849589509,6820.556160889527
4461.938053861475,6364.726038876405
4461.961258254117,6118.964679659514
4461.984462767433,5899.046882526982
4462.007667401424,6168.833050469253
4462.030872156092,6531.620893745813
4462.0540770314365,7088.30131573472
4462.077282027459,7949.045172774811
4462.100487144158,8785.756223546465
4462.123692381537,9273.300737216401
4462.146897739594,9796.44940325744
4462.170103218332,10113.001459749155
4462.19330881775,9990.487224255248
4462.21651453785,10206.127462358481
4462.239720378631,10151.017176223111
4462.262926340095,10108.12664414523
4462.286132422241,9801.213744439452
4462.309338625071,9374.128962977624
4462.3325449485865,9078.384991262039
4462.355751392785,8533.907707869714
4462.3789579576705,8095.286318884274
4462.402164643242,8080.387343285816
4462.4253714495,8070.260156857976
4462.448578376446,8284.875990654142
4462.471785424079,8766.752078338819
4462.494992592401,9724.326981553388
4462.518199881412,10782.58570871515
4462.541407291114,11751.63520983065
4462.564614821506,12613.922980534533
4462.587822472589,13187.470179672802
4462.611030244365,13560.595146921132
4462.634238136832,13831.95236012295
4462.657446149992,13714.251544256344
4462.680654283847,13422.508185676195
