wave,flux
5000.025812696027,17299.023037020786
5000.051815424163,16690.231513836792
5000.0778182875265,15990.470988832694
5000.103821286119,15178.154623666824
5000.12982441994,14368.809573585837
5000.155827688991,13437.823794743063
5000.181831093272,12528.450787865135
5000.207834632784,11919.900388196043
5000.2338383075285,11281.01199924476
5000.259842117506,10794.184914967065
5000.285846062716,10478.481368208668
5000.311850143161,10461.072800324937
5000.33785435884,10789.468079272578
5000.363858709754,11154.65118209404
5000.389863195905,11765.534220553878
5000.415867817292,12547.45481307874
5000.441872573917,13482.276175497303
5000.4678774657805,14346.127636847785
5000.493882492882,14859.447419687122
5000.519887655224,15146.884389164177
5000.545892952806,15325.666316147375
5000.571898385629,15371.627634056853
5000.597903953694,15088.53342621086
5000.623909657001,14443.885944855147
5000.649915495552,14149.722195164544
5000.675921469346,13694.80988935769
5000.701927578384,13388.414033540834
5000.727933822669,13322.540014990886
5000.7539402021985,13308.435054644246
5000.779946716975,13450.009750519286
5000.805953366999,13696.688050552011
5000.831960152272,13940.719459628695
5000.857967072792,14136.456488468839
5000.883974128563,14403.221611143274
5000.9099813195835,14781.567000654708
5000.935988645855,14985.164019253125
5000.961996107378,15048.872360462554
5000.988003704153,15313.837257864763
5001.014011436181,15758.910724968562
5001.040019303464,16250.149296248639
5001.066027306,16657.698863016027
5001.092035443791,17331.465278738397
5001.118043716839,17484.495840635
5001.1440521251425,17542.847681311083
5001.170060668704,17502.106211812395
5001.196069347523,17535.296965691905
5001.222078161601,17322.67462297308
5001.248087110937,17120.868364695358
5001.274096195534,16960.61805013719
5001.300105415392,16843.668482435256
5001.326114770512,16622.660512701284
5001.352124260892,16305.462985098064
5001.3781338865365,16073.000726981647
5001.4041436474445,15816.88617380316
5001.430153543616,15363.800818229325
5001.456163575053,14860.04587017472
5001.482173741756,14828.283023161028
5001.508184043724,14621.834288175756
5001.534194480961,14403.930160324833
5001.560205053464,14220.273819314232
5001.586215761236,13958.67930529359
5001.612226604278,13379.320843683445
5001.638237582589,12622.939581589717
5001.664248696171,11819.74175828252
5001.690259945024,10875.306762787233
5001.716271329149,9943.331862260859
5001.742282848547,9086.977620338537
5001.768294503218,8334.674865138108
5001.794306293164,7777.32168197069
5001.820318218383,7464.385352275471
5001.84633027888,7661.697933575321
5001.872342474651,8357.597798644725
5001.8983548056995,9170.520025915284
5001.924367272026,10505.561385397274
5001.9503798736305,11778.111369314094
5001.976392610514,13260.243905495487
5002.002405482678,14514.072537696658
5002.028418490122,15719.414327776858
5002.054431632847,16669.096959824736
5002.080444910854,17312.49863666246
5002.106458324142,17804.531398686286
5002.1324718727155,18302.356843678765
5002.158485556572,18538.264312315372
5002.184499375713,18658.79382731609
5002.210513330139,18749.64786150946
5002.236527419852,18623.28539020167
5002.262541644852,18570.52933771181
5002.288556005138,18425.88432242975
5002.314570500714,18272.529338660064
5002.340585131577,18116.84286760816
5002.36659989773,17653.5376354536
5002.392614799174,17522.647550619713
5002.418629835909,17377.647254326395
5002.444645007936,16887.75450970296
5002.4706603152545,16410.971679430702
5002.496675757866,15862.499206464307
5002.522691335772,15416.537245915357
5002.548707048972,14847.849159750407
5002.574722897468,14218.155988332861
5002.600738881259,13535.420960044448
5002.626755000347,12866.90288200578
5002.652771254732,12298.478134330751
5002.678787644415,11696.482932273355
5002.704804169397,11241.488275131283
5002.730820829678,10816.314557988066
5002.75683762526,10771.128181086895
5002.782854556142,10950.500528445007
5002.8088716223265,11602.302117175826
5002.834888823812,12685.947929805629
5002.860906160601,13845.099952730568
5002.886923632695,15001.79758644413
5002.912941240092,16187.996597260833
5002.938958982793,17032.713153731325
5002.9649768608015,17830.481018607734
5002.990994874116,18316.191095431914
5003.017013022737,18597.23882024618
5003.043031306666,18811.319332587416
5003.069049725905,18849.05338111409
5003.095068280452,18894.67671006463
5003.121086970309,18954.168236902045
5003.147105795477,18965.5458769238
5003.173124755956,18932.40411637578
5003.199143851748,18863.675277271428
5003.225163082852,18873.064550527622
5003.251182449269,18789.52503878569
5003.277201951001,18811.68797451063
5003.3032215880485,18832.48087752688
5003.32924136041,18900.05635794363
5003.35526126809,18630.693698059433
5003.381281311085,18515.621925835305
5003.407301489398,18359.25744217352
5003.433321803031,18266.96448975834
5003.459342251982,18101.43338375207
5003.4853628362525,17778.6458447681
5003.511383555844,17455.76891329815
5003.537404410757,17095.74468762057
5003.563425400991,16736.019245598138
5003.589446526548,16405.04594256498
5003.615467787429,16044.147130145679
5003.641489183634,15513.245385447779
5003.667510715163,14980.82295601415
5003.693532382018,14690.452730470504
5003.719554184199,14403.138322124794
5003.745576121707,14451.361040299655
5003.771598194542,14626.382752929003
5003.797620402706,14875.535339808686
5003.823642746199,15029.27358868071
5003.849665225021,15208.498026421858
5003.875687839174,15208.176602607246
5003.901710588658,14978.159577520153
5003.927733473473,14783.706977540514
5003.953756493622,14662.88857738982
5003.979779649103,14320.476557796757
5004.005802939919,13990.640807904816
5004.031826366068,14046.964312730659
5004.057849927553,14157.76064242694
5004.083873624375,14585.607934975405
5004.109897456533,15144.645336989423
5004.135921424028,15671.36865267425
5004.161945526862,16011.896733304415
5004.187969765035,16479.549000259372
5004.213994138547,16708.930104090407
5004.240018647399,16808.727588809077
5004.266043291592,16912.626860302425
5004.292068071127,17007.258198532985
5004.318092986004,17022.119958949093
5004.344118036223,17317.871084377835
5004.370143221788,17550.87638904153
5004.396168542696,17770.123071564358
5004.422193998949,18078.931076912508
5004.448219590549,18319.654721336014
5004.474245317495,18543.839057212706
5004.500271179789,18615.854147827136
5004.52629717743,18777.086538593263
5004.5523233104195,18994.3579495861
5004.578349578759,18852.12758939774
5004.604375982449,18890.466478105962
5004.630402521489,18775.766152737408
5004.656429195881,18717.99199481736
5004.682456005625,18714.169462399597
5004.708482950721,18488.436915159087
5004.734510031172,18228.516134446083
5004.760537246977,18006.01117962231
5004.7865645981365,17567.128335481983
5004.812592084652,17123.449705804604
5004.838619706525,16875.03695425183
5004.8646474637535,16451.597246511046
5004.890675356341,15891.83236189528
5004.916703384286,15448.646154539678
5004.942731547591,14975.121589653183
5004.968759846256,14431.952889464374
5004.994788280281,13873.07005455888
5005.020816849668,13339.927294201754
5005.046845554417,12815.492083487672
5005.072874394528,12152.342890745507
5005.098903370003,11698.261139794124
5005.124932480842,11384.813210421346
5005.150961727047,11525.870546482607
5005.176991108617,11924.544813359349
5005.203020625552,12645.028058753389
5005.229050277856,13570.837255824898
5005.255080065526,14507.009291449915
5005.281109988566,15332.470956255738
5005.3071400469735,15811.633835792927
5005.333170240751,15943.273756278271
5005.3592005699,15966.374747968031
5005.38523103442,15699.355685366154
5005.411261634312,15177.699263164663
5005.4372923695755,14591.189209439837
5005.463323240213,13749.324584762395
5005.489354246225,12844.515865046926
5005.515385387611,11923.122499845513
5005.541416664373,10971.361732819847
5005.567448076511,10146.292169998416
5005.593479624025,9348.773880839233
5005.619511306918,8463.456659115556
5005.645543125189,7996.373881954042
5005.671575078838,7560.192962565531
5005.697607167867,7542.009507444794
5005.723639392277,7744.918478097271
5005.749671752068,8090.706467155266
5005.77570424724,8762.94228585948
5005.8017368777955,9339.687621339624
5005.8277696437335,9705.353940843088
5005.853802545055,10024.786403611806
5005.879835581762,10020.88357542237
5005.905868753854,9718.378298472688
5005.931902061331,9155.367175938665
5005.957935504196,8352.82819014319
5005.983969082448,7745.417120048911
5006.010002796088,7055.648230007247
5006.036036645117,6519.296645911261
5006.062070629536,6311.772915683311
5006.088104749344,6319.266990945735
5006.114139004544,6685.752801522238
5006.140173395135,7529.538637137889
5006.166207921118,8574.135012519577
5006.192242582495,9876.368087239955
5006.218277379266,11380.233114323208
5006.244312311431,12774.757487866798
5006.270347378991,14102.217281090323
5006.296382581946,15269.892475059469
5006.322417920299,16393.05303420808
5006.348453394048,17137.674340328882
5006.374489003196,17637.06096092777
5006.400524747743,17944.47636837944
5006.426560627688,18120.5338557116
5006.452596643034,18385.69895524286
5006.47863279378,18386.73085926738
5006.504669079928,18286.099779598517
5006.530705501478,18382.410299700423
5006.556742058431,18365.71605862189
5006.582778750788,18389.589246160234
5006.608815578549,18279.701003960166
5006.634852541715,18293.989371363074
5006.660889640287,18145.39475951978
5006.686926874265,18191.016736900336
5006.71296424365,18106.35876207142
5006.739001748444,18073.520717936277
5006.765039388645,17855.84456903467
5006.791077164256,17786.086346191918
5006.817115075277,17583.765570038435
5006.843153121708,17190.617707045814
5006.869191303552,16656.97177552943
5006.895229620806,16183.450198535373
5006.921268073474,15515.790341784035
5006.947306661555,14761.312823783666
5006.97334538505,13978.725968140601
5006.999384243961,12861.195589578425
5007.025423238286,11836.883751720521
5007.051462368028,10854.082464857593
5007.077501633187,9734.910799531135
5007.103541033764,8712.255695792284
5007.129580569759,7924.742855213921
5007.155620241173,7307.942687514841
5007.181660048007,6885.646140629771
5007.207699990262,6832.92350895635
5007.233740067937,7265.103776932184
5007.259780281035,7840.736917626174
5007.285820629555,8894.69807796672
5007.311861113499,10254.997440203353
5007.337901732866,11641.223930127
5007.363942487658,13023.857555452907
5007.389983377876,14364.030313367248
5007.41602440352,15428.121621582508
5007.442065564591,16318.025755318791
5007.468106861089,17042.408553316804
5007.494148293015,17390.7316461293
5007.520189860371,17507.133426704368
5007.546231563156,17510.881532346502
5007.572273401372,17372.584707633494
5007.598315375018,17261.054336122317
5007.624357484096,17122.02128755814
5007.650399728607,16928.96840686376
5007.676442108551,16710.154104829217
5007.702484623929,16725.518158829014
5007.728527274741,17079.31442545098
5007.754570060989,17203.633531835192
5007.780612982673,17772.553551036013
5007.806656039793,18218.248767240795
5007.832699232351,18551.683413924377
5007.858742560347,18956.418944458434
5007.884786023782,19230.220799952345
5007.910829622656,19449.462175999426
5007.936873356971,19603.423800161072
5007.962917226726,19572.33509905364
5007.988961231923,19448.01910036446
5008.015005372563,19604.185267708956
5008.041049648646,19648.441804058064
5008.067094060171,19576.45283221111
5008.0931386071425,19706.55158336107
5008.119183289558,19871.63005360857
5008.14522810742,19913.25736822405
5008.171273060728,19700.050533476347
5008.197318149483,19874.82212408523
5008.223363373687,19883.520216957542
5008.249408733339,19895.458587762896
5008.27545422844,19898.605064937285
5008.301499858992,19793.726414171928
5008.327545624995,19745.073752469758
5008.353591526448,19663.95862074016
5008.379637563355,19795.467308036878
5008.405683735714,19534.730206249704
5008.431730043527,19407.105604872148
5008.457776486794,19296.045724350566
5008.483823065515,19013.063605824784
5008.509869779693,18884.74765809444
5008.535916629327,18759.77162165147
5008.561963614418,18555.11394610634
5008.588010734968,18450.133085695223
5008.614057990975,18436.91482145852
5008.640105382442,18500.811646686037
5008.666152909369,18658.816209111
5008.692200571756,18855.618654603684
5008.718248369605,19014.33864508692
5008.744296302916,19158.243922985457
5008.77034437169,19493.353365976996
5008.796392575927,19777.69344929719
5008.822440915628,19662.448606893257
5008.848489390794,19720.525144494506
5008.874538001426,19825.79399668875
5008.900586747524,19775.917937579372
5008.926635629089,19763.249679255005
5008.952684646122,19771.36625122958
5008.978733798623,19844.082806875413
5009.004783086593,19704.82475885101
5009.030832510033,19902.39829092197
5009.056882068944,19786.981479131176
5009.082931763326,19743.083204012553
5009.108981593179,19758.69755501878
5009.135031558506,19647.202077554735
5009.161081659306,19572.885937948737
5009.187131895579,19629.505738800777
5009.213182267327,19717.317324353808
5009.239232774552,19728.13830546672
5009.265283417251,19518.664251316277
5009.291334195428,19266.91391828269
5009.317385109083,19152.295279137885
5009.343436158216,19094.834362603586
5009.369487342828,18959.357978824606
5009.395538662919,18530.59491385344
5009.421590118491,18288.9888302037
5009.447641709544,17975.739308701282
5009.473693436078,17661.493099537838
5009.499745298095,17465.96108006786
5009.525797295596,17188.53191185761
5009.55184942858,16991.82249112572
5009.577901697049,16715.72413183772
5009.603954101003,16500.488781938195
5009.630006640443,16571.2478816757
5009.65605931537,16502.546292576404
5009.682112125784,16987.45591453754
5009.708165071686,17158.209234504124
5009.7342181530785,17349.988607068728
5009.760271369959,17527.781669500848
5009.78632472233,17499.23220698588
5009.812378210192,17298.970867322536
5009.838431833546,16916.000808047615
5009.864485592391,16482.659290759486
5009.890539486731,15952.714811409449
5009.916593516564,15312.036425120632
5009.942647681891,14594.644477338787
5009.968701982713,13775.394241822718
5009.994756419032,13182.109985300942
5010.020810990847,12771.240383179964
5010.046865698159,12351.82649947188
5010.072920540969,12249.209070411627
5010.098975519279,12078.77876511175
5010.125030633087,11908.553389495157
5010.151085882395,12158.430528586612
5010.177141267204,12257.276465709243
5010.2031967875155,12563.19223972806
5010.229252443328,13226.999167229545
5010.255308234644,14030.136869451811
5010.281364161464,14898.824819050924
5010.307420223788,15947.399487215349
5010.333476421617,16880.761039025918
5010.359532754951,17692.15339962271
5010.3855892237925,18414.27243642921
5010.4116458281405,18971.081223788417
5010.437702567997,19243.723267854206
5010.463759443362,19471.887167704663
5010.489816454236,19671.571892565433
5010.51587360062,19671.244673460013
5010.541930882514,19475.38778675299
5010.56798829992,19401.185994044292
5010.5940458528385,19296.3366399472
5010.62010354127,18968.062843257976
5010.646161365214,18550.84468242415
5010.672219324672,18073.90571924614
5010.698277419646,17749.235025361977
5010.724335650135,17226.503215039313
5010.7503940161405,16687.07297688367
5010.7764525176635,16153.457028293948
5010.802511154703,15517.131623395035
5010.828569927262,14988.176749799402
5010.85462883534,14589.778141988385
5010.880687878937,14080.936167243175
5010.906747058056,14284.485049757614
5010.932806372695,14478.77782487055
5010.958865822856,14919.692344407247
5010.98492540854,15664.222507582097
5011.0109851297475,16448.07675536366
5011.0370449864795,17294.087703296766
5011.063104978735,18144.865292374772
5011.089165106517,18695.931168518287
5011.115225369825,19106.78907249228
5011.14128576866,19397.45113211312
5011.167346303022,19450.454027284177
5011.193406972913,19516.08198522283
5011.219467778333,19625.83574298805
5011.2455287192815,19699.74425969959
5011.271589795761,19645.259148992463
5011.297651007772,19697.62020102137
5011.323712355315,19814.7492109227
5011.34977383839,19651.03087161388
5011.375835456999,19500.244999421626
5011.401897211142,19381.40986234421
5011.427959100819,19266.79903876681
5011.454021126031,19194.17974712861
5011.4800832867795,18925.347076955586
5011.506145583065,18583.92776966154
5011.532208014888,18099.738967110356
5011.558270582248,17828.41690687496
5011.584333285148,17369.618015335545
5011.610396123588,17041.757310787063
5011.636459097567,16271.159164859037
5011.662522207088,15996.227700467582
5011.68858545215,15325.785695911658
5011.714648832754,14610.895268545279
5011.740712348902,14091.970810234987
5011.766776000594,13321.025874801782
5011.79283978783,12653.557647566444
5011.818903710611,11997.002579452816
5011.844967768939,11164.172717559559
5011.871031962813,10226.418233579603
5011.897096292234,9316.49680451586
5011.923160757203,8361.708004936694
5011.949225357721,7275.2212036338615
5011.975290093788,6411.76561531682
5012.001354965406,5808.279105776482
5012.027419972574,5500.64573235847
5012.053485115294,5575.64580818759
5012.079550393566,5912.641981262019
5012.105615807392,6514.262414699279
5012.13168135677,7325.475272660683
5012.157747041703,8283.956154470503
5012.183812862192,9346.183663452832
5012.209878818236,10482.769026177368
5012.235944909837,11260.428731497219
5012.262011136994,11959.603018475427
5012.28807749971,12425.883207436826
5012.3141439979845,12645.539933172466
5012.340210631818,12597.688366902612
5012.366277401212,12222.595869765139
5012.392344306166,12123.516289286212
5012.418411346682,11982.074466172862
5012.44447852276,12160.285310406602
5012.470545834401,12655.962801165399
5012.496613281605,13238.114691295299
5012.522680864374,13735.615813465227
5012.548748582707,14258.752828315464
5012.574816436606,14753.263462242068
5012.600884426071,15002.028348999382
5012.626952551104,15234.690429375038
5012.653020811705,15302.628526245662
5012.679089207873,15478.933839492622
5012.705157739611,15898.00484299412
5012.73122640692,16354.858109477127
5012.757295209798,16989.31208779162
5012.7833641482475,17652.286298949468
5012.80943322227,18258.168752209698
5012.835502431864,18588.681037577902
5012.861571777033,18870.514479401398
5012.887641257775,18995.5417349632
5012.9137108740915,18796.0854947242
5012.939780625984,18891.373256575123
5012.965850513452,18722.431109891262
5012.991920536498,18350.541940210533
5013.017990695121,17965.49279276276
5013.044060989323,17438.20043568452
5013.070131419104,17024.64135388375
5013.096201984464,16221.471857712306
5013.122272685405,15765.649810905303
5013.148343521927,15036.259861722898
5013.17441449403,14322.892972073463
5013.200485601717,13519.714308048695
5013.226556844987,12900.41708175315
5013.2526282238405,12454.34921775535
5013.278699738279,12138.416503550448
5013.304771388303,12034.086434278468
5013.330843173913,12201.073465825179
5013.35691509511,12466.29935085289
5013.382987151894,12741.874738409902
5013.409059344267,13056.279382802824
5013.435131672228,12977.302868241335
5013.46120413578,12737.924180594708
5013.487276734921,12381.60115785899
5013.513349469653,11810.162791226465
5013.539422339977,11105.749747200694
5013.565495345894,10265.608899382907
5013.5915684874035,9598.048285042913
5013.617641764507,9065.6722276695
5013.643715177206,8777.618350850547
5013.6697887254995,8828.32353325224
5013.695862409389,9163.658511938467
5013.721936228875,9898.416022153604
5013.748010183958,10835.969364748522
5013.77408427464,11802.9558778754
5013.800158500921,12858.663980151952
5013.826232862801,13717.247488343095
5013.852307360281,14125.9847132782
5013.8783819933615,14362.742664278392
5013.904456762045,14513.39397777843
5013.930531666329,14251.967789099255
5013.956606706218,13773.984917544718
5013.982681881709,13253.181528652007
5014.008757192805,12673.877135958832
5014.034832639507,11885.522487727185
5014.060908221814,10895.397670159951
5014.086983939728,9942.574561046446
5014.113059793249,8957.617016747094
5014.139135782378,8212.702743968664
5014.165211907116,7475.653392800539
5014.1912881674625,7149.498764661351
5014.21736456342,7190.211554046128
