wave,flux
5000.025812696027,17167.631201818996
5000.051815424163,16639.38674395561
5000.0778182875265,15946.673667388528
5000.103821286119,15256.336862036189
5000.12982441994,14427.427550917204
5000.155827688991,13490.841717687324
5000.181831093272,12739.254693961151
5000.207834632784,12031.489673802474
5000.2338383075285,11287.842272412996
5000.259842117506,10819.53373309002
5000.285846062716,10492.532975348375
5000.311850143161,10383.398959625645
5000.33785435884,10495.243220118151
5000.363858709754,10778.559863684955
5000.389863195905,11358.031283241859
5000.415867817292,12080.37330324959
5000.441872573917,12917.689739483501
5000.4678774657805,13594.818910552029
5000.493882492882,14172.302337054409
5000.519887655224,14686.487671422097
5000.545892952806,14906.560800084493
5000.571898385629,14941.708801740991
5000.597903953694,14891.427672677573
5000.623909657001,14520.997957384876
5000.649915495552,14065.13223385281
5000.675921469346,13712.791122544551
5000.701927578384,13407.066953353975
5000.727933822669,13060.329683095839
5000.7539402021985,12947.6516157698
5000.779946716975,13072.521053846858
5000.805953366999,13292.597526950402
5000.831960152272,13634.949774708717
5000.857967072792,13962.38339961003
5000.883974128563,14157.222648172801
5000.9099813195835,14298.116267730124
5000.935988645855,14502.833484480347
5000.961996107378,14639.027567520658
5000.988003704153,14804.943149001418
5001.014011436181,15232.615443634646
5001.040019303464,15719.340686255086
5001.066027306,16289.188424162194
5001.092035443791,16610.98035927664
5001.118043716839,17050.11162152598
5001.1440521251425,17085.299638193534
5001.170060668704,17201.141245014118
5001.196069347523,17177.31091252313
5001.222078161601,17075.5490100344
5001.248087110937,16698.233481732954
5001.274096195534,16560.99612566272
5001.300105415392,16577.98129919871
5001.326114770512,16426.62327307838
5001.352124260892,16071.527479574472
5001.3781338865365,15796.127118310664
5001.4041436474445,15606.854808333657
5001.430153543616,15205.596816464578
5001.456163575053,14911.58353223457
5001.482173741756,14636.844036667384
5001.508184043724,14372.403294723146
5001.534194480961,14241.32590593027
5001.560205053464,13904.970239735347
5001.586215761236,13603.463033030406
5001.612226604278,13156.38305122785
5001.638237582589,12594.903076492888
5001.664248696171,11854.181463707338
5001.690259945024,11074.695400398861
5001.716271329149,10184.37957981567
5001.742282848547,9295.15292538512
5001.768294503218,8561.756026664585
5001.794306293164,7943.246986001749
5001.820318218383,7588.118172514081
5001.84633027888,7616.643985069907
5001.872342474651,7936.280758053836
5001.8983548056995,8661.664006181974
5001.924367272026,9559.811261211438
5001.9503798736305,10992.936682112364
5001.976392610514,12384.396678917949
5002.002405482678,13697.527617134716
5002.028418490122,14920.790137340677
5002.054431632847,15864.165244087637
5002.080444910854,16773.675679099095
5002.106458324142,17312.52333808058
5002.1324718727155,17596.853800113186
5002.158485556572,17921.15624425507
5002.184499375713,18240.283058627458
5002.210513330139,18343.226041726713
5002.236527419852,18231.374826966883
5002.262541644852,18157.22981375494
5002.288556005138,18119.65233437201
5002.314570500714,18014.04580863362
5002.340585131577,17938.277732707556
5002.36659989773,17632.527423240143
5002.392614799174,17203.401742354312
5002.418629835909,17186.96464871756
5002.444645007936,16719.649662906413
5002.4706603152545,16245.789522538586
5002.496675757866,15946.737289139312
5002.522691335772,15282.809479563559
5002.548707048972,14645.30870272558
5002.574722897468,14156.9516538147
5002.600738881259,13581.583173166842
5002.626755000347,12908.405968488549
5002.652771254732,12253.496521729185
5002.678787644415,11701.037737493265
5002.704804169397,11188.88353948065
5002.730820829678,10801.964340976256
5002.75683762526,10716.444500148153
5002.782854556142,10781.279698392851
5002.8088716223265,11176.19263885819
5002.834888823812,12026.52546799505
5002.860906160601,12851.605749261176
5002.886923632695,14165.950254423828
5002.912941240092,15317.163796230501
5002.938958982793,16245.586648639854
5002.9649768608015,17150.902710945025
5002.990994874116,17711.676565723206
5003.017013022737,18056.25096906927
5003.043031306666,18345.2597324755
5003.069049725905,18495.01435207252
5003.095068280452,18533.719152027323
5003.121086970309,18543.022546238986
5003.147105795477,18500.75915689723
5003.173124755956,18383.650389814382
5003.199143851748,18578.83416897332
5003.225163082852,18453.32766566806
5003.251182449269,18708.18657493612
5003.277201951001,18485.705230900778
5003.3032215880485,18505.7779239442
5003.32924136041,18165.07846508183
5003.35526126809,18227.97660631283
5003.381281311085,18241.754887275292
5003.407301489398,18122.469329761858
5003.433321803031,17849.300093590213
5003.459342251982,17684.30033911659
5003.4853628362525,17422.712156398502
5003.511383555844,17196.132502786273
5003.537404410757,16990.12803193588
5003.563425400991,16557.750654424883
5003.589446526548,16293.621752413525
5003.615467787429,15853.675435372326
5003.641489183634,15466.80762511116
5003.667510715163,14984.974227147888
5003.693532382018,14696.644561758287
5003.719554184199,14312.755395079417
5003.745576121707,14009.713852702902
5003.771598194542,14335.016393149079
5003.797620402706,14397.896922330703
5003.823642746199,14557.682484980409
5003.849665225021,14811.674406210777
5003.875687839174,14851.712340572865
5003.901710588658,14729.256226607546
5003.927733473473,14580.401355541304
5003.953756493622,14408.922238886635
5003.979779649103,14078.674957238303
5004.005802939919,13733.522781564374
5004.031826366068,13711.434562810131
5004.057849927553,13890.351976123959
5004.083873624375,14208.10128939778
5004.109897456533,14704.960274431285
5004.135921424028,15098.393506476346
5004.161945526862,15661.170527219152
5004.187969765035,15979.218575932477
5004.213994138547,16298.06392695095
5004.240018647399,16509.955412603675
5004.266043291592,16533.55813039771
5004.292068071127,16558.251766477308
5004.318092986004,16770.65217627756
5004.344118036223,16961.235479250972
5004.370143221788,17042.049925309344
5004.396168542696,17146.446604278204
5004.422193998949,17405.81085594577
5004.448219590549,17815.462285803587
5004.474245317495,18161.681537929475
5004.500271179789,18340.731318668244
5004.52629717743,18479.760299017507
5004.5523233104195,18529.38541443803
5004.578349578759,18552.524392704094
5004.604375982449,18718.404567887945
5004.630402521489,18408.856441648535
5004.656429195881,18403.17563327086
5004.682456005625,18283.164319849482
5004.708482950721,17988.430916265395
5004.734510031172,17907.710254383783
5004.760537246977,17873.278951856144
5004.7865645981365,17589.452755230122
5004.812592084652,17095.331622719117
5004.838619706525,16658.329192023317
5004.8646474637535,16167.16013553857
5004.890675356341,15830.658364742198
5004.916703384286,15405.844808139385
5004.942731547591,14873.241821275129
5004.968759846256,14529.01379877176
5004.994788280281,13933.184903886755
5005.020816849668,13415.765484345864
5005.046845554417,12778.914532722983
5005.072874394528,12047.676589874292
5005.098903370003,11631.31798334005
5005.124932480842,11421.075381747507
5005.150961727047,11265.852756813267
5005.176991108617,11439.936626693723
5005.203020625552,12108.868374230642
5005.229050277856,12848.461310705708
5005.255080065526,13865.59278945543
5005.281109988566,14727.645637876321
5005.3071400469735,15238.169774416632
5005.333170240751,15666.75151794631
5005.3592005699,15665.813302420693
5005.38523103442,15327.381410199534
5005.411261634312,15028.029292906282
5005.4372923695755,14523.246932254597
5005.463323240213,13746.971398929792
5005.489354246225,12916.381670715893
5005.515385387611,12075.74952881846
5005.541416664373,11208.692385387141
5005.567448076511,10291.184044479307
5005.593479624025,9452.95809869238
5005.619511306918,8731.449894418396
5005.645543125189,8046.607129446328
5005.671575078838,7568.903098427023
5005.697607167867,7302.804890031621
5005.723639392277,7499.320210193902
5005.749671752068,7795.733126026915
5005.77570424724,8238.751717276193
5005.8017368777955,8924.940439657008
5005.8277696437335,9419.19440700623
5005.853802545055,9627.505838962672
5005.879835581762,9671.58627481541
5005.905868753854,9531.851151036715
5005.931902061331,9101.155009422455
5005.957935504196,8496.448863719808
5005.983969082448,7918.637382408642
5006.010002796088,7197.274155247284
5006.036036645117,6549.047793618774
5006.062070629536,6218.008094242992
5006.088104749344,6187.9625885356445
5006.114139004544,6338.84845887667
5006.140173395135,6964.3397864121725
5006.166207921118,7877.337371372672
5006.192242582495,9133.269445009797
5006.218277379266,10424.983497677367
5006.244312311431,11947.05128802014
5006.270347378991,13227.710467115056
5006.296382581946,14438.0031815939
5006.322417920299,15628.390173801103
5006.348453394048,16465.40830312306
5006.374489003196,17046.90285374261
5006.400524747743,17430.392484633696
5006.426560627688,17763.62885241347
5006.452596643034,18031.01713809038
5006.47863279378,18024.110198242415
5006.504669079928,17968.852615998592
5006.530705501478,17846.45984396821
5006.556742058431,17786.211176471377
5006.582778750788,17936.32182027642
5006.608815578549,17953.398623503046
5006.634852541715,17775.19405835415
5006.660889640287,17705.527749442575
5006.686926874265,17820.837861943783
5006.71296424365,17883.454463792805
5006.739001748444,17678.468489835486
5006.765039388645,17572.461881183714
5006.791077164256,17560.751605844445
5006.817115075277,17251.429139140735
5006.843153121708,16994.655644390758
5006.869191303552,16561.230171631953
5006.895229620806,16102.390033488115
5006.921268073474,15485.493635764955
5006.947306661555,14629.845799907896
5006.97334538505,13836.792857136863
5006.999384243961,13035.597589980829
5007.025423238286,12065.859076762745
5007.051462368028,10929.090693838836
5007.077501633187,9902.640130540069
5007.103541033764,9039.823670052352
5007.129580569759,8236.808528408084
5007.155620241173,7353.101705922709
5007.181660048007,6909.192384131927
5007.207699990262,6682.582363440267
5007.233740067937,6989.369551611599
5007.259780281035,7400.487702616644
5007.285820629555,8373.330164928264
5007.311861113499,9454.798174704643
5007.337901732866,10644.875199864196
5007.363942487658,12150.167826646963
5007.389983377876,13478.61949416241
5007.41602440352,14608.828889558785
5007.442065564591,15588.723513833782
5007.468106861089,16364.204355043908
5007.494148293015,16846.22795735349
5007.520189860371,17150.56916885434
5007.546231563156,17234.919207560837
5007.572273401372,17091.837416546994
5007.598315375018,17084.536929756894
5007.624357484096,16915.612276596494
5007.650399728607,16634.692100132343
5007.676442108551,16466.831438333167
5007.702484623929,16616.080421292292
5007.728527274741,16658.86352670367
5007.754570060989,16712.08781469711
5007.780612982673,17096.58506933029
5007.806656039793,17546.458181876973
5007.832699232351,18106.659907365814
5007.858742560347,18461.10049695909
5007.884786023782,18858.084600047423
5007.910829622656,18925.092400923317
5007.936873356971,19075.38714429958
5007.962917226726,19220.688905539624
5007.988961231923,19197.414373290387
5008.015005372563,19206.671636424802
5008.041049648646,19239.348255285662
5008.067094060171,19280.44039116634
5008.0931386071425,19337.796345963412
5008.119183289558,19316.02416082208
5008.14522810742,19310.052110601027
5008.171273060728,19335.917982591996
5008.197318149483,19330.919657381986
5008.223363373687,19483.44548452229
5008.249408733339,19601.15548581744
5008.27545422844,19495.89586462215
5008.301499858992,19430.452205045225
5008.327545624995,19406.417843746905
5008.353591526448,19297.78587144671
5008.379637563355,19447.585905736556
5008.405683735714,19084.104786287215
5008.431730043527,18971.09051672594
5008.457776486794,18958.767606805453
5008.483823065515,18616.023069478586
5008.509869779693,18490.679150095824
5008.535916629327,18451.666078257615
5008.561963614418,18236.920126148227
5008.588010734968,18098.44476817046
5008.614057990975,18016.45735997609
5008.640105382442,18090.338356294338
5008.666152909369,18228.254370073126
5008.692200571756,18330.591845800955
5008.718248369605,18576.220058990988
5008.744296302916,18808.26136815655
5008.77034437169,19003.331570425562
5008.796392575927,19159.370728363923
5008.822440915628,19318.784465314257
5008.848489390794,19492.0233775058
5008.874538001426,19386.92783138186
5008.900586747524,19307.74219768347
5008.926635629089,19362.162951956976
5008.952684646122,19301.441273643406
5008.978733798623,19397.034440199346
5009.004783086593,19244.555600903415
5009.030832510033,19441.763049830246
5009.056882068944,19455.41431483986
5009.082931763326,19347.410555705465
5009.108981593179,19304.202300514728
5009.135031558506,19342.38613031586
5009.161081659306,19403.066598326335
5009.187131895579,19309.045742610317
5009.213182267327,19123.538396827666
5009.239232774552,19020.849765033498
5009.265283417251,19122.335519985718
5009.291334195428,19064.99222840068
5009.317385109083,18820.47877845663
5009.343436158216,18768.243349267803
5009.369487342828,18565.17080191355
5009.395538662919,18238.350597513363
5009.421590118491,18049.52073128122
5009.447641709544,17738.109591076074
5009.473693436078,17398.70247190354
5009.499745298095,17159.035851541765
5009.525797295596,17000.677034544853
5009.55184942858,16755.27944701145
5009.577901697049,16532.365696826662
5009.603954101003,16323.675449003778
5009.630006640443,16306.210996480515
5009.65605931537,16275.493489881286
5009.682112125784,16507.202884059563
5009.708165071686,16695.83401566985
5009.7342181530785,16909.345211807344
5009.760271369959,17026.739880910394
5009.78632472233,17062.526532125437
5009.812378210192,17019.0548244732
5009.838431833546,16710.123746497567
5009.864485592391,16240.479940491257
5009.890539486731,15808.919855738115
5009.916593516564,15260.366410251016
5009.942647681891,14562.021807317435
5009.968701982713,13910.11127898306
5009.994756419032,13312.748687623316
5010.020810990847,12766.751753693588
5010.046865698159,12311.270948567995
5010.072920540969,11974.424125731191
5010.098975519279,11873.142488489168
5010.125030633087,11918.971071884773
5010.151085882395,11935.180247919203
5010.177141267204,11968.689551623349
5010.2031967875155,12258.879393048583
5010.229252443328,12646.61050183171
5010.255308234644,13498.599499832993
5010.281364161464,14263.389170723405
5010.307420223788,15087.742747182767
5010.333476421617,16021.64303813979
5010.359532754951,17040.751157193798
5010.3855892237925,17620.687549898343
5010.4116458281405,18178.01093228255
5010.437702567997,18624.51303289255
5010.463759443362,19002.637578225473
5010.489816454236,19222.693114161066
5010.51587360062,19254.59122553064
5010.541930882514,19166.64491191886
5010.56798829992,19044.21937078048
5010.5940458528385,18817.783009275758
5010.62010354127,18581.22846555226
5010.646161365214,18375.111873138932
5010.672219324672,17947.461085717925
5010.698277419646,17556.730121647946
5010.724335650135,17220.13334019144
5010.7503940161405,16602.585029647318
5010.7764525176635,15971.649804458331
5010.802511154703,15414.828394423586
5010.828569927262,14909.604488452802
5010.85462883534,14359.482838497706
5010.880687878937,14145.770568609418
5010.906747058056,13999.854976979566
5010.932806372695,13987.030356468207
5010.958865822856,14392.64597011985
5010.98492540854,15188.0675322257
5011.0109851297475,15869.047983358452
5011.0370449864795,16693.763386167524
5011.063104978735,17598.33098383146
5011.089165106517,17995.202530288156
5011.115225369825,18477.960952466507
5011.14128576866,18817.43317414998
5011.167346303022,19073.066495946066
5011.193406972913,19164.01413050812
5011.219467778333,19268.934115936765
5011.2455287192815,19325.370764183175
5011.271589795761,19261.033806885524
5011.297651007772,19295.229677005
5011.323712355315,19340.212261090837
5011.34977383839,19247.321273139718
5011.375835456999,19121.91037482143
5011.401897211142,19033.601296370714
5011.427959100819,18897.7488931178
5011.454021126031,18782.005511877713
5011.4800832867795,18628.454843675256
5011.506145583065,18327.53686926379
5011.532208014888,17986.932709796518
5011.558270582248,17670.9025982783
5011.584333285148,17311.922030681268
5011.610396123588,16857.542037092346
5011.636459097567,16180.072516339573
5011.662522207088,15666.028977069207
5011.68858545215,15306.695791281338
5011.714648832754,14712.7081204347
5011.740712348902,14003.351916631145
5011.766776000594,13395.159860976553
5011.79283978783,12608.333747284505
5011.818903710611,11922.236295722383
5011.844967768939,11133.58848618921
5011.871031962813,10271.902646052276
5011.897096292234,9453.42201720314
5011.923160757203,8515.07417178646
5011.949225357721,7659.167843236991
5011.975290093788,6713.362609394854
5012.001354965406,5983.109116200688
5012.027419972574,5614.330388051651
5012.053485115294,5453.420290897747
5012.079550393566,5660.296974788466
5012.105615807392,6176.546849952416
5012.13168135677,6834.554280744017
5012.157747041703,7726.575252042042
5012.183812862192,8782.500795226382
5012.209878818236,9623.662214584932
5012.235944909837,10592.094742112537
5012.262011136994,11365.23123300227
5012.28807749971,11947.201099914333
5012.3141439979845,12265.861707890981
5012.340210631818,12154.089816138887
5012.366277401212,12041.590451087131
5012.392344306166,12064.562061908508
5012.418411346682,11798.91846791904
5012.44447852276,11811.26735692979
5012.470545834401,12031.564092718265
5012.496613281605,12513.033482196312
5012.522680864374,13065.612151847336
5012.548748582707,13829.53646225402
5012.574816436606,14196.714040920862
5012.600884426071,14403.274762714516
5012.626952551104,14720.71418793595
5012.653020811705,14974.159701659757
5012.679089207873,15180.12258663516
5012.705157739611,15510.523787278109
5012.73122640692,15829.27989535525
5012.757295209798,16258.263924110423
5012.7833641482475,16889.649270103648
5012.80943322227,17483.786793974756
5012.835502431864,17946.45056080131
5012.861571777033,18401.89054746339
5012.887641257775,18635.31032829206
5012.9137108740915,18467.6155543222
5012.939780625984,18349.825462660923
5012.965850513452,18330.533487693716
5012.991920536498,18060.3726308325
5013.017990695121,17767.375094027997
5013.044060989323,17496.191853879285
5013.070131419104,16984.051012230826
5013.096201984464,16176.966789749342
5013.122272685405,15712.070915371894
5013.148343521927,14898.83263421382
5013.17441449403,14197.972508784333
5013.200485601717,13716.323740965605
5013.226556844987,12916.96999251307
5013.2526282238405,12328.023127849856
5013.278699738279,11969.710064265026
5013.304771388303,11778.338295774029
5013.330843173913,11775.724324380068
5013.35691509511,12040.927063527311
5013.382987151894,12274.245959954284
5013.409059344267,12599.39386050442
5013.435131672228,12681.195492032286
5013.46120413578,12670.50774842683
5013.487276734921,12257.447711130792
5013.513349469653,11712.920599731553
5013.539422339977,11121.360225100976
5013.565495345894,10401.321678064553
5013.5915684874035,9771.060025693092
5013.617641764507,9173.959018908503
5013.643715177206,8708.504230747767
5013.6697887254995,8618.34663818934
5013.695862409389,8805.153331774762
5013.721936228875,9343.942370383435
5013.748010183958,10127.701080969011
5013.77408427464,11086.763546004624
5013.800158500921,12152.589452749797
5013.826232862801,12959.764736628886
5013.852307360281,13682.782673497006
5013.8783819933615,14169.46620559477
5013.904456762045,14178.278746366548
5013.930531666329,14010.670374561218
5013.956606706218,13597.831474469302
5013.982681881709,13206.690730258195
5014.008757192805,12735.20275554113
5014.034832639507,11851.156715220883
5014.060908221814,11015.132837814597
5014.086983939728,10114.946170792355
5014.113059793249,9227.055732496956
5014.139135782378,8377.058848960003
5014.165211907116,7720.6587199218075
5014.1912881674625,7165.712739076225
5014.21736456342,6997.396493547485
