wave,flux
4450.003811362098,16656.938610554942
4450.026953690486,16767.91391725801
4450.050096139227,16353.459536959015
4450.073238708321,15631.695265760243
4450.096381397769,15053.64974095971
4450.119524207569,14278.311222759256
4450.142667137726,13244.772725543224
4450.165810188237,12232.138495755726
4450.188953359103,11178.327933118982
4450.212096650326,10048.885450865822
4450.2352400619075,9009.983107574133
4450.258383593846,7940.662971000608
4450.281527246142,6888.720841354833
4450.304671018797,6005.607612014693
4450.327814911813,5320.974262363524
4450.350958925188,4750.388310325026
4450.374103058924,4485.324284001364
4450.3972473130225,4078.4816053495842
4450.420391687483,3860.0686994710413
4450.443536182305,3870.1130408362806
4450.466680797492,4035.4846819581167
4450.489825533042,4430.7253287954645
4450.512970388957,4838.511429839998
4450.536115365237,5542.0564292772615
4450.559260461882,6438.766437885712
4450.582405678895,7213.125215477856
4450.605551016274,7944.326638618175
4450.628696474022,8472.509952926734
4450.651842052138,8859.099834918112
4450.674987750623,9127.805273479886
4450.698133569476,9195.75730258803
4450.721279508702,9333.833491173184
4450.744425568297,9670.579756534564
4450.767571748264,9896.828209243453
4450.790718048604,10239.18763032007
4450.813864469315,10859.147359139752
4450.837011010401,11486.463904886456
4450.86015767186,12035.890776548933
4450.883304453694,12573.62473437152
4450.906451355903,13487.274133952416
4450.929598378489,14632.188368707184
4450.95274552145,15709.747318303527
4450.975892784789,16989.84129053402
4450.999040168505,17901.16060334197
4451.022187672601,18719.76532006566
4451.045335297074,19149.211280242536
4451.068483041929,19352.042491924378
4451.091630907163,19782.075616218295
4451.114778892777,19931.262604760934
4451.137926998774,19684.540134740982
4451.161075225153,19538.161575938488
4451.184223571914,19397.062921363035
4451.207372039059,19136.78906686905
4451.230520626587,18556.309866694934
4451.253669334501,18150.946745237798
4451.2768181628,17376.028390683183
4451.299967111485,16680.45483305883
4451.323116180556,16121.597948711837
4451.346265370014,15041.221312424588
4451.369414679861,13912.350932773716
4451.392564110095,12903.936908840233
4451.415713660719,11751.738190423908
4451.438863331732,10691.008380065592
4451.462013123136,9698.712213163448
4451.48516303493,8817.451360051225
4451.508313067117,8262.23647612798
4451.531463219695,7917.461935101902
4451.554613492666,7905.273554951342
4451.577763886031,8340.815941959445
4451.60091439979,9140.838499862679
4451.624065033943,10378.9271200336
4451.647215788492,11771.100614448922
4451.670366663436,13044.695714239731
4451.693517658777,14254.816896738612
4451.716668774516,15278.036290324024
4451.739820010652,15872.030906999502
4451.762971367186,16228.224038248454
4451.78612284412,16389.699329203242
4451.8092744414525,15893.802341112265
4451.832426159187,15361.115076350445
4451.855577997321,14827.591220511888
4451.878729955857,14263.939247361495
4451.901882034796,13779.993055164301
4451.925034234137,13270.846157602195
4451.948186553881,12970.087296419577
4451.97133899403,12564.582258697692
4451.994491554583,12977.535560033137
4452.017644235542,13355.75885722775
4452.040797036907,14177.486727273163
4452.063949958678,15049.823265586161
4452.087103000857,16099.091016240627
4452.1102561634425,17167.35914432681
4452.133409446437,17639.158215910305
4452.156562849841,18248.533544592072
4452.179716373655,19028.82505698311
4452.202870017878,19386.638318946065
4452.226023782513,19503.57686379987
4452.24917766756,19665.050738925253
4452.272331673018,19670.539306176193
4452.29548579889,19567.867917118074
4452.318640045174,19325.764411447064
4452.341794411874,19033.804752397693
4452.364948898987,18569.56265588216
4452.388103506516,18217.360084966876
4452.4112582344615,17853.828057057326
4452.434413082823,17132.39709361889
4452.457568051602,16466.490235863
4452.480723140799,15740.64139662897
4452.503878350413,14846.181076249284
4452.527033680448,14094.419903809543
4452.550189130902,13416.119824537589
4452.5733447017765,12821.668857839344
4452.596500393071,12402.206854782773
4452.619656204789,11952.575238871836
4452.642812136928,11667.621797217522
4452.66596818949,11685.147450286853
4452.689124362475,11739.204479594995
4452.7122806558855,11894.442464339281
4452.735437069719,12218.971633507133
4452.7585936039795,12655.804066629575
4452.781750258665,13003.038849834506
4452.804907033777,13493.007704525135
4452.828063929317,13783.298576988958
4452.851220945285,13886.285187527272
4452.87437808168,13919.94620805435
4452.897535338506,13587.428196455508
4452.92069271576,13203.846148024992
4452.943850213445,12998.842349342372
4452.967007831562,12640.397962030496
4452.99016557011,12440.616796605183
4453.01332342909,12422.613654146951
4453.036481408502,13079.881728963532
4453.059639508349,13227.498627244695
4453.08279772863,13551.934929874089
4453.105956069345,13618.939790711602
4453.129114530496,13366.567938907336
4453.152273112083,13077.768361452043
4453.175431814107,12629.472392912683
4453.198590636567,12100.183642163283
4453.221749579466,11448.921224500884
4453.244908642802,11114.952730169203
4453.268067826579,11013.556020152777
4453.291227130795,11047.437548090578
4453.314386555451,11548.770330371759
4453.337546100549,12437.666891903984
4453.360705766087,13305.235834283762
4453.3838655520685,14179.329866706006
4453.407025458493,15339.059192151877
4453.430185485361,16238.956303478915
4453.453345632673,16607.204367419326
4453.476505900429,16825.66571211605
4453.4996662886315,16802.8287252025
4453.52282679728,16667.279816823975
4453.545987426375,16202.886701203715
4453.569148175917,15712.943998395693
4453.592309045907,15403.53230256053
4453.615470036346,15063.227131132153
4453.638631147233,14692.89278866994
4453.661792378571,14294.80298045027
4453.684953730359,14271.392986390007
4453.708115202598,14661.180824587396
4453.731276795288,15041.476953344807
4453.754438508431,15707.773563686573
4453.777600342027,16591.965816447413
4453.800762296077,17268.19967926605
4453.82392437058,17988.39894626621
4453.847086565538,18445.647580998568
4453.870248880952,18756.665844266605
4453.8934113168225,19170.38312525727
4453.916573873149,19141.986414799554
4453.939736549933,19071.811402054645
4453.962899347174,19046.681625751782
4453.986062264875,18940.859428295393
4454.009225303034,18769.86426521123
4454.032388461654,18494.92035353624
4454.055551740734,18027.685576348027
4454.078715140275,17286.64744479363
4454.101878660277,16442.9308522754
4454.125042300742,15736.673166846203
4454.14820606167,14695.699697623244
4454.171369943061,13696.800317050684
4454.194533944917,12731.881699893089
4454.2176980672375,11587.355402416992
4454.240862310024,10388.30466162957
4454.264026673275,9386.783825728395
4454.287191156994,8268.573955450713
4454.31035576118,7376.767538039015
4454.333520485834,6892.758426788132
4454.356685330957,6453.5182622710345
4454.379850296548,6476.806364806716
4454.40301538261,6729.54159803509
4454.426180589142,7220.485221339182
4454.449345916145,7791.778230508829
4454.4725113636205,8322.772617457258
4454.495676931568,8541.76207186493
4454.5188426199875,8656.850144004504
4454.542008428882,8277.416463549785
4454.565174358249,7680.726674389495
4454.588340408092,7086.401932075536
4454.611506578411,6292.81493015114
4454.634672869205,5520.955724313098
4454.657839280476,4907.388165785448
4454.681005812225,4270.766708831255
4454.704172464451,3970.8807902531134
4454.727339237156,3883.9565193113663
4454.750506130341,3789.326658299288
4454.773673144005,3952.6145396101488
4454.79684027815,4339.938763317748
4454.820007532776,4835.325751687461
4454.843174907884,5411.184111018879
4454.866342403473,6016.975508040683
4454.889510019546,6684.583358171338
4454.912677756102,7200.407964084535
4454.935845613144,7518.3902870123875
4454.959013590669,7832.9826692703955
4454.982181688681,8163.153619360527
4455.005349907178,8395.61889482044
4455.028518246162,8835.363693101699
4455.051686705633,9481.658069088311
4455.074855285593,9957.446175348385
4455.098023986041,10547.268496916957
4455.121192806979,11040.303825073726
4455.144361748406,11067.36223790801
4455.167530810323,10946.40987942021
4455.190699992732,10659.532913378707
4455.213869295633,10261.756121042892
4455.237038719026,9870.032934001885
4455.260208262912,9636.768854709013
4455.283377927292,9765.23719709702
4455.306547712166,10111.09666718323
4455.329717617535,10994.518522805754
4455.352887643399,11815.739104501947
4455.37605778976,13033.278639178277
4455.399228056617,14166.49860615015
4455.422398443972,15140.833638587224
4455.445568951825,15798.041295172648
4455.468739580177,16078.596661902777
4455.491910329028,16082.765229142311
4455.515081198378,15813.355862769138
4455.538252188229,15495.992493908356
4455.561423298582,14850.556213330268
4455.584594529436,14059.779580183711
4455.607765880793,12995.7656247661
4455.630937352652,12075.621831003597
4455.654108945016,11094.874418958074
4455.677280657883,10320.476864682138
4455.700452491255,9363.796181521582
4455.723624445134,8610.867660255788
4455.746796519518,7760.851009159884
4455.7699687144095,6904.668376246884
4455.793141029808,6321.471749513744
4455.816313465714,6024.352300139332
4455.83948602213,5778.0145789335465
4455.862658699055,6171.028038226591
4455.885831496489,6737.144131129623
4455.909004414434,7750.032964662171
4455.932177452891,9044.283353072367
4455.955350611858,10317.59094400582
4455.978523891339,11640.162455960066
4456.001697291333,12946.686601024194
4456.024870811841,13886.324814393172
4456.048044452862,14708.361962887386
4456.071218214399,14950.593124974177
4456.094392096451,15157.75536514014
4456.117566099019,15047.852657483656
4456.140740222105,14616.296840610836
4456.163914465707,14057.96996236921
4456.187088829828,13304.160408808879
4456.210263314468,12520.722221931846
4456.233437919626,11898.220003783394
4456.256612645306,10928.519753731347
4456.279787491505,10036.18321875878
4456.302962458226,9503.780700465153
4456.326137545469,9062.263349255021
4456.349312753233,8992.067399705998
4456.372488081522,9145.591231322447
4456.395663530333,9315.947929339613
4456.41883909967,9744.794808577275
4456.442014789531,10234.97194124111
4456.465190599917,10401.015931440821
4456.488366530831,10566.836762949622
4456.5115425822705,10349.09266298275
4456.5347187542375,10179.597699913771
4456.557895046733,10023.457339854374
4456.581071459757,9999.68945685423
4456.604247993311,9994.288889313757
4456.627424647395,10378.412910214003
4456.650601422009,11329.768343233123
4456.673778317154,12434.142153015402
4456.696955332832,13391.902750570092
4456.720132469041,14667.35332760821
4456.7433097257845,15643.29794377264
4456.766487103061,16232.836689276162
4456.789664600872,16524.434605412727
4456.8128422192185,16540.05664449648
4456.8360199581,16626.49703768805
4456.859197817518,16368.218018068146
4456.882375797473,15859.718937904172
4456.905553897966,15437.329935301157
4456.928732118997,15111.869676513557
4456.951910460566,14716.081822894783
4456.975088922674,14480.01947344591
4456.998267505323,14377.484728564938
4457.021446208513,14270.376539352957
4457.044625032244,14412.456298332196
4457.067803976516,14755.526382100177
4457.090983041332,15176.580527883814
4457.1141622266905,15545.744118520175
4457.1373415325925,15516.643151785263
4457.160520959039,15490.073306365264
4457.183700506031,15392.859125798921
4457.206880173568,14784.451096456609
4457.230059961651,14027.344339528874
4457.2532398702815,13113.08025148557
4457.27641989946,12124.866047783467
4457.299600049186,11259.494909597564
4457.322780319461,10311.881990142307
4457.345960710286,9184.870163056106
4457.36914122166,8326.445872874738
4457.392321853586,7734.468140554837
4457.415502606062,7362.707219431028
4457.43868347909,7331.285810368846
4457.461864472672,7601.746846836211
4457.485045586805,8343.749613056129
4457.508226821494,9219.433537725437
4457.5314081767365,10188.447678896084
4457.554589652534,11292.378876270903
4457.577771248887,12508.03943051019
4457.600952965797,13821.617818343146
4457.624134803263,14790.095421409775
4457.647316761288,15544.074387245879
4457.67049883987,16177.840683428522
4457.693681039011,16469.88323211955
4457.716863358712,16759.75554649937
4457.7400457989725,16606.306263170532
4457.763228359793,16378.90369616829
4457.7864110411765,15964.66316737151
4457.809593843121,15641.585189727213
4457.832776765628,15390.505057511285
4457.855959808699,15090.799338553155
4457.879142972333,14404.696652434297
4457.902326256532,13508.02424257099
4457.925509661296,12802.763116976883
4457.948693186626,11992.537995528732
4457.971876832522,11047.7118345923
4457.995060598985,10202.238101128072
4458.018244486016,9589.607853348276
4458.041428493615,8917.98938426503
4458.0646126217825,8356.265080876941
4458.08779687052,8105.980819924988
4458.110981239827,8250.612987171024
4458.134165729705,8413.190964501711
4458.157350340155,8724.311493039862
4458.180535071177,9010.825490296915
4458.203719922771,9269.519706040397
4458.226904894938,9640.746784300292
4458.2500899876795,9998.2313619188
4458.273275200995,10617.44718283289
4458.296460534886,11337.206749599669
4458.3196459893525,12047.019627916612
4458.342831564396,12527.20169882358
4458.366017260016,12831.476590030385
4458.389203076214,12939.127117018044
4458.4123890129895,12749.581614572986
4458.435575070344,12432.484086328248
4458.458761248279,12182.808250172864
4458.481947546794,12225.984293139834
4458.505133965889,11992.372222238711
4458.528320505566,12500.838357656203
4458.551507165825,13371.640581511007
4458.574693946666,14390.131353642953
4458.597880848091,15340.153862636858
4458.6210678701,16196.18078870325
4458.644255012693,16846.785568864987
4458.6674422758715,17196.417725699404
4458.690629659636,17223.526313132912
4458.713817163986,16914.556573763857
4458.737004788924,16561.06945343372
4458.76019253445,15797.041132551374
4458.783380400563,15157.594093689158
4458.8065683872655,14318.016174836714
4458.829756494558,13121.74720555938
4458.85294472244,12115.45990252969
4458.876133070914,10906.616558209646
4458.899321539979,9743.787956697586
4458.922510129635,8574.076683269486
4458.945698839884,7261.02694263414
4458.968887670727,6304.271628984104
4458.992076622164,5294.070805656914
4459.015265694195,4623.422738555086
4459.0384548868215,4085.86375852599
4459.061644200044,3825.3375147731776
4459.084833633862,3825.6472160570493
4459.108023188278,4109.592632364484
4459.131212863292,4400.974970283959
4459.154402658904,4927.192671337705
4459.177592575114,5695.933600247042
4459.200782611925,6553.8118056940075
4459.223972769336,7267.501261205685
4459.247163047347,7943.087915092424
4459.27035344596,8597.27907613866
4459.293543965176,9313.580941005976
4459.316734604993,9947.291324892158
4459.339925365414,10573.241399399922
4459.363116246439,11523.915041708797
4459.386307248069,12502.490265970513
4459.409498370304,13627.225986786216
4459.432689613145,14761.608795730297
4459.455880976592,15687.826433851074
4459.479072460647,16157.141315222187
4459.502264065309,16619.215202814143
4459.52545579058,16675.18295760291
4459.5486476364595,16494.92195365973
4459.571839602949,16279.24863064067
4459.595031690048,15669.561763637012
4459.618223897759,15260.012964620333
4459.641416226081,14411.061970261964
4459.664608675014,13891.366906831037
4459.687801244561,13454.36164364701
4459.710993934721,13207.368750072244
4459.734186745496,13354.150422560304
4459.757379676885,13612.150885010871
4459.780572728889,14186.492290214986
4459.803765901509,15095.143757265816
4459.8269591947455,15867.612310322453
4459.850152608599,16478.50980386771
4459.87334614307,16808.45347478525
4459.89653979816,16919.675047742545
4459.91973357387,16681.64080780552
4459.942927470198,16437.264037799177
4459.966121487147,15912.639896815706
4459.989315624717,15196.465300957168
4460.0125098829085,14394.21082284347
4460.035704261722,13317.700093919026
4460.058898761158,12219.442613194076
4460.082093381218,11102.551675935803
4460.105288121902,10021.686701667739
4460.12848298321,9047.416561990753
4460.151677965145,8195.930442258868
4460.1748730677045,7537.669447044288
4460.198068290891,7194.494321045863
4460.221263634704,7249.2344656716605
4460.244459099145,7601.609955500785
4460.267654684215,8382.881363243898
4460.290850389914,9309.761484998946
4460.314046216243,10482.570360527181
4460.337242163202,11824.435669439015
4460.360438230791,13014.50100035543
4460.383634419013,14402.011382431709
4460.406830727867,15702.406985797072
4460.430027157354,16707.096245866538
4460.453223707474,17582.804721739132
4460.476420378228,18212.959372974405
4460.499617169617,18589.42326515714
4460.522814081641,18835.95839073714
4460.5460111143,18888.27351775606
4460.569208267598,18962.131331476376
4460.592405541532,18936.183326851817
4460.615602936104,18843.62385378531
4460.638800451314,18742.574091394177
4460.661998087163,18656.10699609395
4460.685195843652,18446.147695731142
4460.708393720782,18182.683999106717
4460.731591718552,17761.467775046433
4460.754789836965,17507.148945350946
4460.777988076019,17324.96255483594
4460.801186435716,16924.466736443817
4460.824384916057,16575.513191659637
4460.847583517042,16136.086517735155
4460.870782238671,15765.262918051094
4460.893981080947,15124.255167384687
4460.917180043868,14166.962077344524
4460.940379127435,13113.023157293614
4460.963578331651,12064.452542172228
4460.986777656513,10856.19944611497
4461.009977102025,9709.231893472954
4461.033176668186,8763.50649350292
4461.056376354995,7726.524076866657
4461.079576162457,6955.624236189042
4461.102776090568,6497.685046699972
4461.125976139332,6128.549853105268
4461.149176308748,6061.749876151526
4461.172376598816,6174.321910771575
4461.195577009538,6369.286652038899
4461.218777540915,6549.97819981574
4461.241978192946,6815.919344354978
4461.265178965633,7071.926283159872
4461.2883798589755,7197.647224460318
4461.311580872974,7349.088808633072
4461.3347820076315,7165.810475200275
4461.357983262946,6875.375861510912
4461.381184638919,6535.314310426494
4461.404386135551,6094.477330075703
4461.4275877528435,5804.544479789031
4461.4507894907965,5738.089002264133
4461.4739913494095,5512.5784196193645
4461.497193328685,5316.9480286627595
4461.520395428623,5138.516551855408
4461.543597649224,4772.000709080557
4461.566799990488,4485.178926234341
4461.590002452416,4165.283528286905
4461.61320503501,4185.114035941663
4461.636407738269,4212.757779033892
4461.659610562193,4596.70132246512
4461.682813506784,5073.730290386743
4461.706016572044,5847.091010748102
4461.729219757971,6738.604322292629
4461.752423064566,7516.115677075453
4461.775626491831,8335.483704018705
4461.798830039766,8765.647753775622
4461.82203370837,9040.320759818851
4461.845237497647,8967.764710023517
4461.868441407595,8657.200520515562
4461.891645438215,8233.751832249676
4461.914849589509,7836.337368330853
4461.938053861475,7239.510625747484
4461.961258254117,7016.517023878467
4461.984462767433,7122.617756414836
4462.007667401424,7526.158301217973
4462.030872156092,8205.397605274042
4462.0540770314365,9042.584280794501
4462.077282027459,10142.167206395967
4462.100487144158,10954.03931389971
4462.123692381537,11549.312696919616
4462.146897739594,12196.275362055365
4462.170103218332,12395.500768067333
4462.19330881775,12407.39376075271
4462.21651453785,12191.610138194745
4462.239720378631,11821.371741380537
4462.262926340095,11824.156828893503
4462.286132422241,11441.901742903914
4462.309338625071,10902.705048200576
4462.3325449485865,10402.64047882664
4462.355751392785,9921.276021862734
4462.3789579576705,9504.641017326683
4462.402164643242,9517.659623577205
4462.4253714495,9685.330159267607
4462.448578376446,10262.812164818772
4462.471785424079,11334.146365357292
4462.494992592401,12349.558882509684
4462.518199881412,13518.005760718277
4462.541407291114,14675.309008793007
4462.564614821506,15519.754986527796
4462.587822472589,16069.299685668098
4462.611030244365,16509.962129697476
4462.634238136832,16514.99839392715
4462.657446149992,16369.428759207047
