wave,flux
4450.003811362098,10177.22227425934
4450.026953690486,10212.274172619984
4450.050096139227,10128.520875547114
4450.073238708321,9783.331795244114
4450.096381397769,9347.805210827266
4450.119524207569,8911.08961969014
4450.142667137726,8422.118281578672
4450.165810188237,7804.60765138928
4450.188953359103,7097.375429052006
4450.212096650326,6454.096828077863
4450.2352400619075,5758.480063664693
4450.258383593846,5135.712562928775
4450.281527246142,4455.917965301149
4450.304671018797,3901.65049576697
4450.327814911813,3373.6947856290344
4450.350958925188,3105.265816147032
4450.374103058924,2772.278569173655
4450.3972473130225,2518.212396497271
4450.420391687483,2491.3514603219837
4450.443536182305,2414.4744147292954
4450.466680797492,2478.387594584301
4450.489825533042,2646.5732650981686
4450.512970388957,2914.870591495272
4450.536115365237,3311.172278631528
4450.559260461882,3675.697860812693
4450.582405678895,4232.532397119745
4450.605551016274,4686.383722458723
4450.628696474022,5062.335420343939
4450.651842052138,5425.958689528869
4450.674987750623,5702.684143517808
4450.698133569476,5761.577077551003
4450.721279508702,5662.284509342171
4450.744425568297,5772.107831585797
4450.767571748264,5977.900575317794
4450.790718048604,6226.374859562834
4450.813864469315,6552.369921836483
4450.837011010401,6832.177351864296
4450.86015767186,7198.953860914182
4450.883304453694,7650.201691235716
4450.906451355903,8087.876232261973
4450.929598378489,8741.473655355425
4450.95274552145,9430.928994669972
4450.975892784789,10036.099715156035
4450.999040168505,10798.298000530946
4451.022187672601,11206.35909220688
4451.045335297074,11608.578509778607
4451.068483041929,11914.257150512864
4451.091630907163,12143.68562347983
4451.114778892777,12174.43277163737
4451.137926998774,12017.081349226657
4451.161075225153,12027.48457473838
4451.184223571914,12073.11627229469
4451.207372039059,11764.40303826843
4451.230520626587,11426.897540312106
4451.253669334501,11095.186566708619
4451.2768181628,10934.89874202043
4451.299967111485,10476.925048140816
4451.323116180556,9946.14347811256
4451.346265370014,9263.266538790074
4451.369414679861,8703.837681810808
4451.392564110095,8189.212330396706
4451.415713660719,7573.549394422885
4451.438863331732,6989.249697110705
4451.462013123136,6197.066742942451
4451.48516303493,5649.23906743519
4451.508313067117,5222.943089365323
4451.531463219695,4946.1534685534225
4451.554613492666,4871.466498495898
4451.577763886031,5062.357732758118
4451.60091439979,5447.150681023463
4451.624065033943,6024.062962975461
4451.647215788492,6800.349666179035
4451.670366663436,7633.082083320719
4451.693517658777,8443.465139970436
4451.716668774516,9128.412699081171
4451.739820010652,9590.730756114806
4451.762971367186,9890.371973284058
4451.78612284412,9999.59759149627
4451.8092744414525,9854.983904588202
4451.832426159187,9627.710648801243
4451.855577997321,9276.920986276311
4451.878729955857,8952.690255301053
4451.901882034796,8588.930574603355
4451.925034234137,8135.641349120467
4451.948186553881,7962.32461325789
4451.97133899403,7778.106780034268
4451.994491554583,7838.27239594213
4452.017644235542,8065.945251465078
4452.040797036907,8608.224445100619
4452.063949958678,9143.785391856356
4452.087103000857,9657.343315386872
4452.1102561634425,10188.798437576652
4452.133409446437,10827.20546797534
4452.156562849841,11235.703738520702
4452.179716373655,11439.000308609093
4452.202870017878,11677.857218899926
4452.226023782513,11947.209584453269
4452.24917766756,12057.042311859972
4452.272331673018,12016.981498655648
4452.29548579889,11999.63469831465
4452.318640045174,11790.639387599489
4452.341794411874,11758.730451275096
4452.364948898987,11601.039871606115
4452.388103506516,11359.066608195439
4452.4112582344615,11087.149943198183
4452.434413082823,10707.264766267017
4452.457568051602,10233.543672606149
4452.480723140799,9843.803098252742
4452.503878350413,9436.710713896358
4452.527033680448,8848.344398181976
4452.550189130902,8385.965746829681
4452.5733447017765,8051.272071893656
4452.596500393071,7723.94183178248
4452.619656204789,7408.737491411818
4452.642812136928,7225.403539517456
4452.66596818949,7178.364894203308
4452.689124362475,7102.51812672648
4452.7122806558855,7125.723601072677
4452.735437069719,7316.757584676546
4452.7585936039795,7626.13181922671
4452.781750258665,7892.94961437182
4452.804907033777,8274.44775702137
4452.828063929317,8414.384402827971
4452.851220945285,8559.501872052675
4452.87437808168,8626.953746816034
4452.897535338506,8448.727465096876
4452.92069271576,8257.506741507055
4452.943850213445,8081.839032413795
4452.967007831562,7986.038681307813
4452.99016557011,7647.76797368042
4453.01332342909,7677.466713555297
4453.036481408502,7818.535796220704
4453.059639508349,8064.478312815468
4453.08279772863,8145.3453090351395
4453.105956069345,8219.999452772732
4453.129114530496,8313.109704492612
4453.152273112083,8182.543331810411
4453.175431814107,7753.146939144602
4453.198590636567,7496.041490943364
4453.221749579466,7198.833101465197
4453.244908642802,6966.176304997107
4453.268067826579,6874.785432600643
4453.291227130795,6861.3962852469795
4453.314386555451,6984.621368156318
4453.337546100549,7273.16673645999
4453.360705766087,7810.595385223126
4453.3838655520685,8425.25269435041
4453.407025458493,9014.265276304717
4453.430185485361,9595.655190356085
4453.453345632673,10028.533319884238
4453.476505900429,10264.748146432583
4453.4996662886315,10322.85408913877
4453.52282679728,10201.52254814788
4453.545987426375,10045.378599372296
4453.569148175917,9716.746568984327
4453.592309045907,9417.892637908897
4453.615470036346,9294.309812311896
4453.638631147233,9020.336564748728
4453.661792378571,8800.085548519695
4453.684953730359,8834.503425003393
4453.708115202598,8932.994006841393
4453.731276795288,9138.41160193706
4453.754438508431,9561.331664078292
4453.777600342027,10050.278467823235
4453.800762296077,10432.576393774194
4453.82392437058,10811.860783075757
4453.847086565538,11160.795410576713
4453.870248880952,11452.617701595651
4453.8934113168225,11709.835570664867
4453.916573873149,11747.399746657065
4453.939736549933,11762.36633096269
4453.962899347174,11782.803849904249
4453.986062264875,11690.518207072348
4454.009225303034,11558.923722298012
4454.032388461654,11519.085451971074
4454.055551740734,11098.924315656268
4454.078715140275,10607.596313302842
4454.101878660277,10302.308836975317
4454.125042300742,9777.091736107504
4454.14820606167,9199.759348726298
4454.171369943061,8673.455106820049
4454.194533944917,8010.34521845237
4454.2176980672375,7299.650399567208
4454.240862310024,6651.3507165035535
4454.264026673275,5816.210233523348
4454.287191156994,5347.889234622681
4454.31035576118,4819.273548388607
4454.333520485834,4370.805599503146
4454.356685330957,4000.227189516223
4454.379850296548,4068.2564665509713
4454.40301538261,4082.031350336133
4454.426180589142,4315.633104757049
4454.449345916145,4661.452123683084
4454.4725113636205,4914.356696356759
4454.495676931568,5093.310642805926
4454.5188426199875,5334.411781057163
4454.542008428882,5213.8950471192475
4454.565174358249,4896.651454368993
4454.588340408092,4603.714892176408
4454.611506578411,4049.2105583384864
4454.634672869205,3506.4768296610905
4454.657839280476,3106.028319641563
4454.681005812225,2785.0033303911937
4454.704172464451,2542.4215030536498
4454.727339237156,2405.7690483608585
4454.750506130341,2286.6611663584836
4454.773673144005,2413.5548765168196
4454.79684027815,2623.2774206038926
4454.820007532776,2860.6503200389775
4454.843174907884,3134.9707947250777
4454.866342403473,3551.7338760850544
4454.889510019546,3940.1683305401
4454.912677756102,4286.505677133268
4454.935845613144,4609.02103270042
4454.959013590669,4730.837868994017
4454.982181688681,4729.643827041806
4455.005349907178,4909.588304834196
4455.028518246162,5266.665787211145
4455.051686705633,5592.6795387296415
4455.074855285593,5850.376548038895
4455.098023986041,6224.3152405799665
4455.121192806979,6595.037769667063
4455.144361748406,6764.94080488354
4455.167530810323,6704.316891809825
4455.190699992732,6459.171972713814
4455.213869295633,6317.857746339816
4455.237038719026,6169.545408493458
4455.260208262912,6086.570550822561
4455.283377927292,5978.255044567837
4455.306547712166,6046.823382844906
4455.329717617535,6513.264324497883
4455.352887643399,7024.07681551111
4455.37605778976,7695.2858027020575
4455.399228056617,8371.354221919228
4455.422398443972,9074.630181044113
4455.445568951825,9529.658894895794
4455.468739580177,9782.729738307064
4455.491910329028,10001.023423985002
4455.515081198378,9773.109530550213
4455.538252188229,9555.238576952075
4455.561423298582,9292.999976092482
4455.584594529436,8806.343818421947
4455.607765880793,8232.812395171388
4455.630937352652,7579.890687671365
4455.654108945016,7018.445603149135
4455.677280657883,6582.50619798752
4455.700452491255,5998.187977235004
4455.723624445134,5502.679950577398
4455.746796519518,5078.929742791083
4455.7699687144095,4475.709141100194
4455.793141029808,3983.132101438862
4455.816313465714,3798.740983135511
4455.83948602213,3721.8056659890103
4455.862658699055,3714.964695352219
4455.885831496489,3892.6653896732364
4455.909004414434,4525.788785825076
4455.932177452891,5239.766165126011
4455.955350611858,5983.237008147333
4455.978523891339,6675.017032134572
4456.001697291333,7608.027594274512
4456.024870811841,8237.075806589835
4456.048044452862,8792.992138563177
4456.071218214399,9129.528514650998
4456.094392096451,9304.792894943548
4456.117566099019,9276.287432895637
4456.140740222105,9046.324337398883
4456.163914465707,8634.121403701305
4456.187088829828,8389.198915776447
4456.210263314468,7826.882026789505
4456.233437919626,7507.029596071914
4456.256612645306,6852.722088818679
4456.279787491505,6409.368566182827
4456.302962458226,6042.615409940438
4456.326137545469,5685.7966042487315
4456.349312753233,5424.75272348111
4456.372488081522,5510.463304481304
4456.395663530333,5717.723255417571
4456.41883909967,5863.655396626826
4456.442014789531,6104.762452842531
4456.465190599917,6258.493671821406
4456.488366530831,6389.971129588223
4456.5115425822705,6459.908323927784
4456.5347187542375,6442.770267181986
4456.557895046733,6204.45525839169
4456.581071459757,6074.37756677108
4456.604247993311,6085.244718902936
4456.627424647395,6282.75114737775
4456.650601422009,6772.793371647998
4456.673778317154,7389.2049695297665
4456.696955332832,8089.474372705918
4456.720132469041,8700.058912138486
4456.7433097257845,9324.313245267493
4456.766487103061,9832.81597523427
4456.789664600872,10049.829024060093
4456.8128422192185,10259.452681060277
4456.8360199581,10203.758452204318
4456.859197817518,10030.830665936312
4456.882375797473,9873.525890611918
4456.905553897966,9574.051025282524
4456.928732118997,9359.61453754749
4456.951910460566,9231.918001231887
4456.975088922674,9026.911218599756
4456.998267505323,8789.057137085278
4457.021446208513,8804.248309051998
4457.044625032244,8956.822647069246
4457.067803976516,9064.642278022877
4457.090983041332,9172.362424000079
4457.1141622266905,9357.679691059937
4457.1373415325925,9408.470751720019
4457.160520959039,9458.19514537341
4457.183700506031,9397.425895295833
4457.206880173568,9130.863808654582
4457.230059961651,8735.195254797223
4457.2532398702815,8247.998806834708
4457.27641989946,7781.515580324987
4457.299600049186,7226.748617436779
4457.322780319461,6598.03186427244
4457.345960710286,5934.281553951773
4457.36914122166,5435.888851621459
4457.392321853586,4991.807338568855
4457.415502606062,4599.234637797217
4457.43868347909,4504.097345218322
4457.461864472672,4696.70045063998
4457.485045586805,4927.411137384177
4457.508226821494,5318.07482953403
4457.5314081767365,6007.9835331464155
4457.554589652534,6702.3783732866095
4457.577771248887,7386.379203227111
4457.600952965797,8153.852234549461
4457.624134803263,8830.496926901904
4457.647316761288,9412.313420041593
4457.67049883987,9830.025422414386
4457.693681039011,10041.773236782376
4457.716863358712,10084.005963298632
4457.7400457989725,10125.46021025681
4457.763228359793,10074.228010862833
4457.7864110411765,9743.810921185768
4457.809593843121,9676.279764826062
4457.832776765628,9513.28449295197
4457.855959808699,9137.731934827621
4457.879142972333,8837.195208920957
4457.902326256532,8441.618661310027
4457.925509661296,8036.812230921065
4457.948693186626,7634.895576504444
4457.971876832522,7023.070787205527
4457.995060598985,6450.441759358866
4458.018244486016,5939.582299464461
4458.041428493615,5580.866011450928
4458.0646126217825,5233.399736998869
4458.08779687052,5062.690991680858
4458.110981239827,5043.421354797853
4458.134165729705,5107.499349101766
4458.157350340155,5297.5160035612125
4458.180535071177,5498.363107731396
4458.203719922771,5693.263530009764
4458.226904894938,5889.598081790128
4458.2500899876795,6076.030445154768
4458.273275200995,6425.937065284637
4458.296460534886,6701.719941056618
4458.3196459893525,7160.876918157452
4458.342831564396,7475.221249611594
4458.366017260016,7730.34377968206
4458.389203076214,7826.162341011667
4458.4123890129895,7873.851301107724
4458.435575070344,7697.093530765189
4458.458761248279,7574.518363129038
4458.481947546794,7402.808751036307
4458.505133965889,7369.428405047456
4458.528320505566,7700.335167209491
4458.551507165825,8126.725787805742
4458.574693946666,8565.847590761947
4458.597880848091,9144.247383497348
4458.6210678701,9597.719344846713
4458.644255012693,10032.660160262914
4458.6674422758715,10467.248068753426
4458.690629659636,10555.74546168788
4458.713817163986,10486.265262489049
4458.737004788924,10277.802266430723
4458.76019253445,9892.576615945176
4458.783380400563,9544.392147941366
4458.8065683872655,8934.567372310537
4458.829756494558,8167.420073981934
4458.85294472244,7545.968864455732
4458.876133070914,6908.740930594773
4458.899321539979,6187.430989774045
4458.922510129635,5541.290398295977
4458.945698839884,4878.115610586024
4458.968887670727,4163.796500486421
4458.992076622164,3489.7984132217557
4459.015265694195,2999.6246702627914
4459.0384548868215,2607.1044016560036
4459.061644200044,2380.377756723147
4459.084833633862,2363.700778081869
4459.108023188278,2451.3219472279675
4459.131212863292,2647.0332533704404
4459.154402658904,2948.0607895552553
4459.177592575114,3314.2638999119363
4459.200782611925,3798.6659279829873
4459.223972769336,4249.487348563143
4459.247163047347,4724.622389671362
4459.27035344596,5160.328377652783
4459.293543965176,5485.5850060158655
4459.316734604993,5823.100049811734
4459.339925365414,6287.681240733735
4459.363116246439,6766.761035162414
4459.386307248069,7274.930563795214
4459.409498370304,8020.329543819762
4459.432689613145,8797.467090722943
4459.455880976592,9408.321111798168
4459.479072460647,9863.800471582279
4459.502264065309,10102.62564115723
4459.52545579058,10093.55159465506
4459.5486476364595,10028.496836097658
4459.571839602949,9923.786046645766
4459.595031690048,9806.141237513364
4459.618223897759,9367.693484742349
4459.641416226081,9015.52620275178
4459.664608675014,8681.954377734086
4459.687801244561,8343.035977218304
4459.710993934721,8304.97219837406
4459.734186745496,8191.1634611480395
4459.757379676885,8222.194435583377
4459.780572728889,8497.170165760394
4459.803765901509,8931.356468974795
4459.8269591947455,9524.050246106286
4459.850152608599,10043.494879867976
4459.87334614307,10346.272481884362
4459.89653979816,10420.588534482646
4459.91973357387,10344.595516942722
4459.942927470198,10255.537981820456
4459.966121487147,10011.59473832973
4459.989315624717,9616.995122018414
4460.0125098829085,9013.430886158749
4460.035704261722,8398.978654022036
4460.058898761158,7761.5008316349185
4460.082093381218,7115.419049754733
4460.105288121902,6395.034648263386
4460.12848298321,5804.919472434284
4460.151677965145,5205.265649858981
4460.1748730677045,4725.587146864395
4460.198068290891,4475.036186521083
4460.221263634704,4486.127621567587
4460.244459099145,4635.678937846652
4460.267654684215,4965.733523050635
4460.290850389914,5422.94793135754
4460.314046216243,6218.8183162696405
4460.337242163202,7024.358185336538
4460.360438230791,7743.181753872662
4460.383634419013,8525.800966118146
4460.406830727867,9216.97030783289
4460.430027157354,9988.816908659126
4460.453223707474,10602.309084809129
4460.476420378228,11114.315743190287
4460.499617169617,11386.157291326723
4460.522814081641,11542.473767616708
4460.5460111143,11617.185912944937
4460.569208267598,11573.579176988733
4460.592405541532,11662.170074851554
4460.615602936104,11616.139850174734
4460.638800451314,11578.13832078399
4460.661998087163,11472.860899638381
4460.685195843652,11181.625189461894
4460.708393720782,11079.04294408871
4460.731591718552,10961.393059635844
4460.754789836965,10786.410184563594
4460.777988076019,10725.616248304663
4460.801186435716,10520.74213762503
4460.824384916057,10263.196523448432
4460.847583517042,9993.215777346204
4460.870782238671,9819.565047599473
4460.893981080947,9473.534804565137
4460.917180043868,8946.048255181482
4460.940379127435,8264.19711871593
4460.963578331651,7655.491525889481
4460.986777656513,7004.944108380044
4461.009977102025,6173.278525811481
4461.033176668186,5538.784857958425
4461.056376354995,4934.184645170972
4461.079576162457,4464.6651253996415
4461.102776090568,4087.9211055598644
4461.125976139332,3823.614186199166
4461.149176308748,3763.038153543775
4461.172376598816,3742.2378118611327
4461.195577009538,3827.1207434702396
4461.218777540915,3934.0497735501176
4461.241978192946,4049.4591663336055
4461.265178965633,4300.714882781333
4461.2883798589755,4454.224368692731
4461.311580872974,4395.987147463617
4461.3347820076315,4443.49790129843
4461.357983262946,4326.652624612513
4461.381184638919,4095.4859734805536
4461.404386135551,3793.4656305811873
4461.4275877528435,3609.338200621449
4461.4507894907965,3488.136726951964
4461.4739913494095,3389.0633580784024
4461.497193328685,3333.142276653916
4461.520395428623,3161.022946414442
4461.543597649224,2963.81781001738
4461.566799990488,2852.7639749272576
4461.590002452416,2684.693615023582
4461.61320503501,2558.6252705974975
4461.636407738269,2596.099867580756
4461.659610562193,2715.591599532637
4461.682813506784,3016.678529826262
4461.706016572044,3450.29301104164
4461.729219757971,3916.650236537916
4461.752423064566,4320.259517050749
4461.775626491831,4865.67171210318
4461.798830039766,5200.087309390211
4461.82203370837,5472.415587854022
4461.845237497647,5574.18208704341
4461.868441407595,5343.958951438294
4461.891645438215,5185.927302336368
4461.914849589509,4925.2601633095
4461.938053861475,4578.472885459942
4461.961258254117,4362.051292035608
4461.984462767433,4277.926002071387
4462.007667401424,4581.392596735412
4462.030872156092,4854.881232190401
4462.0540770314365,5242.661511603374
4462.077282027459,5896.15109208171
4462.100487144158,6403.94270605231
4462.123692381537,6794.948925783516
4462.146897739594,7233.421478173644
4462.170103218332,7502.814032575342
4462.19330881775,7427.412078914693
4462.21651453785,7510.01330418457
4462.239720378631,7400.127016921196
4462.262926340095,7318.0530243299245
4462.286132422241,7115.299969569141
4462.309338625071,6773.193141084768
4462.3325449485865,6435.503745138021
4462.355751392785,6227.34337944943
4462.3789579576705,5903.324566255103
4462.402164643242,5853.957447143538
4462.4253714495,5895.461267978784
4462.448578376446,6115.831273212903
4462.471785424079,6644.124994144541
4462.494992592401,7314.952660059945
4462.518199881412,8072.143134957321
4462.541407291114,8631.07761536693
4462.564614821506,9296.192969371737
4462.587822472589,9784.12714290926
4462.611030244365,10001.090503680573
4462.634238136832,10083.267248526106
4462.657446149992,10123.92005855072
4462.680654283847,9954.596922492106
4462.703862538396,9713.880084306775
4462.727070913639,9397.359480683588
4462.750279409578,9130.798257573868
4462.773488026214,8944.544861023256
4462.796696763546,8680.978624557356
