wave,flux
4450.003811362098,14872.864837872876
4450.026953690486,14609.06400826885
4450.050096139227,14249.959699795076
4450.073238708321,13810.599043797769
4450.096381397769,13301.046237157037
4450.119524207569,12587.745043467059
4450.142667137726,11701.339912295289
4450.165810188237,10867.835706775362
4450.188953359103,9950.805110744353
4450.212096650326,9075.904694341014
4450.2352400619075,8003.50719039776
4450.258383593846,6998.042700552495
4450.281527246142,6109.924319832307
4450.304671018797,5349.527160028144
4450.327814911813,4707.595707257727
4450.350958925188,4201.807690223727
4450.374103058924,3802.692431691095
4450.3972473130225,3580.2303234192236
4450.420391687483,3477.045147773442
4450.443536182305,3550.0954808591537
4450.466680797492,3565.0835578106157
4450.489825533042,3822.8905542045036
4450.512970388957,4194.289169483389
4450.536115365237,4892.71818535828
4450.559260461882,5575.2389176967445
4450.582405678895,6385.546130991249
4450.605551016274,7008.152529549409
4450.628696474022,7465.544622255484
4450.651842052138,7915.674503539345
4450.674987750623,8037.930919504869
4450.698133569476,8138.870548952644
4450.721279508702,8339.98233635895
4450.744425568297,8457.103729423547
4450.767571748264,8724.235909878877
4450.790718048604,9122.001092115439
4450.813864469315,9472.795018448509
4450.837011010401,9892.256450633857
4450.86015767186,10486.77844747384
4450.883304453694,11231.276866566368
4450.906451355903,12036.982914611923
4450.929598378489,12841.938896667983
4450.95274552145,13748.195325936344
4450.975892784789,14778.19547652293
4450.999040168505,15637.301567705847
4451.022187672601,16323.607445856209
4451.045335297074,16778.403166871103
4451.068483041929,17113.925830580043
4451.091630907163,17356.134882257218
4451.114778892777,17419.97960269462
4451.137926998774,17371.204285032432
4451.161075225153,17241.000640720176
4451.184223571914,17011.67457231018
4451.207372039059,16778.877814240186
4451.230520626587,16111.543873067903
4451.253669334501,15945.658443119268
4451.2768181628,15419.792312515643
4451.299967111485,14788.085756542838
4451.323116180556,14009.687942628909
4451.346265370014,13162.054691083811
4451.369414679861,12343.336581024416
4451.392564110095,11366.084987138363
4451.415713660719,10413.36474298429
4451.438863331732,9476.447808798259
4451.462013123136,8593.705925092449
4451.48516303493,7776.530105657699
4451.508313067117,7084.438659690465
4451.531463219695,6825.966459663731
4451.554613492666,6817.8456730329835
4451.577763886031,7151.601715004188
4451.60091439979,7946.652118093009
4451.624065033943,8979.142696736231
4451.647215788492,10260.58443339542
4451.670366663436,11418.184644382933
4451.693517658777,12415.540252838706
4451.716668774516,13286.52840461441
4451.739820010652,13834.726044043486
4451.762971367186,14277.7126837155
4451.78612284412,14301.850464437111
4451.8092744414525,14102.069371388965
4451.832426159187,13764.595849959527
4451.855577997321,13329.086159171915
4451.878729955857,12767.233580912678
4451.901882034796,12053.30237350196
4451.925034234137,11515.916013672544
4451.948186553881,11186.067146704198
4451.97133899403,11036.649906917455
4451.994491554583,11429.55790190333
4452.017644235542,11851.017041201665
4452.040797036907,12482.345995873788
4452.063949958678,13249.717488277778
4452.087103000857,14084.866778410464
4452.1102561634425,15003.091237921803
4452.133409446437,15539.919279785296
4452.156562849841,16137.958389865635
4452.179716373655,16562.47940724603
4452.202870017878,16961.614820629347
4452.226023782513,17185.39607622054
4452.24917766756,17241.880760614553
4452.272331673018,17249.316509047
4452.29548579889,17207.36578327933
4452.318640045174,17003.472911116143
4452.341794411874,16785.517989613923
4452.364948898987,16531.43426831043
4452.388103506516,16016.033201919137
4452.4112582344615,15651.823165980422
4452.434413082823,15100.237688687785
4452.457568051602,14394.074921829975
4452.480723140799,13736.607759717637
4452.503878350413,13093.123512448026
4452.527033680448,12511.855537027383
4452.550189130902,11962.537799187241
4452.5733447017765,11382.86173750105
4452.596500393071,10885.508050083747
4452.619656204789,10512.866700300441
4452.642812136928,10223.850534446297
4452.66596818949,10264.762728878073
4452.689124362475,10406.692423274106
4452.7122806558855,10352.254478726862
4452.735437069719,10542.442315452132
4452.7585936039795,10964.442470521899
4452.781750258665,11384.944288126055
4452.804907033777,11761.000348022902
4452.828063929317,12237.833535787
4452.851220945285,12312.524405647151
4452.87437808168,12247.88535557717
4452.897535338506,12014.67479428065
4452.92069271576,11658.665191741733
4452.943850213445,11501.544726420403
4452.967007831562,11240.571569733876
4452.99016557011,11202.381616363353
4453.01332342909,11029.532820011067
4453.036481408502,11369.70626420075
4453.059639508349,11802.90312698313
4453.08279772863,11876.418041850447
4453.105956069345,11848.288085196848
4453.129114530496,11868.08289821774
4453.152273112083,11471.926890211458
4453.175431814107,11092.108242118198
4453.198590636567,10620.509869884409
4453.221749579466,10250.284391336785
4453.244908642802,9899.98820053589
4453.268067826579,9721.15899237967
4453.291227130795,9793.390118637248
4453.314386555451,10059.377865770222
4453.337546100549,10719.655153578791
4453.360705766087,11658.79755344658
4453.3838655520685,12518.384211015677
4453.407025458493,13523.762268191696
4453.430185485361,14212.535137274828
4453.453345632673,14562.230075679863
4453.476505900429,14912.324277685833
4453.4996662886315,14932.879120375717
4453.52282679728,14550.124204611278
4453.545987426375,14164.432095864435
4453.569148175917,13807.536492385678
4453.592309045907,13600.218263907605
4453.615470036346,13264.015876622028
4453.638631147233,12881.717062774622
4453.661792378571,12643.67252885736
4453.684953730359,12595.51909863701
4453.708115202598,12833.390393582926
4453.731276795288,13223.677531956693
4453.754438508431,13838.860998518534
4453.777600342027,14569.0409896225
4453.800762296077,15406.58522797014
4453.82392437058,16015.653513618905
4453.847086565538,16215.962354106703
4453.870248880952,16499.196644988948
4453.8934113168225,16785.703040434524
4453.916573873149,16834.30975513967
4453.939736549933,16967.503536880078
4453.962899347174,17005.478084735394
4453.986062264875,16926.769011464177
4454.009225303034,16507.17835595344
4454.032388461654,16153.99595434246
4454.055551740734,15776.260930372786
4454.078715140275,15316.565541415022
4454.101878660277,14593.72047417035
4454.125042300742,13963.873308205324
4454.14820606167,12893.109889653218
4454.171369943061,12130.129710065372
4454.194533944917,11185.541102835787
4454.2176980672375,10074.739993850344
4454.240862310024,9085.313536879139
4454.264026673275,8159.388434522728
4454.287191156994,7412.278821732541
4454.31035576118,6659.037754854368
4454.333520485834,6046.229052542611
4454.356685330957,5781.325720093049
4454.379850296548,5637.989857868504
4454.40301538261,5946.116237647718
4454.426180589142,6431.396485638211
4454.449345916145,6869.981700130005
4454.4725113636205,7251.335128481609
4454.495676931568,7621.307429590442
4454.5188426199875,7639.447506556769
4454.542008428882,7310.550979858443
4454.565174358249,6839.373029128754
4454.588340408092,6222.878151846189
4454.611506578411,5559.360412389792
4454.634672869205,4867.543242369957
4454.657839280476,4311.116913697241
4454.681005812225,3751.878363583109
4454.704172464451,3440.40740377504
4454.727339237156,3323.106871281959
4454.750506130341,3365.491098930441
4454.773673144005,3495.6726781627463
4454.79684027815,3803.9367768776274
4454.820007532776,4226.99535133011
4454.843174907884,4766.25104774334
4454.866342403473,5277.811534580532
4454.889510019546,5811.977808321294
4454.912677756102,6245.130121847601
4454.935845613144,6539.8048915965455
4454.959013590669,6792.263402886163
4454.982181688681,7090.391596485887
4455.005349907178,7376.751150412915
4455.028518246162,7703.072918028555
4455.051686705633,8243.554321321311
4455.074855285593,8764.813475328268
4455.098023986041,9207.522403345974
4455.121192806979,9545.47508401718
4455.144361748406,9712.153187839838
4455.167530810323,9613.09487554803
4455.190699992732,9294.439077610681
4455.213869295633,8987.9050239687
4455.237038719026,8674.899402658526
4455.260208262912,8474.652809866217
4455.283377927292,8425.83599136848
4455.306547712166,8835.63772294161
4455.329717617535,9485.037724006575
4455.352887643399,10517.602771974653
4455.37605778976,11430.981200215976
4455.399228056617,12256.576060126128
4455.422398443972,13200.900260510123
4455.445568951825,13747.150532978018
4455.468739580177,14218.228491723188
4455.491910329028,14209.441654648943
4455.515081198378,13972.037362436828
4455.538252188229,13575.42973492776
4455.561423298582,13028.246075862307
4455.584594529436,12379.021257770402
4455.607765880793,11428.887939134418
4455.630937352652,10638.08016596063
4455.654108945016,9890.857778850055
4455.677280657883,9086.34867892006
4455.700452491255,8328.71962820847
4455.723624445134,7734.832930053238
4455.746796519518,6919.943883394084
4455.7699687144095,6242.574370422898
4455.793141029808,5590.818519067292
4455.816313465714,5327.228063672552
4455.83948602213,5155.8910982101415
4455.862658699055,5339.034439298143
4455.885831496489,5839.092569163346
4455.909004414434,6773.345361903073
4455.932177452891,7721.283212651522
4455.955350611858,9061.205192102865
4455.978523891339,10187.648675145643
4456.001697291333,11383.285904594888
4456.024870811841,12276.454997938577
4456.048044452862,12908.222754825541
4456.071218214399,13170.968370685845
4456.094392096451,13299.231307757971
4456.117566099019,13192.161866379738
4456.140740222105,13007.30992831613
4456.163914465707,12395.06024117398
4456.187088829828,11887.48621233966
4456.210263314468,11224.834269571153
4456.233437919626,10453.40605764389
4456.256612645306,9520.085399032772
4456.279787491505,8880.40384568425
4456.302962458226,8429.778604778
4456.326137545469,7979.099485018947
4456.349312753233,7778.98925225889
4456.372488081522,7997.014770465444
4456.395663530333,8291.683421997788
4456.41883909967,8638.00380942536
4456.442014789531,8876.45062761696
4456.465190599917,9260.958702284535
4456.488366530831,9304.500860319384
4456.5115425822705,9116.657277806484
4456.5347187542375,9062.690305227085
4456.557895046733,8940.656305696493
4456.581071459757,8815.69156651997
4456.604247993311,8876.354631155595
4456.627424647395,9216.950144594897
4456.650601422009,9884.376008797637
4456.673778317154,10760.939323791581
4456.696955332832,11804.617929179416
4456.720132469041,12867.773336680317
4456.7433097257845,13632.45602655189
4456.766487103061,14261.760526880087
4456.789664600872,14717.160969986237
4456.8128422192185,14721.91229731568
4456.8360199581,14478.900031171093
4456.859197817518,14260.728689884376
4456.882375797473,14007.407529333172
4456.905553897966,13695.109624786015
4456.928732118997,13290.354068152197
4456.951910460566,13032.42767251464
4456.975088922674,12845.397431430774
4456.998267505323,12720.172944347167
4457.021446208513,12571.742755088955
4457.044625032244,12669.570896021121
4457.067803976516,12953.884755879368
4457.090983041332,13286.068777452461
4457.1141622266905,13626.273302238207
4457.1373415325925,13892.49038369387
4457.160520959039,13876.054729562135
4457.183700506031,13447.652649048923
4457.206880173568,13020.895076639616
4457.230059961651,12445.662856379142
4457.2532398702815,11749.405768889286
4457.27641989946,10975.011000747458
4457.299600049186,10015.742402668064
4457.322780319461,9080.880904862233
4457.345960710286,8233.172616804291
4457.36914122166,7435.782760316391
4457.392321853586,6828.866834999801
4457.415502606062,6450.984980889913
4457.43868347909,6415.243327245465
4457.461864472672,6726.634633154494
4457.485045586805,7230.089640107131
4457.508226821494,7973.050093452297
4457.5314081767365,8777.345831098808
4457.554589652534,9841.08242595385
4457.577771248887,11081.053613711803
4457.600952965797,12139.446351869208
4457.624134803263,12980.336450562296
4457.647316761288,13662.894032179187
4457.67049883987,14361.968266904298
4457.693681039011,14622.83210933448
4457.716863358712,14603.47608800447
4457.7400457989725,14487.60085227787
4457.763228359793,14144.273174252749
4457.7864110411765,14084.49375075189
4457.809593843121,13960.556996067398
4457.832776765628,13519.934262867844
4457.855959808699,13125.62891357589
4457.879142972333,12679.693513205708
4457.902326256532,11953.959500081413
4457.925509661296,11240.981990419266
4457.948693186626,10451.564336645726
4457.971876832522,9724.079228679335
4457.995060598985,8981.173433274496
4458.018244486016,8395.2558638018
4458.041428493615,7793.650327762696
4458.0646126217825,7445.544052454148
4458.08779687052,7363.778121748333
4458.110981239827,7277.722489860232
4458.134165729705,7320.799530671631
4458.157350340155,7642.808686937266
4458.180535071177,7825.783805680559
4458.203719922771,8313.991985504299
4458.226904894938,8546.940299320166
4458.2500899876795,8862.529517802073
4458.273275200995,9340.49130809738
4458.296460534886,9858.299918055633
4458.3196459893525,10526.74607213953
4458.342831564396,10894.394128442213
4458.366017260016,11246.375941074568
4458.389203076214,11476.349449420122
4458.4123890129895,11177.697127068173
4458.435575070344,10979.65944303707
4458.458761248279,10750.632757047133
4458.481947546794,10701.494265291189
4458.505133965889,10677.628297400124
4458.528320505566,11155.715803695675
4458.551507165825,11691.70684478333
4458.574693946666,12460.403340782825
4458.597880848091,13319.101755250384
4458.6210678701,14098.195055348086
4458.644255012693,14659.64290392597
4458.6674422758715,15158.07314402025
4458.690629659636,15328.431464621826
4458.713817163986,14952.37474602869
4458.737004788924,14588.854491404029
4458.76019253445,13980.285798270537
4458.783380400563,13262.049498234139
4458.8065683872655,12573.48063122423
4458.829756494558,11658.592507118234
4458.85294472244,10600.611286114345
4458.876133070914,9633.837370202156
4458.899321539979,8749.449180851183
4458.922510129635,7712.9817125798245
4458.945698839884,6682.423942315052
4458.968887670727,5594.3803504839825
4458.992076622164,4742.330115209323
4459.015265694195,4090.482885891307
4459.0384548868215,3622.433757961055
4459.061644200044,3333.957819532416
4459.084833633862,3403.9998047790327
4459.108023188278,3551.628020283714
4459.131212863292,3958.9601395131126
4459.154402658904,4457.285342665013
4459.177592575114,5040.7537799492475
4459.200782611925,5706.833172759859
4459.223972769336,6347.857641921751
4459.247163047347,6872.897073525559
4459.27035344596,7509.393574579285
4459.293543965176,8103.498549041089
4459.316734604993,8643.645102522518
4459.339925365414,9161.477225774664
4459.363116246439,10044.157593199525
4459.386307248069,10956.95901641201
4459.409498370304,11973.829631015597
4459.432689613145,13093.642690149461
4459.455880976592,13650.187828711583
4459.479072460647,14234.564677965496
4459.502264065309,14676.21713907418
4459.52545579058,14687.373593176346
4459.5486476364595,14534.806680264419
4459.571839602949,14190.853964314785
4459.595031690048,13862.720642910857
4459.618223897759,13422.776651910664
4459.641416226081,12938.143717003388
4459.664608675014,12398.417691173989
4459.687801244561,11943.971006905107
4459.710993934721,11724.703587184209
4459.734186745496,11710.233841027239
4459.757379676885,11920.706890614796
4459.780572728889,12480.083995549574
4459.803765901509,13142.818634621299
4459.8269591947455,13842.681816569031
4459.850152608599,14487.749547780764
4459.87334614307,14997.710481319647
4459.89653979816,15086.763741198703
4459.91973357387,14941.739660650013
4459.942927470198,14618.477216096786
4459.966121487147,14084.583386135628
4459.989315624717,13409.514051815597
4460.0125098829085,12691.673814186224
4460.035704261722,11747.163337843247
4460.058898761158,10804.544600592582
4460.082093381218,10071.814385809004
4460.105288121902,9045.87454848434
4460.12848298321,8061.407383763623
4460.151677965145,7182.648943826933
4460.1748730677045,6719.709398206293
4460.198068290891,6403.908024107264
4460.221263634704,6416.425960199142
4460.244459099145,6674.43659941821
4460.267654684215,7333.1955923216965
4460.290850389914,8160.644365487861
4460.314046216243,9201.45781111102
4460.337242163202,10280.158285358995
4460.360438230791,11448.330706294235
4460.383634419013,12667.632421480414
4460.406830727867,13615.678209083853
4460.430027157354,14488.277901481219
4460.453223707474,15303.273891402047
4460.476420378228,15880.921628536527
4460.499617169617,16208.60639605623
4460.522814081641,16538.48464800369
4460.5460111143,16602.455985752276
4460.569208267598,16607.17105590691
4460.592405541532,16599.9440239975
4460.615602936104,16594.80213978358
4460.638800451314,16599.15047711434
4460.661998087163,16425.28186327446
4460.685195843652,16050.309616240866
4460.708393720782,15761.805886887807
4460.731591718552,15647.591284204645
4460.754789836965,15231.967628427647
4460.777988076019,15074.34904173397
4460.801186435716,14910.442565906105
4460.824384916057,14533.957737478955
4460.847583517042,14274.141573680561
4460.870782238671,13792.864223329314
4460.893981080947,13089.017454925308
4460.917180043868,12433.74086228381
4460.940379127435,11696.040574821869
4460.963578331651,10722.052911148863
4460.986777656513,9649.434517492073
4461.009977102025,8593.209626597969
4461.033176668186,7773.100826885548
4461.056376354995,6905.5481610413635
4461.079576162457,6181.73685615964
4461.102776090568,5800.47882226748
4461.125976139332,5526.395740663071
4461.149176308748,5356.047244577011
4461.172376598816,5449.338517178292
4461.195577009538,5588.9413776290585
4461.218777540915,5797.76174579423
4461.241978192946,6014.950042958686
4461.265178965633,6238.787269749064
4461.2883798589755,6447.951579125816
4461.311580872974,6443.813130185803
4461.3347820076315,6344.882711858496
4461.357983262946,6078.830547000643
4461.381184638919,5742.976715129567
4461.404386135551,5495.300725937762
4461.4275877528435,5226.822375941921
4461.4507894907965,5015.088577319385
4461.4739913494095,4778.615984867873
4461.497193328685,4740.7852538280695
4461.520395428623,4520.314736078886
4461.543597649224,4296.632410645841
4461.566799990488,3949.009863478182
4461.590002452416,3742.7577234515
4461.61320503501,3665.5587541345717
4461.636407738269,3660.3236995781367
4461.659610562193,4077.9060546074975
4461.682813506784,4579.562036824795
4461.706016572044,5214.729053336046
4461.729219757971,5851.068857315245
4461.752423064566,6553.242804558788
4461.775626491831,7240.911838452834
4461.798830039766,7708.194985171312
4461.82203370837,7906.173329455492
4461.845237497647,7849.650440225398
4461.868441407595,7573.749642398464
4461.891645438215,7230.408127621215
4461.914849589509,6846.097704837888
4461.938053861475,6419.215183010552
4461.961258254117,6204.694594284959
4461.984462767433,6313.250053513376
4462.007667401424,6687.867760198505
4462.030872156092,7372.59949230859
4462.0540770314365,7832.039610530867
4462.077282027459,8746.223700213543
4462.100487144158,9425.970689780432
4462.123692381537,10270.5376437373
4462.146897739594,10552.203580007743
4462.170103218332,10583.278825733492
4462.19330881775,10772.362758425154
4462.21651453785,10707.846145888556
4462.239720378631,10579.68737619945
4462.262926340095,10467.067727228676
4462.286132422241,10116.087012878581
4462.309338625071,9823.301569023033
4462.3325449485865,9326.284919047352
4462.355751392785,8840.681065053666
4462.3789579576705,8357.34299734098
4462.402164643242,8296.8490560483
4462.4253714495,8515.333052989536
4462.448578376446,9076.185924466556
4462.471785424079,9834.504632880242
4462.494992592401,10743.95984573454
4462.518199881412,11759.510698085453
4462.541407291114,12787.442973058847
4462.564614821506,13626.352488512663
4462.587822472589,14120.757599532253
4462.611030244365,14449.12563518268
4462.634238136832,14582.282667907059
4462.657446149992,14453.337205727887
4462.680654283847,14204.391833134965
4462.703862538396,13924.482064629687
