wave,flux
4450.003811362098,17618.302971289468
4450.026953690486,17626.36459141003
4450.050096139227,17318.288436043353
4450.073238708321,16812.49849473798
4450.096381397769,16109.167564291747
4450.119524207569,15244.899934685462
4450.142667137726,14142.876279165803
4450.165810188237,13114.217878916572
4450.188953359103,12062.951029856264
4450.212096650326,10850.573763007924
4450.2352400619075,9833.410623436064
4450.258383593846,8629.863646583412
4450.281527246142,7587.141514768173
4450.304671018797,6559.496422987701
4450.327814911813,5776.719618062052
4450.350958925188,5232.726191601156
4450.374103058924,4667.661044861261
4450.3972473130225,4317.959543692921
4450.420391687483,4275.164185178314
4450.443536182305,4119.542478553019
4450.466680797492,4240.6534687416115
4450.489825533042,4525.660456546365
4450.512970388957,5119.219627407917
4450.536115365237,5774.817899850784
4450.559260461882,6564.618603569862
4450.582405678895,7392.586674041081
4450.605551016274,8176.180324477371
4450.628696474022,8869.856170425173
4450.651842052138,9350.113750530314
4450.674987750623,9678.561221991817
4450.698133569476,9799.32248018278
4450.721279508702,9910.605339030866
4450.744425568297,10009.996702624423
4450.767571748264,10317.094902564373
4450.790718048604,10773.471085352265
4450.813864469315,11370.080630655357
4450.837011010401,12064.190841788833
4450.86015767186,12600.657528457841
4450.883304453694,13214.481295604619
4450.906451355903,14126.671450591262
4450.929598378489,15139.368127296073
4450.95274552145,16270.3814689694
4450.975892784789,17602.467063640313
4450.999040168505,18610.443495538922
4451.022187672601,19449.875077979665
4451.045335297074,20079.07626693936
4451.068483041929,20484.960354253417
4451.091630907163,20915.613937522012
4451.114778892777,20896.75079159467
4451.137926998774,20775.156191573285
4451.161075225153,20626.674031916362
4451.184223571914,20530.290027725034
4451.207372039059,20044.049685827773
4451.230520626587,19692.295410720322
4451.253669334501,19045.38515938139
4451.2768181628,18294.51168099387
4451.299967111485,17860.832391270633
4451.323116180556,16966.645015999413
4451.346265370014,15938.352780015994
4451.369414679861,14784.591771067428
4451.392564110095,13826.26786004618
4451.415713660719,12905.373213417608
4451.438863331732,11780.498757069085
4451.462013123136,10591.422092641737
4451.48516303493,9446.225937953206
4451.508313067117,8728.73053018914
4451.531463219695,8412.750464434524
4451.554613492666,8358.844563935083
4451.577763886031,8660.13361524726
4451.60091439979,9428.851476446243
4451.624065033943,10563.39748609049
4451.647215788492,11982.867606192023
4451.670366663436,13385.242363942023
4451.693517658777,14625.233158045523
4451.716668774516,15860.764402399238
4451.739820010652,16669.007753211125
4451.762971367186,16977.889569951858
4451.78612284412,17058.64776230763
4451.8092744414525,16815.263856854137
4451.832426159187,16485.073963517138
4451.855577997321,15856.977800429237
4451.878729955857,15248.102852956898
4451.901882034796,14785.94178875008
4451.925034234137,14024.575803060015
4451.948186553881,13656.398997470493
4451.97133899403,13471.449782815798
4451.994491554583,13452.964519034835
4452.017644235542,14115.535031457459
4452.040797036907,14859.090915684203
4452.063949958678,15735.112921161615
4452.087103000857,16648.586776891814
4452.1102561634425,17853.81195002316
4452.133409446437,18632.591121775127
4452.156562849841,19259.473894386454
4452.179716373655,19623.2252529436
4452.202870017878,20396.445169399452
4452.226023782513,20368.313595403197
4452.24917766756,20578.69814853361
4452.272331673018,20741.354185953405
4452.29548579889,20720.253232509793
4452.318640045174,20563.372695203314
4452.341794411874,20139.632761650653
4452.364948898987,19739.957703923472
4452.388103506516,19475.027169154928
4452.4112582344615,18984.969645268775
4452.434413082823,18406.609464278667
4452.457568051602,17590.024993346917
4452.480723140799,16762.697128705953
4452.503878350413,15949.891635311284
4452.527033680448,15112.241778513482
4452.550189130902,14341.506913214416
4452.5733447017765,13649.329811153388
4452.596500393071,13070.22796079924
4452.619656204789,12689.388466311479
4452.642812136928,12492.70814840874
4452.66596818949,12350.847878809662
4452.689124362475,12376.115275015996
4452.7122806558855,12526.024905781449
4452.735437069719,12701.795045919926
4452.7585936039795,13130.198568053916
4452.781750258665,13750.126093972172
4452.804907033777,14237.488887640893
4452.828063929317,14654.298033283343
4452.851220945285,14737.110009372112
4452.87437808168,14685.345454708415
4452.897535338506,14658.547943576461
4452.92069271576,14234.477281313599
4452.943850213445,13759.266106799838
4452.967007831562,13433.48806898739
4452.99016557011,13275.416640233945
4453.01332342909,13378.230969998234
4453.036481408502,13384.374448870733
4453.059639508349,13895.820092453007
4453.08279772863,14114.415747564379
4453.105956069345,14191.426432390412
4453.129114530496,14185.71392530031
4453.152273112083,13800.895865076302
4453.175431814107,13455.656549995198
4453.198590636567,12985.76096172308
4453.221749579466,12302.672266871992
4453.244908642802,12027.153009611187
4453.268067826579,11818.584067637017
4453.291227130795,11747.586578392891
4453.314386555451,11997.253815668893
4453.337546100549,12670.54210603112
4453.360705766087,13820.985569336679
4453.3838655520685,14835.425489584672
4453.407025458493,15778.58863387152
4453.430185485361,16882.899388974645
4453.453345632673,17485.303825509905
4453.476505900429,17684.084459696
4453.4996662886315,17715.615499975058
4453.52282679728,17640.166263977353
4453.545987426375,17359.021679105615
4453.569148175917,16942.32240414326
4453.592309045907,16404.465491406034
4453.615470036346,15782.830147681561
4453.638631147233,15518.689923432737
4453.661792378571,15221.530743629717
4453.684953730359,14952.19973581771
4453.708115202598,15167.727216092939
4453.731276795288,15683.822451936601
4453.754438508431,16459.56643278253
4453.777600342027,17256.9248857223
4453.800762296077,18165.379320378313
4453.82392437058,18957.784595043537
4453.847086565538,19423.888601010447
4453.870248880952,19863.81476151324
4453.8934113168225,20022.193566795497
4453.916573873149,20097.331874666183
4453.939736549933,20154.85258025194
4453.962899347174,20306.34633067302
4453.986062264875,20243.015778250254
4454.009225303034,20001.12961457995
4454.032388461654,19349.0283535364
4454.055551740734,18981.91294833848
4454.078715140275,18386.07753779156
4454.101878660277,17558.487625648104
4454.125042300742,16664.455433067305
4454.14820606167,15914.958260307101
4454.171369943061,14783.136794124353
4454.194533944917,13528.241301200665
4454.2176980672375,12374.93375338815
4454.240862310024,11389.557541513124
4454.264026673275,10068.306198905404
4454.287191156994,9134.217858904103
4454.31035576118,8047.575772674228
4454.333520485834,7356.582337068598
4454.356685330957,6949.396292278056
4454.379850296548,6762.220528034399
4454.40301538261,7142.698564568987
4454.426180589142,7487.63600951722
4454.449345916145,8047.10246333521
4454.4725113636205,8607.203768938392
4454.495676931568,9080.673793468244
4454.5188426199875,9211.55680082588
4454.542008428882,8993.286613015982
4454.565174358249,8286.217430889601
4454.588340408092,7559.945284562473
4454.611506578411,6783.863247680711
4454.634672869205,5933.020793007237
4454.657839280476,5226.3722353148205
4454.681005812225,4661.692148670544
4454.704172464451,4175.630551007441
4454.727339237156,3998.5197839979583
4454.750506130341,3936.7806004208646
4454.773673144005,4181.211375237611
4454.79684027815,4564.025097928605
4454.820007532776,4943.388090037741
4454.843174907884,5566.790148769783
4454.866342403473,6267.859294187008
4454.889510019546,6837.7122529515655
4454.912677756102,7343.6471076046
4454.935845613144,7730.006285370191
4454.959013590669,8113.284726119738
4454.982181688681,8452.856143872536
4455.005349907178,8618.157236673844
4455.028518246162,9063.202796820968
4455.051686705633,9723.06314420494
4455.074855285593,10267.48679536245
4455.098023986041,10823.347108914995
4455.121192806979,11384.778415613846
4455.144361748406,11647.239554836631
4455.167530810323,11523.151197266598
4455.190699992732,11352.830897482245
4455.213869295633,11009.724096134265
4455.237038719026,10559.348975088076
4455.260208262912,10277.315502350535
4455.283377927292,10306.012111390788
4455.306547712166,10665.421398832623
4455.329717617535,11283.197742752718
4455.352887643399,12338.403102294804
4455.37605778976,13584.87239841226
4455.399228056617,14850.531907919638
4455.422398443972,15804.22602246112
4455.445568951825,16495.281234197362
4455.468739580177,16892.154683400466
4455.491910329028,17066.37891056886
4455.515081198378,16882.123645049975
4455.538252188229,16573.59474865611
4455.561423298582,15843.100517896683
4455.584594529436,14954.925370460192
4455.607765880793,13936.258538786622
4455.630937352652,12943.34473470855
4455.654108945016,12053.582018864467
4455.677280657883,11177.27906715746
4455.700452491255,10178.920113764949
4455.723624445134,9480.332953012536
4455.746796519518,8385.362821102392
4455.7699687144095,7775.40938845554
4455.793141029808,6865.141053573348
4455.816313465714,6333.131237986618
4455.83948602213,6222.2598456036785
4455.862658699055,6371.878661356991
4455.885831496489,6914.945201147696
4455.909004414434,7927.771078559154
4455.932177452891,9101.20972379942
4455.955350611858,10529.528716715318
4455.978523891339,11953.812971363672
4456.001697291333,13473.762277433305
4456.024870811841,14492.129244474338
4456.048044452862,15251.931111332891
4456.071218214399,15770.827313034191
4456.094392096451,15850.77931931467
4456.117566099019,15873.070583300327
4456.140740222105,15402.238438658493
4456.163914465707,14969.921206191211
4456.187088829828,14177.491084106901
4456.210263314468,13503.579910173994
4456.233437919626,12577.305375673835
4456.256612645306,11669.647584559905
4456.279787491505,10887.434561217924
4456.302962458226,10164.813481901854
4456.326137545469,9704.036856363142
4456.349312753233,9458.430800635158
4456.372488081522,9534.787970880763
4456.395663530333,9910.291075105364
4456.41883909967,10164.142967238296
4456.442014789531,10538.07097883682
4456.465190599917,11064.039578158417
4456.488366530831,11139.70735789156
4456.5115425822705,11041.034112885309
4456.5347187542375,10889.794998073572
4456.557895046733,10686.567391398185
4456.581071459757,10523.883818299844
4456.604247993311,10542.69318192748
4456.627424647395,10976.524995467023
4456.650601422009,11789.252846424013
4456.673778317154,12852.241679548355
4456.696955332832,13958.16306602072
4456.720132469041,15206.168742810158
4456.7433097257845,16141.374551533612
4456.766487103061,16851.15522739102
4456.789664600872,17458.57216875113
4456.8128422192185,17645.058247274672
4456.8360199581,17602.62653861135
4456.859197817518,17206.294315675426
4456.882375797473,16807.223477802207
4456.905553897966,16423.71341036823
4456.928732118997,15988.505407178256
4456.951910460566,15725.979272517732
4456.975088922674,15558.025224497305
4456.998267505323,15300.917529243787
4457.021446208513,15115.232553094387
4457.044625032244,15226.055496172063
4457.067803976516,15483.110107068369
4457.090983041332,15782.200311700908
4457.1141622266905,16181.125042196461
4457.1373415325925,16478.074645384826
4457.160520959039,16400.00700852973
4457.183700506031,16049.933839289897
4457.206880173568,15528.904059461003
4457.230059961651,14903.856405518669
4457.2532398702815,14099.483574785552
4457.27641989946,13129.061294198924
4457.299600049186,12118.498152644908
4457.322780319461,11084.851196739535
4457.345960710286,9981.969208321787
4457.36914122166,8996.466037135951
4457.392321853586,8333.856360333908
4457.415502606062,7833.118039734991
4457.43868347909,7784.238347221435
4457.461864472672,8054.674390647563
4457.485045586805,8615.869105475429
4457.508226821494,9530.777875819607
4457.5314081767365,10520.150674102104
4457.554589652534,11759.244711935906
4457.577771248887,13000.735501591715
4457.600952965797,14270.073019503321
4457.624134803263,15526.536789432443
4457.647316761288,16280.092894113164
4457.67049883987,16892.361395649168
4457.693681039011,17342.02266925006
4457.716863358712,17441.66996372424
4457.7400457989725,17332.430107537122
4457.763228359793,17271.509427949844
4457.7864110411765,17030.441121639156
4457.809593843121,16711.653506313512
4457.832776765628,16328.915761312075
4457.855959808699,15941.475594174326
4457.879142972333,15274.286957738834
4457.902326256532,14453.27187810015
4457.925509661296,13683.619045366828
4457.948693186626,12797.088885452715
4457.971876832522,11794.330183999979
4457.995060598985,11016.894756860129
4458.018244486016,10263.294828242133
4458.041428493615,9456.6225039204
4458.0646126217825,9025.045463848372
4458.08779687052,8843.094503125456
4458.110981239827,8628.742523484463
4458.134165729705,8784.836247355326
4458.157350340155,9062.658939572555
4458.180535071177,9280.703339305765
4458.203719922771,9722.218109229108
4458.226904894938,10039.420713919217
4458.2500899876795,10609.160201517541
4458.273275200995,11035.704763901545
4458.296460534886,11752.674019978655
4458.3196459893525,12599.111819289794
4458.342831564396,13110.930446546103
4458.366017260016,13457.730899074535
4458.389203076214,13518.690316001168
4458.4123890129895,13306.10822062916
4458.435575070344,13145.010019120102
4458.458761248279,13138.15364922274
4458.481947546794,12821.298094709704
4458.505133965889,12863.394480458956
4458.528320505566,13222.99550852488
4458.551507165825,13919.109062341631
4458.574693946666,14882.818730807394
4458.597880848091,15868.535874488993
4458.6210678701,17039.40797277842
4458.644255012693,17726.46118421306
4458.6674422758715,18059.38133598017
4458.690629659636,18254.472576319782
4458.713817163986,18197.57512885574
4458.737004788924,17754.141723738452
4458.76019253445,16886.02183057713
4458.783380400563,16071.028239616799
4458.8065683872655,15062.061086110092
4458.829756494558,14061.030222191672
4458.85294472244,13015.552907511048
4458.876133070914,11863.42419990783
4458.899321539979,10602.729404317319
4458.922510129635,9225.985884417472
4458.945698839884,8134.04812208975
4458.968887670727,6952.207294280837
4458.992076622164,5959.136954536552
4459.015265694195,5004.130891086331
4459.0384548868215,4364.299544385296
4459.061644200044,4128.465410924015
4459.084833633862,4140.679770959296
4459.108023188278,4279.17967143247
4459.131212863292,4652.569018287397
4459.154402658904,5144.024802045908
4459.177592575114,5820.6376501757995
4459.200782611925,6601.184046210839
4459.223972769336,7325.084715214159
4459.247163047347,8229.78734533169
4459.27035344596,8992.326256862843
4459.293543965176,9679.815260444424
4459.316734604993,10230.72948688513
4459.339925365414,10874.789216551784
4459.363116246439,11773.56472976194
4459.386307248069,12958.217499148244
4459.409498370304,14163.850134951223
4459.432689613145,15215.32346162454
4459.455880976592,16347.719123840381
4459.479072460647,16928.18567942754
4459.502264065309,17495.624881130232
4459.52545579058,17790.313417438472
4459.5486476364595,17404.52689124685
4459.571839602949,17264.19047978514
4459.595031690048,16811.60298273964
4459.618223897759,16172.598673553353
4459.641416226081,15475.416384400174
4459.664608675014,14767.54736183057
4459.687801244561,14432.388970112961
4459.710993934721,14117.348421130455
4459.734186745496,13982.247222065542
4459.757379676885,14337.57377986825
4459.780572728889,14923.88193701824
4459.803765901509,15724.864984817226
4459.8269591947455,16439.498389122728
4459.850152608599,17044.349113610228
4459.87334614307,17505.033556885814
4459.89653979816,17846.765744114233
4459.91973357387,17875.47682943854
4459.942927470198,17453.247694184043
4459.966121487147,16849.283516923428
4459.989315624717,16217.27721932954
4460.0125098829085,15269.655845825755
4460.035704261722,14257.229793206086
4460.058898761158,13132.221672618294
4460.082093381218,12114.835942638627
4460.105288121902,10863.377271268613
4460.12848298321,9798.875872973776
4460.151677965145,8809.977546005592
4460.1748730677045,8086.968438182259
4460.198068290891,7647.780152185095
4460.221263634704,7650.153023758919
4460.244459099145,7944.57933131159
4460.267654684215,8623.092756064241
4460.290850389914,9608.182814239977
4460.314046216243,10814.052783410367
4460.337242163202,12210.890920100419
4460.360438230791,13590.428402046422
4460.383634419013,14903.94890952634
4460.406830727867,16208.180470569461
4460.430027157354,17368.90599175556
4460.453223707474,18345.87982153048
4460.476420378228,19068.113580757275
4460.499617169617,19428.22842780063
4460.522814081641,19813.245261032887
4460.5460111143,20048.695880769035
4460.569208267598,20091.229259566888
4460.592405541532,20112.78504587786
4460.615602936104,19959.84512779707
4460.638800451314,19827.327951912896
4460.661998087163,19718.404243974604
4460.685195843652,19575.312739817728
4460.708393720782,19137.435738957178
4460.731591718552,18741.478084970386
4460.754789836965,18551.524026275845
4460.777988076019,18165.81085157889
4460.801186435716,17645.984390587022
4460.824384916057,17339.874670718556
4460.847583517042,17247.866795587528
4460.870782238671,16794.001543398423
4460.893981080947,16055.48673093602
4460.917180043868,15249.706254977751
4460.940379127435,14066.702267599496
4460.963578331651,12997.916126734726
4460.986777656513,11933.607709278993
4461.009977102025,10653.002691526026
4461.033176668186,9503.856441026139
4461.056376354995,8462.954957760305
4461.079576162457,7582.55856836978
4461.102776090568,6967.122390126164
4461.125976139332,6581.514191870536
4461.149176308748,6459.366926746646
4461.172376598816,6498.4222017879965
4461.195577009538,6668.58065143328
4461.218777540915,6819.9884524866875
4461.241978192946,7054.407537107126
4461.265178965633,7465.917811893152
4461.2883798589755,7677.298492988871
4461.311580872974,7668.518593712493
4461.3347820076315,7681.62852999655
4461.357983262946,7409.198011112108
4461.381184638919,6997.8373946343545
4461.404386135551,6636.1980102662765
4461.4275877528435,6237.131455624278
4461.4507894907965,5992.0573153538435
4461.4739913494095,5908.9834506952075
4461.497193328685,5623.471922556701
4461.520395428623,5364.720325952849
4461.543597649224,5168.888403615175
4461.566799990488,4920.516091604569
4461.590002452416,4544.7891532316935
4461.61320503501,4334.65093183176
4461.636407738269,4430.007713169959
4461.659610562193,4720.979816866183
4461.682813506784,5278.989642576996
4461.706016572044,6016.984437697588
4461.729219757971,6937.176476918576
4461.752423064566,7683.723372523691
4461.775626491831,8605.149867752903
4461.798830039766,9115.398017692001
4461.82203370837,9414.897747170477
4461.845237497647,9460.571920650977
4461.868441407595,9239.510664776535
4461.891645438215,8843.676029327353
4461.914849589509,8272.12418878451
4461.938053861475,7694.390277197897
4461.961258254117,7472.02564293207
4461.984462767433,7537.00351449822
4462.007667401424,7922.896670316478
4462.030872156092,8486.459986304144
4462.0540770314365,9342.818685960885
4462.077282027459,10279.241026482314
4462.100487144158,11199.458330717569
4462.123692381537,11918.80218225761
4462.146897739594,12676.91317165
4462.170103218332,12946.715176780108
4462.19330881775,13002.823992183854
4462.21651453785,12837.486673674885
4462.239720378631,12663.656674807591
4462.262926340095,12344.660019175724
4462.286132422241,12182.108124304545
4462.309338625071,11654.551140550137
4462.3325449485865,11073.244520412358
4462.355751392785,10487.751114335011
4462.3789579576705,10093.351503899312
4462.402164643242,9989.933430903171
4462.4253714495,10211.94400490438
4462.448578376446,10675.481620722574
4462.471785424079,11509.820243289794
4462.494992592401,12610.987989240686
4462.518199881412,14004.940898751938
4462.541407291114,15227.44368114079
4462.564614821506,16182.818243310236
4462.587822472589,16882.710784900173
4462.611030244365,17291.10346818509
4462.634238136832,17394.59179749
4462.657446149992,17308.630603105703
