wave,flux
5000.025812696027,16936.708061685153
5000.051815424163,16316.239673938539
5000.0778182875265,15651.361235467519
5000.103821286119,14937.64542350191
5000.12982441994,14288.247455423412
5000.155827688991,13476.05603077865
5000.181831093272,12608.866073636369
5000.207834632784,11984.838975726325
5000.2338383075285,11250.414014620988
5000.259842117506,10618.1713968583
5000.285846062716,10308.360850074483
5000.311850143161,10137.885782174213
5000.33785435884,10182.830099547611
5000.363858709754,10533.592943647604
5000.389863195905,11045.463609448276
5000.415867817292,11877.44459169578
5000.441872573917,12521.140266535642
5000.4678774657805,13167.542834017362
5000.493882492882,13797.742780097815
5000.519887655224,14396.251632756124
5000.545892952806,14681.667757503143
5000.571898385629,14657.993503098522
5000.597903953694,14573.389924100153
5000.623909657001,14264.051467222665
5000.649915495552,13963.76356236865
5000.675921469346,13600.14424187932
5000.701927578384,13115.109906091788
5000.727933822669,12890.325192643144
5000.7539402021985,12722.1527856159
5000.779946716975,12711.694186496788
5000.805953366999,13020.434112580466
5000.831960152272,13391.980991254477
5000.857967072792,13468.278649181895
5000.883974128563,13747.213955644902
5000.9099813195835,14012.20903204419
5000.935988645855,14168.686240541478
5000.961996107378,14321.585345008642
5000.988003704153,14511.41662203511
5001.014011436181,14911.137520272032
5001.040019303464,15370.422920655954
5001.066027306,15942.10065545535
5001.092035443791,16177.788471995287
5001.118043716839,16614.091192845706
5001.1440521251425,16843.865619860848
5001.170060668704,16927.568330303686
5001.196069347523,16800.531346739306
5001.222078161601,16723.53222193257
5001.248087110937,16619.89964085328
5001.274096195534,16432.659335028562
5001.300105415392,16227.944628476107
5001.326114770512,16019.576823031239
5001.352124260892,15848.884799449943
5001.3781338865365,15593.901926575445
5001.4041436474445,15218.911315635352
5001.430153543616,14977.584096617667
5001.456163575053,14751.514983641038
5001.482173741756,14387.338671199434
5001.508184043724,14199.357325425599
5001.534194480961,13879.59589039237
5001.560205053464,13623.412487019737
5001.586215761236,13476.45033610928
5001.612226604278,12883.653787381865
5001.638237582589,12528.901923139503
5001.664248696171,11806.715760244519
5001.690259945024,10953.206246865
5001.716271329149,10234.661088699118
5001.742282848547,9363.817714589042
5001.768294503218,8456.399682793955
5001.794306293164,7846.6329204669655
5001.820318218383,7487.608898633153
5001.84633027888,7355.748806490511
5001.872342474651,7632.473405701636
5001.8983548056995,8368.326403422374
5001.924367272026,9397.896875367314
5001.9503798736305,10605.864692966665
5001.976392610514,11873.562410935861
5002.002405482678,13126.29906585388
5002.028418490122,14412.481824380946
5002.054431632847,15509.422048888142
5002.080444910854,16242.222631075354
5002.106458324142,16782.537689682307
5002.1324718727155,17196.878465361802
5002.158485556572,17500.460255380425
5002.184499375713,17706.488896986408
5002.210513330139,17760.9757737721
5002.236527419852,17815.189301657334
5002.262541644852,17876.894247897533
5002.288556005138,17735.320673579932
5002.314570500714,17696.280599176338
5002.340585131577,17506.852660046636
5002.36659989773,17174.77244310554
5002.392614799174,17025.124390535155
5002.418629835909,16743.40281128112
5002.444645007936,16481.67943039985
5002.4706603152545,16055.600980209661
5002.496675757866,15581.388748994064
5002.522691335772,15044.70562897647
5002.548707048972,14486.289344570421
5002.574722897468,13937.266048654992
5002.600738881259,13281.716475192303
5002.626755000347,12602.103756878301
5002.652771254732,12007.392418208581
5002.678787644415,11486.170537478953
5002.704804169397,11073.627001006895
5002.730820829678,10668.436957313237
5002.75683762526,10408.393598199698
5002.782854556142,10546.0470307534
5002.8088716223265,10952.535940197597
5002.834888823812,11685.439769564466
5002.860906160601,12660.146158716761
5002.886923632695,13675.900381165724
5002.912941240092,14704.865393479315
5002.938958982793,15837.394671439935
5002.9649768608015,16760.111528103596
5002.990994874116,17083.15206935326
5003.017013022737,17540.40547072248
5003.043031306666,18085.501425117473
5003.069049725905,18104.267132496738
5003.095068280452,18059.17346264175
5003.121086970309,18215.680500955015
5003.147105795477,18248.865303100916
5003.173124755956,18300.541073817054
5003.199143851748,18139.603386116683
5003.225163082852,18117.590468462186
5003.251182449269,18022.53221472439
5003.277201951001,18144.187292244667
5003.3032215880485,18030.998664990537
5003.32924136041,18051.574139647622
5003.35526126809,17773.483144005935
5003.381281311085,17847.080035358267
5003.407301489398,17690.076791724256
5003.433321803031,17601.86232912365
5003.459342251982,17452.707787802934
5003.4853628362525,17131.494144646542
5003.511383555844,16870.000157972154
5003.537404410757,16538.844303368813
5003.563425400991,16215.636999719974
5003.589446526548,16040.349434281106
5003.615467787429,15654.629343957238
5003.641489183634,15103.00898083699
5003.667510715163,14751.09666402179
5003.693532382018,14361.26829555128
5003.719554184199,13790.251883062147
5003.745576121707,13865.706687036047
5003.771598194542,13967.199472096036
5003.797620402706,14062.436684851325
5003.823642746199,14298.113055018675
5003.849665225021,14608.220795361613
5003.875687839174,14589.952657530857
5003.901710588658,14542.941850545552
5003.927733473473,14386.152788314075
5003.953756493622,14095.100296848086
5003.979779649103,13860.594998244973
5004.005802939919,13650.806968748684
5004.031826366068,13496.625592909066
5004.057849927553,13505.598198323376
5004.083873624375,13775.396729578562
5004.109897456533,14073.880781255895
5004.135921424028,14743.785615146056
5004.161945526862,15281.799345027914
5004.187969765035,15426.098426732475
5004.213994138547,15924.497776067446
5004.240018647399,16073.56377011741
5004.266043291592,16279.127922446092
5004.292068071127,16179.71415532087
5004.318092986004,16301.812317032998
5004.344118036223,16608.928311255862
5004.370143221788,16731.641389932876
5004.396168542696,16914.68419530419
5004.422193998949,17098.618684863774
5004.448219590549,17309.63940518881
5004.474245317495,17710.628700795154
5004.500271179789,17912.913219833772
5004.52629717743,17935.97534797671
5004.5523233104195,18071.304583715846
5004.578349578759,18179.710918913413
5004.604375982449,18262.44799583324
5004.630402521489,18153.38850022835
5004.656429195881,17977.233618257644
5004.682456005625,17783.83798927278
5004.708482950721,17695.85612232307
5004.734510031172,17534.970111339095
5004.760537246977,17407.330643632427
5004.7865645981365,17070.371648739816
5004.812592084652,16737.33460088683
5004.838619706525,16352.782532059613
5004.8646474637535,15864.444535287532
5004.890675356341,15433.929340354265
5004.916703384286,15095.972779306596
5004.942731547591,14677.109278861708
5004.968759846256,14105.469468511285
5004.994788280281,13555.584814520213
5005.020816849668,13124.737520979485
5005.046845554417,12663.351547558746
5005.072874394528,12021.079438907935
5005.098903370003,11680.63525623926
5005.124932480842,11373.623605044178
5005.150961727047,10989.200446582674
5005.176991108617,11189.884674512017
5005.203020625552,11841.833710082787
5005.229050277856,12379.714687144493
5005.255080065526,13320.915135352243
5005.281109988566,14103.526148701716
5005.3071400469735,14810.578181185596
5005.333170240751,15249.577678464844
5005.3592005699,15322.142678856619
5005.38523103442,15126.635910961133
5005.411261634312,14778.574737742396
5005.4372923695755,14295.513158208201
5005.463323240213,13548.299526694846
5005.489354246225,12697.949894349998
5005.515385387611,11898.48979244595
5005.541416664373,11127.095520481846
5005.567448076511,10328.03888316522
5005.593479624025,9352.149673726488
5005.619511306918,8677.841862841113
5005.645543125189,7950.802825196962
5005.671575078838,7457.275063863506
5005.697607167867,7284.157838995438
5005.723639392277,7239.693041974055
5005.749671752068,7544.032490645221
5005.77570424724,7934.543716186282
5005.8017368777955,8500.957661402492
5005.8277696437335,9097.821830358076
5005.853802545055,9378.256508802904
5005.879835581762,9528.794636302957
5005.905868753854,9435.811204717365
5005.931902061331,8992.169202700477
5005.957935504196,8421.607252707005
5005.983969082448,7773.2946960581285
5006.010002796088,7213.409651706052
5006.036036645117,6586.050127792883
5006.062070629536,6123.697720468242
5006.088104749344,6114.725676586578
5006.114139004544,6214.956667098365
5006.140173395135,6740.520131916715
5006.166207921118,7703.129076543805
5006.192242582495,8730.992047054562
5006.218277379266,10069.276361333168
5006.244312311431,11483.541820440212
5006.270347378991,12860.576186852439
5006.296382581946,14020.032922581604
5006.322417920299,15111.835983908219
5006.348453394048,16034.653799041373
5006.374489003196,16561.34215075169
5006.400524747743,17061.652251798
5006.426560627688,17429.444028032667
5006.452596643034,17469.81009913049
5006.47863279378,17568.781339435605
5006.504669079928,17666.358258052824
5006.530705501478,17634.162713366804
5006.556742058431,17567.10275655309
5006.582778750788,17470.286630125516
5006.608815578549,17440.409407364677
5006.634852541715,17385.16550462102
5006.660889640287,17420.43407752146
5006.686926874265,17633.91804440845
5006.71296424365,17456.371508865916
5006.739001748444,17488.831531155272
5006.765039388645,17218.904087947893
5006.791077164256,17030.023205715064
5006.817115075277,16952.29023841219
5006.843153121708,16683.408993666115
5006.869191303552,16272.452062468901
5006.895229620806,15812.409732735863
5006.921268073474,15140.272748879215
5006.947306661555,14504.667189341553
5006.97334538505,13732.019098725457
5006.999384243961,12743.360006404537
5007.025423238286,11921.788597912577
5007.051462368028,10961.166275369631
5007.077501633187,9953.350489012624
5007.103541033764,9006.202799930059
5007.129580569759,8185.306340276295
5007.155620241173,7422.183072351014
5007.181660048007,6860.1564056596335
5007.207699990262,6734.01589110351
5007.233740067937,6709.298330507467
5007.259780281035,7231.536013784099
5007.285820629555,8045.664078569823
5007.311861113499,8979.220223313574
5007.337901732866,10347.79484795275
5007.363942487658,11708.02953919613
5007.389983377876,12990.30535683191
5007.41602440352,14183.207652143035
5007.442065564591,15231.972050705974
5007.468106861089,16007.190785890178
5007.494148293015,16453.678542909296
5007.520189860371,16659.13098877609
5007.546231563156,16766.762334977357
5007.572273401372,16778.211952411904
5007.598315375018,16689.955106421956
5007.624357484096,16646.401332137
5007.650399728607,16424.090085919262
5007.676442108551,16200.019835359306
5007.702484623929,16246.489500742837
5007.728527274741,16359.39467511952
5007.754570060989,16754.1192928291
5007.780612982673,16832.524999795445
5007.806656039793,17251.753587475923
5007.832699232351,17565.295890083973
5007.858742560347,17894.536437316638
5007.884786023782,18276.129657190086
5007.910829622656,18457.918890758287
5007.936873356971,18558.725378927677
5007.962917226726,18646.57130464985
5007.988961231923,18698.522272723603
5008.015005372563,18773.980450844992
5008.041049648646,18787.819221496942
5008.067094060171,18852.267498190413
5008.0931386071425,18981.87920113822
5008.119183289558,18954.967325724676
5008.14522810742,18919.342014102738
5008.171273060728,18973.272567814438
5008.197318149483,19005.63901607073
5008.223363373687,19127.359915974204
5008.249408733339,19202.1656604203
5008.27545422844,19187.02914633665
5008.301499858992,18922.442839454532
5008.327545624995,19030.47904586554
5008.353591526448,19046.789636788457
5008.379637563355,18688.34854318672
5008.405683735714,18745.527157375676
5008.431730043527,18748.520289705357
5008.457776486794,18550.436852978968
5008.483823065515,18444.038749852993
5008.509869779693,18282.457994877423
5008.535916629327,18015.15212064083
5008.561963614418,17975.50429602165
5008.588010734968,17821.591335527923
5008.614057990975,17655.189853134605
5008.640105382442,17600.45358115761
5008.666152909369,17738.488547177305
5008.692200571756,17999.705115943925
5008.718248369605,18121.708954994705
5008.744296302916,18323.3091163507
5008.77034437169,18560.304140080912
5008.796392575927,18724.190995783192
5008.822440915628,18848.63447148732
5008.848489390794,18824.98418726494
5008.874538001426,19183.298226013743
5008.900586747524,19092.251254968272
5008.926635629089,18910.483860366625
5008.952684646122,18827.571953199713
5008.978733798623,18989.91283155983
5009.004783086593,19065.941334304298
5009.030832510033,19062.685785214446
5009.056882068944,18995.088436314534
5009.082931763326,18873.580136689256
5009.108981593179,18847.780102655775
5009.135031558506,18961.97989616763
5009.161081659306,18930.187183169564
5009.187131895579,18868.64835097485
5009.213182267327,18858.542272126222
5009.239232774552,18934.442077407377
5009.265283417251,18816.621887211066
5009.291334195428,18615.905111979464
5009.317385109083,18476.429681972702
5009.343436158216,18250.05103317946
5009.369487342828,18098.46255897381
5009.395538662919,17830.495419895364
5009.421590118491,17548.244039344856
5009.447641709544,17331.905976029248
5009.473693436078,17060.109491955154
5009.499745298095,16795.533166921992
5009.525797295596,16620.925243883914
5009.55184942858,16378.657786693346
5009.577901697049,16149.537091655497
5009.603954101003,15897.670628033793
5009.630006640443,15844.577833721678
5009.65605931537,15876.066255168955
5009.682112125784,16080.832804007261
5009.708165071686,16362.543507753804
5009.7342181530785,16560.250528105895
5009.760271369959,16629.750575822844
5009.78632472233,16933.61186506672
5009.812378210192,16783.361048521336
5009.838431833546,16396.16538476584
5009.864485592391,16037.380737301859
5009.890539486731,15578.73592869281
5009.916593516564,14972.609238241792
5009.942647681891,14285.007821427333
5009.968701982713,13682.765980265187
5009.994756419032,13103.8698080581
5010.020810990847,12525.24137129208
5010.046865698159,12047.687945559055
5010.072920540969,11788.156959142438
5010.098975519279,11724.585580964653
5010.125030633087,11552.902102010827
5010.151085882395,11609.114920086142
5010.177141267204,11847.48257947669
5010.2031967875155,12067.708389604308
5010.229252443328,12268.246045771115
5010.255308234644,12985.341039298206
5010.281364161464,13756.822452813476
5010.307420223788,14673.836842277467
5010.333476421617,15699.408194741232
5010.359532754951,16551.01187846762
5010.3855892237925,17155.809902244127
5010.4116458281405,17756.443567599552
5010.437702567997,18087.07410675838
5010.463759443362,18504.358738441522
5010.489816454236,18734.22753781637
5010.51587360062,18778.197174110075
5010.541930882514,18765.091954380227
5010.56798829992,18703.118789097487
5010.5940458528385,18459.156964962116
5010.62010354127,18147.020594999907
5010.646161365214,17907.945407019914
5010.672219324672,17604.7767194999
5010.698277419646,17327.220223588854
5010.724335650135,16912.888190847007
5010.7503940161405,16390.741809974814
5010.7764525176635,15760.924886137442
5010.802511154703,15109.494927618096
5010.828569927262,14753.235937814743
5010.85462883534,14249.050125611844
5010.880687878937,13826.905118515448
5010.906747058056,13855.68381761466
5010.932806372695,13792.680808558966
5010.958865822856,14187.426969683755
5010.98492540854,14588.886216366614
5011.0109851297475,15512.668518088489
5011.0370449864795,16245.286734635682
5011.063104978735,17020.1632586093
5011.089165106517,17653.258030703022
5011.115225369825,17987.20231378984
5011.14128576866,18307.983803900574
5011.167346303022,18615.10162412434
5011.193406972913,18759.763126140617
5011.219467778333,18860.827248797777
5011.2455287192815,18833.89502033697
5011.271589795761,18863.02708650684
5011.297651007772,18915.01721447211
5011.323712355315,18927.494625645482
5011.34977383839,18924.832893002113
5011.375835456999,18760.113801049174
5011.401897211142,18674.585061731857
5011.427959100819,18594.552930320096
5011.454021126031,18438.059228502032
5011.4800832867795,18324.38083857569
5011.506145583065,17974.59224825477
5011.532208014888,17684.83573413227
5011.558270582248,17310.066690339972
5011.584333285148,16953.062145546774
5011.610396123588,16698.741323160986
5011.636459097567,16119.116446988435
5011.662522207088,15470.882793011126
5011.68858545215,14904.35251359822
5011.714648832754,14333.355547906174
5011.740712348902,13856.368960935253
5011.766776000594,13201.41485628962
5011.79283978783,12369.248538383976
5011.818903710611,11723.929305848718
5011.844967768939,11091.702496917622
5011.871031962813,10352.287667843239
5011.897096292234,9364.922616351367
5011.923160757203,8425.243415879626
5011.949225357721,7572.968380760492
5011.975290093788,6717.272745871765
5012.001354965406,5979.131437520817
5012.027419972574,5492.687831815343
5012.053485115294,5348.599271730933
5012.079550393566,5528.184111977423
5012.105615807392,5941.490601567575
5012.13168135677,6590.671288075023
5012.157747041703,7447.350344278259
5012.183812862192,8394.608336068453
5012.209878818236,9390.603448231901
5012.235944909837,10317.12169876803
5012.262011136994,11009.50352716784
5012.28807749971,11606.77513852168
5012.3141439979845,12048.020452375724
5012.340210631818,12021.85767692132
5012.366277401212,11946.753919097484
5012.392344306166,11811.409892781048
5012.418411346682,11562.237235953186
5012.44447852276,11593.65209310807
5012.470545834401,11823.683275047753
5012.496613281605,12258.359382902327
5012.522680864374,12816.946313175025
5012.548748582707,13266.102438167398
5012.574816436606,13883.150181352994
5012.600884426071,14287.751347668993
5012.626952551104,14468.766342196619
5012.653020811705,14724.671868629395
5012.679089207873,14961.018794683523
5012.705157739611,15048.881007632359
5012.73122640692,15358.83075034054
5012.757295209798,16027.607494917871
5012.7833641482475,16517.653411339492
5012.80943322227,17052.29985579153
5012.835502431864,17655.50216065228
5012.861571777033,18062.755618983363
5012.887641257775,18181.355884902277
5012.9137108740915,18083.686956409143
5012.939780625984,18025.29297319944
5012.965850513452,17895.338882331907
5012.991920536498,17758.93904444039
5013.017990695121,17522.381372668
5013.044060989323,17032.27548395409
5013.070131419104,16547.116180888454
5013.096201984464,15968.579577278602
5013.122272685405,15339.796983221022
5013.148343521927,14693.946333823691
5013.17441449403,14166.950108043537
5013.200485601717,13402.648315410568
5013.226556844987,12783.911702623716
5013.2526282238405,12322.127592888402
5013.278699738279,11854.036540895813
5013.304771388303,11601.575556527296
5013.330843173913,11502.862576720763
5013.35691509511,11730.655822285233
5013.382987151894,12099.41619815321
5013.409059344267,12138.982243014798
5013.435131672228,12333.86316240265
5013.46120413578,12357.403532721257
5013.487276734921,12070.024172793861
5013.513349469653,11513.11863885794
5013.539422339977,10992.680629172768
5013.565495345894,10352.384297340359
5013.5915684874035,9605.26045692749
5013.617641764507,9145.499489595799
5013.643715177206,8618.303490176888
5013.6697887254995,8415.376081622764
5013.695862409389,8672.461469438582
5013.721936228875,9054.794890214596
5013.748010183958,9777.191263187087
5013.77408427464,10747.45690299997
5013.800158500921,11635.15039993477
5013.826232862801,12528.989088203443
5013.852307360281,13232.869500180888
5013.8783819933615,13518.910082450671
5013.904456762045,13703.994465541951
5013.930531666329,13609.69722433723
5013.956606706218,13402.134918160726
5013.982681881709,12951.546687554535
5014.008757192805,12341.602307598738
5014.034832639507,11757.327509213499
5014.060908221814,10976.797048478478
5014.086983939728,10100.27033966498
5014.113059793249,9098.515707825263
5014.139135782378,8325.29763412574
5014.165211907116,7614.270881257265
5014.1912881674625,7162.661521918385
