wave,flux
5000.025812696027,12041.000080879503
5000.051815424163,11670.65396436722
5000.0778182875265,11243.436737386743
5000.103821286119,10619.053557824003
5000.12982441994,10050.298783944329
5000.155827688991,9581.773873797743
5000.181831093272,9039.839320078254
5000.207834632784,8503.811925889051
5000.2338383075285,7969.161484977524
5000.259842117506,7681.8305090595
5000.285846062716,7358.350143170655
5000.311850143161,7311.401156706913
5000.33785435884,7332.347926931575
5000.363858709754,7482.2290216088695
5000.389863195905,7806.455818756966
5000.415867817292,8435.547682734703
5000.441872573917,8970.641733811004
5000.4678774657805,9540.582784990886
5000.493882492882,10002.955437579882
5000.519887655224,10274.779563549366
5000.545892952806,10598.479512395525
5000.571898385629,10676.090398719354
5000.597903953694,10408.217628355287
5000.623909657001,10265.090981597657
5000.649915495552,9992.561100297853
5000.675921469346,9698.218057319782
5000.701927578384,9231.49106743981
5000.727933822669,9176.928572872748
5000.7539402021985,9110.778532559476
5000.779946716975,9208.018862400406
5000.805953366999,9314.799384152459
5000.831960152272,9500.957842309714
5000.857967072792,9812.369455132231
5000.883974128563,9892.239932152974
5000.9099813195835,10023.388638010987
5000.935988645855,10234.130939119028
5000.961996107378,10320.541241415995
5000.988003704153,10418.784747917134
5001.014011436181,10657.448761321053
5001.040019303464,11095.421100116502
5001.066027306,11412.868709071712
5001.092035443791,11635.757583536846
5001.118043716839,11867.603328653313
5001.1440521251425,11959.051695190434
5001.170060668704,11984.663561064379
5001.196069347523,12099.132081821215
5001.222078161601,11943.332665427486
5001.248087110937,11749.06030106559
5001.274096195534,11698.233939441525
5001.300105415392,11565.58036886598
5001.326114770512,11451.860240529837
5001.352124260892,11315.47621995405
5001.3781338865365,11133.206517133975
5001.4041436474445,10986.222877361346
5001.430153543616,10769.113643780072
5001.456163575053,10605.928520215151
5001.482173741756,10266.760323420369
5001.508184043724,10166.580961506636
5001.534194480961,10014.60540712255
5001.560205053464,9823.945411260649
5001.586215761236,9615.252698959173
5001.612226604278,9230.889576877771
5001.638237582589,8882.787901273972
5001.664248696171,8421.097816425547
5001.690259945024,7758.440932678671
5001.716271329149,7123.869440530184
5001.742282848547,6601.94598170189
5001.768294503218,6070.688430283284
5001.794306293164,5553.284744885891
5001.820318218383,5317.793111160508
5001.84633027888,5377.136264481046
5001.872342474651,5511.754262802001
5001.8983548056995,6029.00900141178
5001.924367272026,6681.748987244299
5001.9503798736305,7505.284685710197
5001.976392610514,8534.758599576924
5002.002405482678,9590.273573836024
5002.028418490122,10358.477050602343
5002.054431632847,11156.634648488982
5002.080444910854,11683.496896455961
5002.106458324142,12077.770935123543
5002.1324718727155,12415.196321095886
5002.158485556572,12587.061511566146
5002.184499375713,12701.22577933938
5002.210513330139,12810.921295564152
5002.236527419852,12843.280032657476
5002.262541644852,12740.568078759996
5002.288556005138,12591.47516862119
5002.314570500714,12649.877609386198
5002.340585131577,12380.08227743811
5002.36659989773,12459.271363941361
5002.392614799174,12154.703446526242
5002.418629835909,11940.458859983573
5002.444645007936,11700.852652230753
5002.4706603152545,11365.431662834942
5002.496675757866,11045.176330825545
5002.522691335772,10736.917582042412
5002.548707048972,10267.557140390601
5002.574722897468,9790.711169644894
5002.600738881259,9461.493222036457
5002.626755000347,9088.432191717835
5002.652771254732,8652.401355967046
5002.678787644415,8252.83302718504
5002.704804169397,7842.951342853185
5002.730820829678,7629.457504958918
5002.75683762526,7573.243006671405
5002.782854556142,7497.156212594305
5002.8088716223265,7778.1046035738855
5002.834888823812,8351.519377708899
5002.860906160601,9095.398406900096
5002.886923632695,9966.23897065182
5002.912941240092,10730.516034821465
5002.938958982793,11451.609641645824
5002.9649768608015,12011.443651722198
5002.990994874116,12478.8551126285
5003.017013022737,12839.868672860903
5003.043031306666,12970.299006436679
5003.069049725905,12960.737500940193
5003.095068280452,13090.159930160877
5003.121086970309,13159.545999084628
5003.147105795477,12993.359089669204
5003.173124755956,13111.091141591916
5003.199143851748,13061.518900810584
5003.225163082852,13054.899351522308
5003.251182449269,12991.798377628622
5003.277201951001,12858.682785827814
5003.3032215880485,12944.007559631304
5003.32924136041,12835.48749410959
5003.35526126809,12665.828738651358
5003.381281311085,12648.073361649123
5003.407301489398,12633.35239596307
5003.433321803031,12637.805527381583
5003.459342251982,12525.324863689351
5003.4853628362525,12315.078468939191
5003.511383555844,12076.377843001197
5003.537404410757,11842.277564337553
5003.563425400991,11660.010795220653
5003.589446526548,11425.267644963535
5003.615467787429,11206.84368655182
5003.641489183634,10975.686787392306
5003.667510715163,10591.452247670715
5003.693532382018,10330.248974134867
5003.719554184199,10077.878344482697
5003.745576121707,10092.865957919765
5003.771598194542,10018.805964310115
5003.797620402706,10066.147203984334
5003.823642746199,10206.466688532704
5003.849665225021,10332.945714493757
5003.875687839174,10406.825462968929
5003.901710588658,10274.158331701417
5003.927733473473,10122.835369845725
5003.953756493622,10071.33253348653
5003.979779649103,9911.63524259009
5004.005802939919,9737.93312138789
5004.031826366068,9703.298187815182
5004.057849927553,9681.037788950265
5004.083873624375,9872.6064504528
5004.109897456533,10299.231401670304
5004.135921424028,10529.203712622299
5004.161945526862,10966.137570084127
5004.187969765035,11182.747247420031
5004.213994138547,11347.034711315966
5004.240018647399,11582.81404054119
5004.266043291592,11586.073972023049
5004.292068071127,11647.438161573133
5004.318092986004,11746.295747689732
5004.344118036223,11757.58966023862
5004.370143221788,11839.960781822241
5004.396168542696,12039.910304004181
5004.422193998949,12309.115688093465
5004.448219590549,12492.979539023245
5004.474245317495,12545.266111063744
5004.500271179789,12741.56714392412
5004.52629717743,13025.849975951753
5004.5523233104195,13050.029073301785
5004.578349578759,12931.337458279499
5004.604375982449,12905.049815100188
5004.630402521489,12927.629216349176
5004.656429195881,13070.066682834085
5004.682456005625,12775.81432177079
5004.708482950721,12825.841422769083
5004.734510031172,12567.586284707328
5004.760537246977,12453.015242123063
5004.7865645981365,12254.638950898441
5004.812592084652,12119.24436382809
5004.838619706525,11896.89916165843
5004.8646474637535,11472.061676215602
5004.890675356341,11182.678776523377
5004.916703384286,10838.107915938632
5004.942731547591,10449.435063374607
5004.968759846256,10200.338026527761
5004.994788280281,9772.658605178753
5005.020816849668,9433.970597737529
5005.046845554417,9005.122693030895
5005.072874394528,8593.120455610939
5005.098903370003,8211.949670123591
5005.124932480842,8034.384620672934
5005.150961727047,7901.442255639719
5005.176991108617,8146.5406401820455
5005.203020625552,8419.598544786959
5005.229050277856,9003.553298715759
5005.255080065526,9612.42868645904
5005.281109988566,10223.581530026371
5005.3071400469735,10744.163974986537
5005.333170240751,10992.74936154204
5005.3592005699,11024.115243720293
5005.38523103442,10850.028497808978
5005.411261634312,10598.804774726794
5005.4372923695755,10229.973612360034
5005.463323240213,9688.59089022499
5005.489354246225,9146.894392150642
5005.515385387611,8454.447341843359
5005.541416664373,7958.1424227182215
5005.567448076511,7340.666844702134
5005.593479624025,6696.384498530248
5005.619511306918,6156.173182374379
5005.645543125189,5706.187898823613
5005.671575078838,5367.134911365672
5005.697607167867,5149.09195770762
5005.723639392277,5248.241607843577
5005.749671752068,5439.9540793745955
5005.77570424724,5817.229348830311
5005.8017368777955,6179.248279067076
5005.8277696437335,6532.471851152161
5005.853802545055,6805.280025342542
5005.879835581762,6863.141734429031
5005.905868753854,6708.99564924456
5005.931902061331,6391.326378789882
5005.957935504196,6023.027682318107
5005.983969082448,5580.7338387972195
5006.010002796088,5068.217159427099
5006.036036645117,4737.118739754136
5006.062070629536,4441.011448590264
5006.088104749344,4408.848068945911
5006.114139004544,4472.647753230859
5006.140173395135,4826.603569766809
5006.166207921118,5560.618514238482
5006.192242582495,6421.9769933714
5006.218277379266,7277.775338244587
5006.244312311431,8297.862164347443
5006.270347378991,9382.69516816647
5006.296382581946,10249.367198703078
5006.322417920299,10929.405738556929
5006.348453394048,11564.188074201744
5006.374489003196,11960.531715825446
5006.400524747743,12308.59582285247
5006.426560627688,12527.876227493618
5006.452596643034,12496.965575092037
5006.47863279378,12602.261975995392
5006.504669079928,12677.985900516864
5006.530705501478,12610.951884936443
5006.556742058431,12650.91889853804
5006.582778750788,12532.514084345752
5006.608815578549,12518.509817675871
5006.634852541715,12568.787574313628
5006.660889640287,12609.455887840528
5006.686926874265,12567.865558474834
5006.71296424365,12476.125967645157
5006.739001748444,12442.120614332183
5006.765039388645,12330.651254017865
5006.791077164256,12300.123985776507
5006.817115075277,12082.54694440075
5006.843153121708,11865.37675888985
5006.869191303552,11578.341325610441
5006.895229620806,11185.037509971951
5006.921268073474,10794.289814250064
5006.947306661555,10318.049388648136
5006.97334538505,9708.791734828204
5006.999384243961,9045.16523429144
5007.025423238286,8414.35916380613
5007.051462368028,7838.982971147736
5007.077501633187,7155.407012824268
5007.103541033764,6396.660425033903
5007.129580569759,5803.530222564444
5007.155620241173,5332.587217713228
5007.181660048007,4885.842726259405
5007.207699990262,4776.333285913925
5007.233740067937,4840.470635346154
5007.259780281035,5145.445819798892
5007.285820629555,5818.022981407022
5007.311861113499,6556.970199840919
5007.337901732866,7431.081076662883
5007.363942487658,8418.3690509227
5007.389983377876,9332.76620040026
5007.41602440352,10208.652391243699
5007.442065564591,10970.459302184323
5007.468106861089,11449.68745724206
5007.494148293015,11794.611775633477
5007.520189860371,12016.43706983237
5007.546231563156,12074.643468409911
5007.572273401372,12018.990595459749
5007.598315375018,11895.001360435273
5007.624357484096,11944.164137770542
5007.650399728607,11823.165338407704
5007.676442108551,11612.014050947912
5007.702484623929,11607.310724132769
5007.728527274741,11728.61264026915
5007.754570060989,11896.287486100224
5007.780612982673,12066.41743326795
5007.806656039793,12378.498830973198
5007.832699232351,12689.193037853584
5007.858742560347,13006.812342848903
5007.884786023782,13165.753660328452
5007.910829622656,13264.794055534376
5007.936873356971,13396.95014273621
5007.962917226726,13503.982954311008
5007.988961231923,13561.00771818398
5008.015005372563,13533.892859011361
5008.041049648646,13464.210393313006
5008.067094060171,13509.360348042663
5008.0931386071425,13532.626949946029
5008.119183289558,13531.082827573136
5008.14522810742,13692.701958277252
5008.171273060728,13737.74942596463
5008.197318149483,13629.032645455292
5008.223363373687,13664.423886169643
5008.249408733339,13788.353567255777
5008.27545422844,13667.151624389606
5008.301499858992,13679.974234456744
5008.327545624995,13719.771461045564
5008.353591526448,13658.659626399474
5008.379637563355,13562.557365390721
5008.405683735714,13558.733652014937
5008.431730043527,13349.585543571437
5008.457776486794,13296.555284530936
5008.483823065515,13252.219269164663
5008.509869779693,13052.98929692678
5008.535916629327,12859.22122169774
5008.561963614418,12814.778039046443
5008.588010734968,12702.115116559467
5008.614057990975,12776.792033493224
5008.640105382442,12865.474135986122
5008.666152909369,12755.3916854799
5008.692200571756,12838.635792312762
5008.718248369605,13032.764548705021
5008.744296302916,13127.10233590574
5008.77034437169,13319.302748795059
5008.796392575927,13463.102063471613
5008.822440915628,13428.761505874134
5008.848489390794,13613.213141148788
5008.874538001426,13604.599196170217
5008.900586747524,13555.228794990111
5008.926635629089,13529.496062048747
5008.952684646122,13580.847826814608
5008.978733798623,13612.213668344873
5009.004783086593,13552.452724276165
5009.030832510033,13657.584601626517
5009.056882068944,13645.7676147978
5009.082931763326,13614.835317569083
5009.108981593179,13628.29573619297
5009.135031558506,13662.08559832089
5009.161081659306,13655.66067713127
5009.187131895579,13538.553112999898
5009.213182267327,13490.055050549505
5009.239232774552,13408.862351532127
5009.265283417251,13380.54229704547
5009.291334195428,13340.565202058438
5009.317385109083,13218.458344479757
5009.343436158216,13177.169325927913
5009.369487342828,12965.644960517644
5009.395538662919,12729.387751012644
5009.421590118491,12634.130612603867
5009.447641709544,12495.250611172132
5009.473693436078,12234.507926321428
5009.499745298095,12038.921972839475
5009.525797295596,11849.773516307292
5009.55184942858,11771.173351827934
5009.577901697049,11659.703576104854
5009.603954101003,11442.64853148321
5009.630006640443,11403.129402701483
5009.65605931537,11386.808725214552
5009.682112125784,11552.696828404014
5009.708165071686,11758.44917047151
5009.7342181530785,11896.264130516078
5009.760271369959,12046.14410095406
5009.78632472233,12052.685204874206
5009.812378210192,11914.847094478613
5009.838431833546,11669.690711918782
5009.864485592391,11370.413505434157
5009.890539486731,11063.034173851564
5009.916593516564,10679.064672404946
5009.942647681891,10257.330122690208
5009.968701982713,9816.760479338516
5009.994756419032,9372.9359083042
5010.020810990847,8995.50198300622
5010.046865698159,8631.000228868204
5010.072920540969,8440.118653411548
5010.098975519279,8352.335049976153
5010.125030633087,8354.835312442387
5010.151085882395,8351.127584357242
5010.177141267204,8372.369052654745
5010.2031967875155,8624.794036559042
5010.229252443328,8937.043300263182
5010.255308234644,9436.955004351988
5010.281364161464,9907.779201508172
5010.307420223788,10606.051153754706
5010.333476421617,11218.673035787635
5010.359532754951,11857.372300041865
5010.3855892237925,12321.408503064147
5010.4116458281405,12626.67124025917
5010.437702567997,13041.957935261138
5010.463759443362,13385.274926090098
5010.489816454236,13396.685296777054
5010.51587360062,13480.884662702458
5010.541930882514,13592.090447248715
5010.56798829992,13391.812021843949
5010.5940458528385,13233.265874193628
5010.62010354127,13120.210252306277
5010.646161365214,12870.888144789695
5010.672219324672,12622.633480714732
5010.698277419646,12343.470599241047
5010.724335650135,12147.605524528608
5010.7503940161405,11769.164603573654
5010.7764525176635,11344.234215444574
5010.802511154703,10884.819997199971
5010.828569927262,10525.802492289993
5010.85462883534,10207.640582342023
5010.880687878937,9917.778547646805
5010.906747058056,9899.77647608442
5010.932806372695,9858.511281749645
5010.958865822856,10061.570163804909
5010.98492540854,10564.932411977505
5011.0109851297475,11209.982562221345
5011.0370449864795,11648.327723441791
5011.063104978735,12223.625011111915
5011.089165106517,12649.374962036116
5011.115225369825,12863.538478532717
5011.14128576866,13184.079528905357
5011.167346303022,13363.81967576256
5011.193406972913,13420.76922295532
5011.219467778333,13576.827849239866
5011.2455287192815,13610.908024278328
5011.271589795761,13594.525975099881
5011.297651007772,13606.303293040983
5011.323712355315,13594.524323968231
5011.34977383839,13608.331923355101
5011.375835456999,13511.324974410885
5011.401897211142,13368.066678044524
5011.427959100819,13333.102275208992
5011.454021126031,13296.337032032063
5011.4800832867795,13126.472673689914
5011.506145583065,12923.134306584478
5011.532208014888,12733.502182181492
5011.558270582248,12387.059444988143
5011.584333285148,12095.648397847308
5011.610396123588,11829.683790026667
5011.636459097567,11427.117926148736
5011.662522207088,11105.319081683841
5011.68858545215,10664.754208841003
5011.714648832754,10350.70807603231
5011.740712348902,9747.583192590258
5011.766776000594,9324.752165844357
5011.79283978783,9008.471835905726
5011.818903710611,8445.658762876343
5011.844967768939,7917.61710788342
5011.871031962813,7309.545463959618
5011.897096292234,6733.366460162578
5011.923160757203,6076.931838682716
5011.949225357721,5361.078391170111
5011.975290093788,4708.162120120487
5012.001354965406,4186.14085497325
5012.027419972574,3915.1139364342753
5012.053485115294,3845.855256191686
5012.079550393566,3953.398630058683
5012.105615807392,4279.905613242854
5012.13168135677,4748.812113266945
5012.157747041703,5380.89787928618
5012.183812862192,6104.668413909633
5012.209878818236,6795.546319427921
5012.235944909837,7440.364123205981
5012.262011136994,7872.245162912976
5012.28807749971,8318.1214562483
5012.3141439979845,8514.470880412784
5012.340210631818,8614.613136390006
5012.366277401212,8580.955713961386
5012.392344306166,8511.845605429831
5012.418411346682,8327.963580873613
5012.44447852276,8305.695604262837
5012.470545834401,8571.18560278717
5012.496613281605,8767.637140520099
5012.522680864374,9254.637533751855
5012.548748582707,9651.785585555654
5012.574816436606,9900.582099229388
5012.600884426071,10256.53896161315
5012.626952551104,10413.414664207889
5012.653020811705,10531.938546029456
5012.679089207873,10626.124985784165
5012.705157739611,10792.707033846913
5012.73122640692,11084.18442430646
5012.757295209798,11437.72623767064
5012.7833641482475,11837.934669875256
5012.80943322227,12312.770518244883
5012.835502431864,12610.789083819507
5012.861571777033,12824.874832856372
5012.887641257775,12924.228753766483
5012.9137108740915,12858.926523823277
5012.939780625984,12901.706390466492
5012.965850513452,12861.877938815534
5012.991920536498,12715.586715791294
5013.017990695121,12446.673677419389
5013.044060989323,12124.525186443787
5013.070131419104,11829.759261038007
5013.096201984464,11356.399057202769
5013.122272685405,11046.695508605457
5013.148343521927,10559.193297689944
5013.17441449403,10100.300975735981
5013.200485601717,9488.026043991793
5013.226556844987,9126.67899856998
5013.2526282238405,8679.695618457608
5013.278699738279,8496.050061359356
5013.304771388303,8252.448330779867
5013.330843173913,8411.101543232195
5013.35691509511,8448.45877117288
5013.382987151894,8547.554097958595
5013.409059344267,8832.885756593494
5013.435131672228,8923.228445464201
5013.46120413578,8790.590453951236
5013.487276734921,8611.247595960607
5013.513349469653,8269.182014238873
5013.539422339977,7812.697075510643
5013.565495345894,7365.042883196408
5013.5915684874035,6821.703373714716
5013.617641764507,6463.193554416864
5013.643715177206,6200.921887680674
5013.6697887254995,6090.425164533101
5013.695862409389,6206.280667897666
5013.721936228875,6571.844974783088
5013.748010183958,7113.039300788486
5013.77408427464,7733.13514354093
5013.800158500921,8534.119902141058
5013.826232862801,9205.279598402554
5013.852307360281,9542.48406642233
5013.8783819933615,9789.747375780566
5013.904456762045,9907.254231128523
5013.930531666329,9775.46334968834
5013.956606706218,9545.338134949921
5013.982681881709,9147.437303732127
5014.008757192805,8822.553249694949
5014.034832639507,8356.258858203915
5014.060908221814,7676.1244232223635
5014.086983939728,7108.516542918319
5014.113059793249,6493.405129410709
5014.139135782378,5870.424669120118
5014.165211907116,5324.619904172346
5014.1912881674625,4990.622110882389
5014.21736456342,4929.180186446819
5014.243441094988,5120.026269854333
5014.269517762167,5500.5562897493
