wave,flux
4450.003811362098,17289.846646697442
4450.026953690486,17203.11213804874
4450.050096139227,17138.329945737507
4450.073238708321,16729.09529251456
4450.096381397769,15958.742711200968
4450.119524207569,15102.371352225824
4450.142667137726,14304.15060739427
4450.165810188237,13357.477189940357
4450.188953359103,12347.258962363341
4450.212096650326,11195.88018374815
4450.2352400619075,10046.089531634416
4450.258383593846,9081.029468577448
4450.281527246142,7895.547000519324
4450.304671018797,6910.2207729594675
4450.327814911813,6018.041706577121
4450.350958925188,5358.670133115109
4450.374103058924,4902.420887884212
4450.3972473130225,4495.1116819270765
4450.420391687483,4172.658043880345
4450.443536182305,4001.5857983053284
4450.466680797492,4183.349248264278
4450.489825533042,4390.85453552786
4450.512970388957,4675.100895854775
4450.536115365237,5294.07397831816
4450.559260461882,5880.110720686882
4450.582405678895,6829.449133135252
4450.605551016274,7688.128242354623
4450.628696474022,8301.697818297604
4450.651842052138,8903.444912537323
4450.674987750623,9195.208864983873
4450.698133569476,9384.34547797683
4450.721279508702,9690.121948162303
4450.744425568297,9727.211827907
4450.767571748264,9869.173979498402
4450.790718048604,10267.964321902818
4450.813864469315,10773.134880578586
4450.837011010401,11377.117055099196
4450.86015767186,11899.709808575391
4450.883304453694,12412.994914013323
4450.906451355903,13173.11752959758
4450.929598378489,14181.363620683362
4450.95274552145,15293.701579309596
4450.975892784789,16397.73580182838
4450.999040168505,17459.215184853027
4451.022187672601,18358.578436765296
4451.045335297074,19065.75182057823
4451.068483041929,19725.750693901402
4451.091630907163,20071.13074204846
4451.114778892777,20101.518778063655
4451.137926998774,20260.750452425727
4451.161075225153,20252.97115648766
4451.184223571914,20126.71525143072
4451.207372039059,19612.92908771495
4451.230520626587,19223.42330673154
4451.253669334501,18980.44435584939
4451.2768181628,18309.975233152156
4451.299967111485,17650.022198369978
4451.323116180556,16883.09111364872
4451.346265370014,16035.401397762384
4451.369414679861,14940.552140187388
4451.392564110095,14009.892009461513
4451.415713660719,12889.061720155918
4451.438863331732,11942.22660156765
4451.462013123136,10946.199596478746
4451.48516303493,9835.32362650714
4451.508313067117,9045.1777070239
4451.531463219695,8528.531209961635
4451.554613492666,8174.68559652638
4451.577763886031,8223.026229256566
4451.60091439979,8817.24848966463
4451.624065033943,9793.951826071308
4451.647215788492,10990.561550904607
4451.670366663436,12316.45729138238
4451.693517658777,13707.682871860578
4451.716668774516,14869.909458598862
4451.739820010652,15800.058118257813
4451.762971367186,16416.627579599713
4451.78612284412,16579.58207820908
4451.8092744414525,16574.487328796935
4451.832426159187,16237.228157721283
4451.855577997321,15792.952800999043
4451.878729955857,15273.032623938438
4451.901882034796,14636.852999715604
4451.925034234137,14051.681611238684
4451.948186553881,13609.55146526722
4451.97133899403,13134.64291979068
4451.994491554583,13109.023667803265
4452.017644235542,13520.258259794806
4452.040797036907,14016.251507900577
4452.063949958678,14874.870165373519
4452.087103000857,15630.427651259837
4452.1102561634425,16621.660512154875
4452.133409446437,17433.69901011501
4452.156562849841,18437.711767397814
4452.179716373655,18908.662040378524
4452.202870017878,19634.23942436098
4452.226023782513,19922.685499949333
4452.24917766756,20016.00761078589
4452.272331673018,20040.747684245882
4452.29548579889,20106.833615881642
4452.318640045174,19916.009068026287
4452.341794411874,19561.650644996556
4452.364948898987,19388.84037700686
4452.388103506516,19126.042284096013
4452.4112582344615,18570.062210871914
4452.434413082823,18064.508037099768
4452.457568051602,17395.25753035664
4452.480723140799,16663.74014877127
4452.503878350413,15996.185396565492
4452.527033680448,15264.019739566327
4452.550189130902,14548.347377278658
4452.5733447017765,13869.28367751526
4452.596500393071,13153.430801248885
4452.619656204789,12626.528274055494
4452.642812136928,12382.471337440018
4452.66596818949,12162.86723877848
4452.689124362475,11991.254840265985
4452.7122806558855,12036.963448306406
4452.735437069719,12303.242652804263
4452.7585936039795,12625.001428916292
4452.781750258665,13004.251154217993
4452.804907033777,13505.135500841041
4452.828063929317,13766.927302071503
4452.851220945285,14148.55484648562
4452.87437808168,14393.554596621841
4452.897535338506,14295.52657873135
4452.92069271576,14008.551230749123
4452.943850213445,13691.686830256927
4452.967007831562,13276.627861362316
4452.99016557011,12956.652333949243
4453.01332342909,13083.773363615708
4453.036481408502,12982.8801617663
4453.059639508349,13414.2887274466
4453.08279772863,13575.636521448363
4453.105956069345,13727.574183441613
4453.129114530496,13904.686866286662
4453.152273112083,13507.290393840945
4453.175431814107,13238.446438663852
4453.198590636567,12835.806170139691
4453.221749579466,12312.63439196267
4453.244908642802,11924.902229872485
4453.268067826579,11558.259780615628
4453.291227130795,11458.79302652545
4453.314386555451,11616.313732038225
4453.337546100549,11980.797677039543
4453.360705766087,12791.717222671468
4453.3838655520685,13983.198103724795
4453.407025458493,15009.077397095147
4453.430185485361,15788.829086972457
4453.453345632673,16690.460622210045
4453.476505900429,16994.798782337806
4453.4996662886315,17178.33312410668
4453.52282679728,17254.669336165287
4453.545987426375,16972.72132275229
4453.569148175917,16649.01267643548
4453.592309045907,16125.573766702859
4453.615470036346,15658.111030346892
4453.638631147233,15345.82545520673
4453.661792378571,15176.416021226707
4453.684953730359,14873.773797516082
4453.708115202598,14801.251397449254
4453.731276795288,15182.147023933267
4453.754438508431,15664.871590094284
4453.777600342027,16532.14850547489
4453.800762296077,17471.654753654133
4453.82392437058,18141.15151250684
4453.847086565538,18633.93028575936
4453.870248880952,19026.564475378564
4453.8934113168225,19408.51070283016
4453.916573873149,19549.41022958459
4453.939736549933,19649.356238081626
4453.962899347174,19803.078410598922
4453.986062264875,19750.71218131416
4454.009225303034,19549.293825979497
4454.032388461654,19015.011893690196
4454.055551740734,18668.081421045263
4454.078715140275,18167.476295565568
4454.101878660277,17563.921407466496
4454.125042300742,16554.079706224144
4454.14820606167,15939.462143591512
4454.171369943061,14894.166496860702
4454.194533944917,13726.306772978734
4454.2176980672375,12628.086099301416
4454.240862310024,11585.749943641687
4454.264026673275,10306.181958133115
4454.287191156994,9392.718202411772
4454.31035576118,8286.475376711483
4454.333520485834,7559.544953712336
4454.356685330957,6967.285052431478
4454.379850296548,6771.333009648809
4454.40301538261,6671.658945051459
4454.426180589142,7000.499360488402
4454.449345916145,7564.576214258901
4454.4725113636205,7891.270166660992
4454.495676931568,8435.398128685636
4454.5188426199875,8663.211249885539
4454.542008428882,8660.84438519793
4454.565174358249,8294.543610338169
4454.588340408092,7870.960838146058
4454.611506578411,7141.779786530623
4454.634672869205,6255.533241801747
4454.657839280476,5530.175005760275
4454.681005812225,4981.724849123072
4454.704172464451,4432.912709171445
4454.727339237156,4117.900001871261
4454.750506130341,3900.8672067623716
4454.773673144005,4006.7536054508973
4454.79684027815,4320.6571555047885
4454.820007532776,4629.4972559400585
4454.843174907884,5165.456685005293
4454.866342403473,5674.317242152175
4454.889510019546,6261.15795999905
4454.912677756102,7086.857176549691
4454.935845613144,7523.4101066397
4454.959013590669,7822.998975708178
4454.982181688681,8166.002701269765
4455.005349907178,8385.313972529666
4455.028518246162,8677.269613644465
4455.051686705633,9208.171379660038
4455.074855285593,9722.910763558382
4455.098023986041,10233.653720226492
4455.121192806979,10775.575325870026
4455.144361748406,11135.067261245069
4455.167530810323,11285.23142850797
4455.190699992732,11180.815548816397
4455.213869295633,10846.38294950185
4455.237038719026,10420.398964399377
4455.260208262912,10162.190084753103
4455.283377927292,10013.3872871407
4455.306547712166,10211.852544627529
4455.329717617535,10739.519141228799
4455.352887643399,11391.599807369494
4455.37605778976,12431.10033505189
4455.399228056617,13505.413635372928
4455.422398443972,14635.259012589211
4455.445568951825,15628.859420944982
4455.468739580177,16312.63702469842
4455.491910329028,16518.11241971459
4455.515081198378,16496.402459213972
4455.538252188229,16265.252821814238
4455.561423298582,15723.15451396963
4455.584594529436,14974.611004726432
4455.607765880793,14224.098679434383
4455.630937352652,13272.743073650992
4455.654108945016,12220.82124468287
4455.677280657883,11315.82016216821
4455.700452491255,10348.554180589797
4455.723624445134,9356.183989724232
4455.746796519518,8616.17185425481
4455.7699687144095,7767.189164947717
4455.793141029808,7132.679864599284
4455.816313465714,6625.716657205354
4455.83948602213,6328.2522680022175
4455.862658699055,6262.990879970143
4455.885831496489,6658.741655905808
4455.909004414434,7237.4790148383845
4455.932177452891,8054.946186214081
4455.955350611858,9576.057883652535
4455.978523891339,10920.96303702401
4456.001697291333,12091.027605049527
4456.024870811841,13561.741369073696
4456.048044452862,14523.680323743456
4456.071218214399,15209.739424443342
4456.094392096451,15335.291332952555
4456.117566099019,15384.423087895724
4456.140740222105,15370.96055193003
4456.163914465707,14834.670301712827
4456.187088829828,14112.464489445745
4456.210263314468,13474.689108174563
4456.233437919626,12782.840005369335
4456.256612645306,11908.016548988446
4456.279787491505,11142.084125837031
4456.302962458226,10315.833456306695
4456.326137545469,9642.636830020798
4456.349312753233,9306.099159274869
4456.372488081522,9285.808727053865
4456.395663530333,9247.793450344232
4456.41883909967,9518.828750152588
4456.442014789531,10072.71389328204
4456.465190599917,10474.963059031767
4456.488366530831,10750.450812229283
4456.5115425822705,10868.031305985132
4456.5347187542375,10701.415332294762
4456.557895046733,10594.284237193822
4456.581071459757,10357.623697027788
4456.604247993311,10340.29890092215
4456.627424647395,10581.399232633
4456.650601422009,11003.544922957693
4456.673778317154,11842.921380858828
4456.696955332832,12972.822649072888
4456.720132469041,14030.782814932725
4456.7433097257845,15234.029554717768
4456.766487103061,16187.992365869293
4456.789664600872,16682.08497181003
4456.8128422192185,16984.02361660476
4456.8360199581,17197.969956701847
4456.859197817518,17109.523514468106
4456.882375797473,16720.818994467358
4456.905553897966,16290.076192618522
4456.928732118997,15879.31880517647
4456.951910460566,15487.972137421208
4456.975088922674,15227.156835155401
4456.998267505323,14989.383363946396
4457.021446208513,14788.532662488127
4457.044625032244,14824.54724219452
4457.067803976516,14980.631827080719
4457.090983041332,15142.967375207814
4457.1141622266905,15648.673153017071
4457.1373415325925,16004.134740629115
4457.160520959039,15985.05117473312
4457.183700506031,15804.484588905856
4457.206880173568,15362.803571411148
4457.230059961651,14835.699440145814
4457.2532398702815,14122.167944054256
4457.27641989946,13242.139530658891
4457.299600049186,12377.930955708618
4457.322780319461,11457.489863418992
4457.345960710286,10408.138444065267
4457.36914122166,9455.56586304168
4457.392321853586,8684.91628098031
4457.415502606062,7973.002582082267
4457.43868347909,7630.931824690835
4457.461864472672,7681.215824728267
4457.485045586805,8083.651255881039
4457.508226821494,8823.644917462356
4457.5314081767365,9731.836462592617
4457.554589652534,10727.544464697687
4457.577771248887,11748.321166912812
4457.600952965797,13006.02042518679
4457.624134803263,14326.368892640667
4457.647316761288,15331.327988012657
4457.67049883987,16019.780217332158
4457.693681039011,16566.93330511209
4457.716863358712,16951.475620000605
4457.7400457989725,17003.997175927812
4457.763228359793,16771.28684087932
4457.7864110411765,16543.87329484895
4457.809593843121,16250.509621459834
4457.832776765628,15918.5149585225
4457.855959808699,15667.389865460174
4457.879142972333,15237.388220856219
4457.902326256532,14587.188086612221
4457.925509661296,13883.794113932672
4457.948693186626,12855.846264496098
4457.971876832522,12208.397662165364
4457.995060598985,11207.584366780708
4458.018244486016,10463.336359888139
4458.041428493615,9864.605313377102
4458.0646126217825,9036.130722082538
4458.08779687052,8514.081445979486
4458.110981239827,8413.852042409571
4458.134165729705,8543.13953010407
4458.157350340155,8730.69761882585
4458.180535071177,9034.863740227926
4458.203719922771,9414.07502838846
4458.226904894938,9648.631208527557
4458.2500899876795,9990.375785776436
4458.273275200995,10364.24161451098
4458.296460534886,11023.076082159754
4458.3196459893525,11737.650761704632
4458.342831564396,12259.321578827738
4458.366017260016,12793.941495244637
4458.389203076214,13301.811083258663
4458.4123890129895,13222.594646688596
4458.435575070344,12935.64630004447
4458.458761248279,12874.201569853924
4458.481947546794,12546.552498231085
4458.505133965889,12563.105692140289
4458.528320505566,12803.17792662089
4458.551507165825,13131.559254160918
4458.574693946666,13881.30837534007
4458.597880848091,14957.693735750645
4458.6210678701,16032.254869867282
4458.644255012693,16611.11975968913
4458.6674422758715,17216.93286132218
4458.690629659636,17544.124873967423
4458.713817163986,17553.153292709165
4458.737004788924,17244.389273723173
4458.76019253445,16946.797022054776
4458.783380400563,16212.420915392737
4458.8065683872655,15150.23754777658
4458.829756494558,14223.57539362384
4458.85294472244,13106.604163398531
4458.876133070914,12037.87071871885
4458.899321539979,10914.599250503294
4458.922510129635,9683.45578868468
4458.945698839884,8380.917661847727
4458.968887670727,7317.846387349745
4458.992076622164,6358.680328925771
4459.015265694195,5380.722170033247
4459.0384548868215,4654.355767658935
4459.061644200044,4208.448530344069
4459.084833633862,4041.444828461241
4459.108023188278,4038.1009056388625
4459.131212863292,4367.2273841415745
4459.154402658904,4770.4075100603895
4459.177592575114,5301.515558990245
4459.200782611925,5995.535217837903
4459.223972769336,6777.615310758254
4459.247163047347,7598.420454856723
4459.27035344596,8402.643237012331
4459.293543965176,9125.278051114634
4459.316734604993,9840.471466049707
4459.339925365414,10284.598219781916
4459.363116246439,11011.413301626531
4459.386307248069,11999.5105755666
4459.409498370304,13070.910630077358
4459.432689613145,14312.178956202471
4459.455880976592,15454.095738007289
4459.479072460647,16290.283369657001
4459.502264065309,16772.365997097488
4459.52545579058,17062.191782969832
4459.5486476364595,16965.526147043933
4459.571839602949,16736.61691206515
4459.595031690048,16451.88961123285
4459.618223897759,15936.26328047523
4459.641416226081,15490.88419140036
4459.664608675014,14939.45385355204
4459.687801244561,14327.74787866706
4459.710993934721,13954.077916299548
4459.734186745496,13711.273170298182
4459.757379676885,13859.229196075274
4459.780572728889,14252.38111027744
4459.803765901509,15030.026476410343
4459.8269591947455,15615.676197755241
4459.850152608599,16339.7712796605
4459.87334614307,16902.35193259936
4459.89653979816,17326.559359043185
4459.91973357387,17345.81770982101
4459.942927470198,17103.06986535349
4459.966121487147,16774.33415106614
4459.989315624717,16018.363538641142
4460.0125098829085,15103.856168833785
4460.035704261722,14364.343865241908
4460.058898761158,13524.388970496953
4460.082093381218,12218.076992195409
4460.105288121902,11269.495941874096
4460.12848298321,10122.5072453331
4460.151677965145,9131.092944169812
4460.1748730677045,8440.48615883446
4460.198068290891,7721.922353711617
4460.221263634704,7476.365744173862
4460.244459099145,7615.984397019806
4460.267654684215,8161.142732577636
4460.290850389914,8893.623264320973
4460.314046216243,9951.431018466908
4460.337242163202,11087.66372717718
4460.360438230791,12274.298688357276
4460.383634419013,13610.880179469506
4460.406830727867,15025.995850897118
4460.430027157354,16371.437878073693
4460.453223707474,17330.58013682936
4460.476420378228,18194.152908362874
4460.499617169617,18805.273030640215
4460.522814081641,19017.670889692738
4460.5460111143,19310.68271693878
4460.569208267598,19403.8550373646
4460.592405541532,19484.93127521965
4460.615602936104,19521.265560469634
4460.638800451314,19452.16012702496
4460.661998087163,19267.05923644921
4460.685195843652,19073.356251972215
4460.708393720782,18785.847458835327
4460.731591718552,18555.89764579947
4460.754789836965,18292.191792220958
4460.777988076019,17836.551100725654
4460.801186435716,17604.615902320653
4460.824384916057,17315.347067953324
4460.847583517042,16906.99465317506
4460.870782238671,16510.987268378467
4460.893981080947,15896.441504233888
4460.917180043868,15116.897630410524
4460.940379127435,14337.839832341353
4460.963578331651,13314.394972046426
4460.986777656513,12182.675889558106
4461.009977102025,11073.665986146176
4461.033176668186,9785.40130643185
4461.056376354995,8754.166639960711
4461.079576162457,7900.48447156041
4461.102776090568,7113.117940976341
4461.125976139332,6636.710786394532
4461.149176308748,6319.735313536586
4461.172376598816,6256.249852776648
4461.195577009538,6353.810612609233
4461.218777540915,6545.814990517901
4461.241978192946,6769.767271654152
4461.265178965633,7025.230658847116
4461.2883798589755,7209.731698947065
4461.311580872974,7383.383040583115
4461.3347820076315,7456.347360255829
4461.357983262946,7310.615457091151
4461.381184638919,6996.067575647854
4461.404386135551,6574.1122001896765
4461.4275877528435,6340.336976056008
4461.4507894907965,5989.395271334539
4461.4739913494095,5673.634772517951
4461.497193328685,5538.6720635116635
4461.520395428623,5382.7887989645
4461.543597649224,5168.456804550955
4461.566799990488,4926.94142980452
4461.590002452416,4602.245449536935
4461.61320503501,4301.982526807999
4461.636407738269,4358.063801745002
4461.659610562193,4381.739998173574
4461.682813506784,4865.777965855358
4461.706016572044,5483.248374665636
4461.729219757971,6189.818245945569
4461.752423064566,7033.335322290866
4461.775626491831,7814.196543044557
4461.798830039766,8563.328149778812
4461.82203370837,9068.231830500134
4461.845237497647,9247.49501795073
4461.868441407595,9159.99593025707
4461.891645438215,8655.887110204469
4461.914849589509,8388.83054348737
4461.938053861475,7889.726548974414
4461.961258254117,7451.075281133259
4461.984462767433,7524.259447353784
4462.007667401424,7413.032920907191
4462.030872156092,7946.5624539479995
4462.0540770314365,8622.660203058065
4462.077282027459,9483.130520608102
4462.100487144158,10409.183041000146
4462.123692381537,11263.958314210942
4462.146897739594,11898.496102696658
4462.170103218332,12430.357207338686
4462.19330881775,12555.613955021117
4462.21651453785,12525.994333704057
4462.239720378631,12346.080188731306
4462.262926340095,12270.575249732525
4462.286132422241,12040.52223650869
4462.309338625071,11761.126531274234
4462.3325449485865,11136.915257042205
4462.355751392785,10623.876432484853
4462.3789579576705,10180.042881240695
4462.402164643242,9873.931325547315
4462.4253714495,9936.478931763535
4462.448578376446,10283.40223940036
4462.471785424079,10946.945010108613
4462.494992592401,11859.983531468168
4462.518199881412,12876.817858784063
4462.541407291114,14105.997901159642
4462.564614821506,15304.442862130025
4462.587822472589,16055.037648773457
4462.611030244365,16434.264822640875
4462.634238136832,16744.637609860147
4462.657446149992,16755.757000842154
4462.680654283847,16625.223221516706
