wave,flux
4450.003811362098,9742.657663463455
4450.026953690486,9654.943014068622
4450.050096139227,9587.75503281037
4450.073238708321,9358.86878278523
4450.096381397769,8917.078872084088
4450.119524207569,8401.085723716018
4450.142667137726,8007.143140291873
4450.165810188237,7481.720585462463
4450.188953359103,6764.898085195382
4450.212096650326,6134.894167931354
4450.2352400619075,5443.481180833177
4450.258383593846,4903.655065209935
4450.281527246142,4322.984857094184
4450.304671018797,3772.027352622697
4450.327814911813,3252.99172635732
4450.350958925188,2893.8748101122965
4450.374103058924,2558.5442821453357
4450.3972473130225,2492.4880364452483
4450.420391687483,2301.9961007530196
4450.443536182305,2243.2650372582557
4450.466680797492,2258.8141677474637
4450.489825533042,2540.0505053558495
4450.512970388957,2707.4642403704925
4450.536115365237,2980.1134425804394
4450.559260461882,3455.5595003368326
4450.582405678895,4023.1666084982285
4450.605551016274,4382.31984728766
4450.628696474022,4832.869654501253
4450.651842052138,5121.220517701068
4450.674987750623,5326.17879687866
4450.698133569476,5453.366114463043
4450.721279508702,5428.291652565452
4450.744425568297,5528.148295974544
4450.767571748264,5616.8979876533285
4450.790718048604,5816.256393311627
4450.813864469315,6093.473932204182
4450.837011010401,6360.752373407605
4450.86015767186,6790.525443156529
4450.883304453694,7176.181584749378
4450.906451355903,7561.359378245638
4450.929598378489,8166.029044110365
4450.95274552145,8792.533098249247
4450.975892784789,9491.258956910939
4450.999040168505,10219.222088414157
4451.022187672601,10598.995767498674
4451.045335297074,10953.525670556184
4451.068483041929,11236.49995232263
4451.091630907163,11391.969357198852
4451.114778892777,11436.87057654106
4451.137926998774,11374.576870047196
4451.161075225153,11381.20240539326
4451.184223571914,11423.045797883091
4451.207372039059,11076.838257268433
4451.230520626587,10770.851473759205
4451.253669334501,10565.54474483367
4451.2768181628,10232.574563742653
4451.299967111485,9851.419598776034
4451.323116180556,9460.120270347312
4451.346265370014,8901.886315981432
4451.369414679861,8380.53177324294
4451.392564110095,7730.3493449608095
4451.415713660719,7138.093918713942
4451.438863331732,6570.1449530063355
4451.462013123136,5918.853215522682
4451.48516303493,5450.752064715401
4451.508313067117,4987.923618059409
4451.531463219695,4711.978769236442
4451.554613492666,4665.291449645143
4451.577763886031,4793.485689431704
4451.60091439979,5116.25075838444
4451.624065033943,5623.251350766478
4451.647215788492,6352.819103565824
4451.670366663436,7167.021764225232
4451.693517658777,7915.257015516372
4451.716668774516,8552.60263939848
4451.739820010652,8996.241467403801
4451.762971367186,9242.204514090221
4451.78612284412,9462.703083547925
4451.8092744414525,9442.632900036242
4451.832426159187,9020.99945170192
4451.855577997321,8817.782763854186
4451.878729955857,8476.208775236173
4451.901882034796,8083.026240730622
4451.925034234137,7811.9398057504
4451.948186553881,7584.910719398906
4451.97133899403,7485.522936683867
4451.994491554583,7352.34253279252
4452.017644235542,7765.997570198142
4452.040797036907,8097.159312229612
4452.063949958678,8507.21041218003
4452.087103000857,9169.37772132697
4452.1102561634425,9684.745662668267
4452.133409446437,10206.364301554064
4452.156562849841,10424.864174166165
4452.179716373655,10806.60178167791
4452.202870017878,11056.893270391418
4452.226023782513,11375.755533264917
4452.24917766756,11421.051469948987
4452.272331673018,11421.886937620271
4452.29548579889,11310.373569607094
4452.318640045174,11332.237023221483
4452.341794411874,11191.255746614956
4452.364948898987,11050.026388726641
4452.388103506516,10854.11081101965
4452.4112582344615,10493.886759114303
4452.434413082823,10135.021184066956
4452.457568051602,9732.266409743706
4452.480723140799,9279.76979794775
4452.503878350413,8893.274948842578
4452.527033680448,8504.03235520166
4452.550189130902,8101.664930037242
4452.5733447017765,7720.089727918019
4452.596500393071,7325.809416215614
4452.619656204789,7103.181665015038
4452.642812136928,6982.152492829635
4452.66596818949,6762.304007777935
4452.689124362475,6598.402141435186
4452.7122806558855,6705.83946941126
4452.735437069719,6992.917730788005
4452.7585936039795,7110.360697526943
4452.781750258665,7372.340107106794
4452.804907033777,7737.0785411433735
4452.828063929317,7849.748139706094
4452.851220945285,8054.336237210337
4452.87437808168,8085.280844211293
4452.897535338506,8120.852602709337
4452.92069271576,7789.242508353198
4452.943850213445,7445.385557372908
4452.967007831562,7440.620943903482
4452.99016557011,7452.950992362676
4453.01332342909,7264.5935663771
4453.036481408502,7375.373390731373
4453.059639508349,7525.7333950165
4453.08279772863,7716.968735703272
4453.105956069345,7701.228448044469
4453.129114530496,7804.732300173748
4453.152273112083,7649.960509339265
4453.175431814107,7534.72821406359
4453.198590636567,7151.352317374598
4453.221749579466,6963.359956384524
4453.244908642802,6605.354462363851
4453.268067826579,6559.985896905627
4453.291227130795,6482.36161178117
4453.314386555451,6595.246069027909
4453.337546100549,6908.276208010418
4453.360705766087,7405.593643216838
4453.3838655520685,7936.08978703922
4453.407025458493,8562.166876502026
4453.430185485361,9145.626703695756
4453.453345632673,9701.54720976297
4453.476505900429,9911.81061459659
4453.4996662886315,9811.740552432806
4453.52282679728,9792.084853095335
4453.545987426375,9616.369495003728
4453.569148175917,9394.937632670935
4453.592309045907,9104.83962383926
4453.615470036346,8828.888660295268
4453.638631147233,8625.769154080517
4453.661792378571,8481.225206320922
4453.684953730359,8360.792857745904
4453.708115202598,8316.610008479598
4453.731276795288,8632.784477269197
4453.754438508431,9060.796752224653
4453.777600342027,9444.256652637872
4453.800762296077,9838.868867427147
4453.82392437058,10184.062749598983
4453.847086565538,10564.33409630094
4453.870248880952,10798.184756709587
4453.8934113168225,10902.21771091193
4453.916573873149,11037.695077232334
4453.939736549933,11110.70660143067
4453.962899347174,11051.014953977698
4453.986062264875,11143.912820674148
4454.009225303034,11001.759645923636
4454.032388461654,10760.714313996925
4454.055551740734,10603.940031751288
4454.078715140275,10158.553920726628
4454.101878660277,9751.490858259323
4454.125042300742,9220.627462185474
4454.14820606167,8751.393915662979
4454.171369943061,8200.303313621906
4454.194533944917,7514.646289042818
4454.2176980672375,7024.054746822536
4454.240862310024,6338.72146474146
4454.264026673275,5775.195867986025
4454.287191156994,5083.696357010584
4454.31035576118,4513.009462249001
4454.333520485834,4065.226725785885
4454.356685330957,3818.113532022151
4454.379850296548,3716.150113877375
4454.40301538261,3824.065674992667
4454.426180589142,4125.140952352377
4454.449345916145,4398.937873840829
4454.4725113636205,4641.184486202601
4454.495676931568,4864.636597264353
4454.5188426199875,5062.876740572385
4454.542008428882,4942.067069815666
4454.565174358249,4692.500800045651
4454.588340408092,4356.929500988232
4454.611506578411,3804.9790516888474
4454.634672869205,3281.2119824120787
4454.657839280476,2917.951731804768
4454.681005812225,2616.260878044221
4454.704172464451,2431.0806504089014
4454.727339237156,2232.672149405884
4454.750506130341,2108.371501313857
4454.773673144005,2218.5336531729677
4454.79684027815,2399.7075017048232
4454.820007532776,2663.6703220335826
4454.843174907884,2949.5180636137366
4454.866342403473,3307.809977013837
4454.889510019546,3703.257655288174
4454.912677756102,4014.57476616783
4454.935845613144,4276.954539382309
4454.959013590669,4436.622291009924
4454.982181688681,4599.833825791111
4455.005349907178,4806.200364069876
4455.028518246162,4970.260091522328
4455.051686705633,5224.855534800657
4455.074855285593,5564.36067722711
4455.098023986041,5908.628046153164
4455.121192806979,6191.395109347241
4455.144361748406,6303.950834044978
4455.167530810323,6310.0934076087415
4455.190699992732,6208.127893335332
4455.213869295633,6040.1457465962585
4455.237038719026,5837.615100792533
4455.260208262912,5720.561462952732
4455.283377927292,5738.3466495048
4455.306547712166,5746.281288348546
4455.329717617535,6125.082860360192
4455.352887643399,6640.4259990266255
4455.37605778976,7357.139546035768
4455.399228056617,7937.558387326607
4455.422398443972,8461.87994770005
4455.445568951825,8934.691028691437
4455.468739580177,9257.062523600396
4455.491910329028,9461.999328714424
4455.515081198378,9390.522254908514
4455.538252188229,9120.12784911065
4455.561423298582,8764.411029573617
4455.584594529436,8268.068246099449
4455.607765880793,7727.80843811923
4455.630937352652,7197.05019836419
4455.654108945016,6750.3047213578075
4455.677280657883,6196.53097924292
4455.700452491255,5642.499576916805
4455.723624445134,5273.710492495891
4455.746796519518,4785.111146901293
4455.7699687144095,4338.402172901943
4455.793141029808,3925.2514163745104
4455.816313465714,3493.371356731588
4455.83948602213,3489.111146997848
4455.862658699055,3520.783484295044
4455.885831496489,3771.51880291716
4455.909004414434,4166.974190517931
4455.932177452891,4777.058765279065
4455.955350611858,5647.68897856561
4455.978523891339,6466.620360102486
4456.001697291333,7277.4076240876
4456.024870811841,7759.866359628277
4456.048044452862,8227.462286267288
4456.071218214399,8523.464969334504
4456.094392096451,8585.26843414245
4456.117566099019,8571.317113550342
4456.140740222105,8643.34769247009
4456.163914465707,8371.23943184949
4456.187088829828,8006.640360081905
4456.210263314468,7663.596048882453
4456.233437919626,7048.737937717271
4456.256612645306,6454.354022312843
4456.279787491505,6153.202895090599
4456.302962458226,5663.142629155212
4456.326137545469,5359.840590717684
4456.349312753233,5258.789251169938
4456.372488081522,5176.445172275039
4456.395663530333,5395.562093804484
4456.41883909967,5664.3477440274755
4456.442014789531,5807.597447897517
4456.465190599917,5905.89476143988
4456.488366530831,6027.031398251876
4456.5115425822705,5982.6767586703045
4456.5347187542375,5881.980983266458
4456.557895046733,5916.130191364419
4456.581071459757,5827.279913288614
4456.604247993311,5897.481272160397
4456.627424647395,6034.029349810515
4456.650601422009,6269.131232853472
4456.673778317154,6860.408285200998
4456.696955332832,7517.662996073717
4456.720132469041,8246.898999424368
4456.7433097257845,8858.390320195174
4456.766487103061,9209.981085870895
4456.789664600872,9358.527763573347
4456.8128422192185,9540.533304730494
4456.8360199581,9672.03224245363
4456.859197817518,9611.83175772741
4456.882375797473,9509.422832228505
4456.905553897966,9274.366700512428
4456.928732118997,8940.145202881644
4456.951910460566,8745.091994994928
4456.975088922674,8689.116112152065
4456.998267505323,8503.028257551876
4457.021446208513,8365.975596283959
4457.044625032244,8445.461276289858
4457.067803976516,8627.901119016951
4457.090983041332,8774.252939880684
4457.1141622266905,8926.661534850884
4457.1373415325925,9071.20467283731
4457.160520959039,9024.539412097189
4457.183700506031,8899.04182263086
4457.206880173568,8693.245462330875
4457.230059961651,8302.135003082596
4457.2532398702815,7798.892621049053
4457.27641989946,7327.0316863778
4457.299600049186,6816.664835534066
4457.322780319461,6186.761672398739
4457.345960710286,5668.731356850135
4457.36914122166,5149.0555340928595
4457.392321853586,4651.4634752113725
4457.415502606062,4407.976083367848
4457.43868347909,4266.361594783739
4457.461864472672,4337.060676435996
4457.485045586805,4649.889238657153
4457.508226821494,5131.544376091969
4457.5314081767365,5707.401392419073
4457.554589652534,6195.516100899558
4457.577771248887,6880.454676000333
4457.600952965797,7682.175431303446
4457.624134803263,8291.529146534378
4457.647316761288,8838.661079252137
4457.67049883987,9281.28912955449
4457.693681039011,9527.33117238051
4457.716863358712,9591.829041503679
4457.7400457989725,9491.778858059462
4457.763228359793,9432.040009892497
4457.7864110411765,9324.124169867846
4457.809593843121,9029.000286953475
4457.832776765628,8928.69090239388
4457.855959808699,8799.089166221367
4457.879142972333,8410.555799976912
4457.902326256532,8039.718788836296
4457.925509661296,7594.804965781518
4457.948693186626,7090.17644156448
4457.971876832522,6614.741787298716
4457.995060598985,6119.9622574266705
4458.018244486016,5652.115344875727
4458.041428493615,5339.791617104375
4458.0646126217825,5026.2351168451405
4458.08779687052,4741.2997886128005
4458.110981239827,4797.547430212586
4458.134165729705,4937.132851996357
4458.157350340155,5063.582420904912
4458.180535071177,5207.29225569961
4458.203719922771,5258.146661864376
4458.226904894938,5417.66843191274
4458.2500899876795,5774.598484602711
4458.273275200995,6058.601895683352
4458.296460534886,6364.31507574558
4458.3196459893525,6732.710101256112
4458.342831564396,7106.264348543509
4458.366017260016,7421.555252617883
4458.389203076214,7510.330978594078
4458.4123890129895,7438.343451599017
4458.435575070344,7342.248795100978
4458.458761248279,7075.889781821609
4458.481947546794,7043.038574527957
4458.505133965889,7031.6436964568
4458.528320505566,7135.218339106859
4458.551507165825,7488.737674128509
4458.574693946666,7969.595316952743
4458.597880848091,8663.320247964608
4458.6210678701,9141.730096565521
4458.644255012693,9566.929661151358
4458.6674422758715,9881.87035671244
4458.690629659636,9983.218373046084
4458.713817163986,9884.15096145732
4458.737004788924,9739.637092990397
4458.76019253445,9462.067396979432
4458.783380400563,8881.856854285175
4458.8065683872655,8371.118763293089
4458.829756494558,7965.563180139214
4458.85294472244,7212.0462681617555
4458.876133070914,6637.24366488977
4458.899321539979,5943.606851591747
4458.922510129635,5306.750469806526
4458.945698839884,4654.567868371168
4458.968887670727,3974.909540807644
4458.992076622164,3322.134558923554
4459.015265694195,2902.1342533669276
4459.0384548868215,2514.0065824606136
4459.061644200044,2290.7692197744464
4459.084833633862,2269.8901239319807
4459.108023188278,2291.16273426298
4459.131212863292,2518.3293185184193
4459.154402658904,2819.271500145203
4459.177592575114,3151.746154351357
4459.200782611925,3601.820053068275
4459.223972769336,3998.5529387518022
4459.247163047347,4417.320946921199
4459.27035344596,4844.350976938779
4459.293543965176,5294.835428443906
4459.316734604993,5575.548623707033
4459.339925365414,5914.357422827705
4459.363116246439,6445.157701744392
4459.386307248069,7000.573318400163
4459.409498370304,7568.442732178437
4459.432689613145,8322.653466642958
4459.455880976592,8802.992422069095
4459.479072460647,9270.515324508733
4459.502264065309,9546.03398195838
4459.52545579058,9677.116300481977
4459.5486476364595,9653.11143556868
4459.571839602949,9415.741263676598
4459.595031690048,9116.87210910361
4459.618223897759,8875.719293744301
4459.641416226081,8640.379238428275
4459.664608675014,8326.165117303572
4459.687801244561,7964.462127936659
4459.710993934721,7808.547784976428
4459.734186745496,7730.507526813802
4459.757379676885,7841.926125387059
4459.780572728889,8217.791693513322
4459.803765901509,8495.268404040971
4459.8269591947455,8896.436080250225
4459.850152608599,9411.61889436147
4459.87334614307,9659.33320064294
4459.89653979816,9824.999685092678
4459.91973357387,9879.676979775646
4459.942927470198,9810.15935102418
4459.966121487147,9468.713231150938
4459.989315624717,8887.323858550366
4460.0125098829085,8487.260683712013
4460.035704261722,7915.692883004059
4460.058898761158,7397.1264546951725
4460.082093381218,6804.147254634106
4460.105288121902,6097.226500302148
4460.12848298321,5540.697556835856
4460.151677965145,5011.318495282966
4460.1748730677045,4509.131493696972
4460.198068290891,4255.258060345597
4460.221263634704,4235.842127834378
4460.244459099145,4372.036014140444
4460.267654684215,4721.777317735454
4460.290850389914,5180.10645599682
4460.314046216243,5766.038144804188
4460.337242163202,6538.140553403993
4460.360438230791,7312.577174678515
4460.383634419013,8039.575126244353
4460.406830727867,8831.155020100516
4460.430027157354,9471.830704677026
4460.453223707474,9895.281797200689
4460.476420378228,10396.378553581142
4460.499617169617,10823.386386102124
4460.522814081641,10862.648835751592
4460.5460111143,10892.266027510488
4460.569208267598,10869.375779842685
4460.592405541532,10870.113521607851
4460.615602936104,10994.578616360966
4460.638800451314,10960.115856557159
4460.661998087163,10857.861174606076
4460.685195843652,10598.5905810086
4460.708393720782,10454.111471220205
4460.731591718552,10505.478614156613
4460.754789836965,10207.065066890078
4460.777988076019,9976.949890146092
4460.801186435716,9862.657755080027
4460.824384916057,9712.483037108927
4460.847583517042,9402.456798570465
4460.870782238671,9162.908761770406
4460.893981080947,8948.014273276322
4460.917180043868,8442.914523736097
4460.940379127435,7738.0121068588805
4460.963578331651,7161.476144004262
4460.986777656513,6563.783324470776
4461.009977102025,5922.920518202209
4461.033176668186,5372.042300675571
4461.056376354995,4752.092255189754
4461.079576162457,4271.6749635160095
4461.102776090568,3878.6667072698456
4461.125976139332,3688.0699386280317
4461.149176308748,3669.959569361804
4461.172376598816,3580.637710537491
4461.195577009538,3590.816963600682
4461.218777540915,3655.608595239118
4461.241978192946,3903.563665036733
4461.265178965633,4087.6725325643306
4461.2883798589755,4191.49568419959
4461.311580872974,4264.256324491258
4461.3347820076315,4318.5763858632645
4461.357983262946,4147.242687552842
4461.381184638919,3867.1019234231767
4461.404386135551,3638.4428579326845
4461.4275877528435,3457.7764869719117
4461.4507894907965,3352.8686395921386
4461.4739913494095,3187.575358809305
4461.497193328685,3045.324316701169
4461.520395428623,3051.993080537264
4461.543597649224,2884.7917199028916
4461.566799990488,2771.1036578609865
4461.590002452416,2575.051081396109
4461.61320503501,2407.635173762522
4461.636407738269,2419.422263112467
4461.659610562193,2532.3283615737946
4461.682813506784,2844.46279041172
4461.706016572044,3188.786143547306
4461.729219757971,3585.709691548428
4461.752423064566,4052.227499111673
4461.775626491831,4557.413485780453
4461.798830039766,4837.256636369348
4461.82203370837,5259.144392499692
4461.845237497647,5193.894669618402
4461.868441407595,5162.907591876933
4461.891645438215,4904.712099515685
4461.914849589509,4601.004805132182
4461.938053861475,4418.195959630604
4461.961258254117,4053.861757317879
4461.984462767433,4206.628507864047
4462.007667401424,4355.774987255881
4462.030872156092,4458.6720648291475
4462.0540770314365,4997.965389066279
4462.077282027459,5555.081825138253
4462.100487144158,5981.050773980501
4462.123692381537,6545.125011743075
4462.146897739594,6777.748470954883
4462.170103218332,7068.671895246137
4462.19330881775,7064.884284736011
4462.21651453785,7019.355456592147
4462.239720378631,7015.763655399239
4462.262926340095,6860.416303650432
4462.286132422241,6762.007843403125
4462.309338625071,6447.014028150941
4462.3325449485865,6182.55987572026
4462.355751392785,5841.842079288375
4462.3789579576705,5730.6270024800115
4462.402164643242,5593.061242897778
4462.4253714495,5571.223923863958
4462.448578376446,5737.506102309418
4462.471785424079,6159.345532411078
4462.494992592401,6794.951211753091
4462.518199881412,7600.199883460108
4462.541407291114,8205.261808010544
4462.564614821506,8728.865733849536
4462.587822472589,9280.815191406024
4462.611030244365,9518.616894936384
4462.634238136832,9536.32400866334
4462.657446149992,9605.882248038784
4462.680654283847,9497.301722602971
4462.703862538396,9315.520845369902
4462.727070913639,8932.384042711994
4462.750279409578,8801.345768859846
4462.773488026214,8505.829912484567
4462.796696763546,8173.705911116337
4462.819905621575,7817.650484031427
