wave,flux
4450.003811362098,28998.379183290912
4450.026953690486,28698.17064055279
4450.050096139227,28137.926021891457
4450.073238708321,27519.05253088233
4450.096381397769,26699.79115588259
4450.119524207569,25571.564098636278
4450.142667137726,24314.070963195987
4450.165810188237,22944.693856850972
4450.188953359103,21798.17663417003
4450.212096650326,20058.516311573083
4450.2352400619075,18620.226575255907
4450.258383593846,17278.82396298855
4450.281527246142,15835.581214550159
4450.304671018797,14419.99766125034
4450.327814911813,13339.49170663619
4450.350958925188,12284.416627036606
4450.374103058924,11337.729790201913
4450.3972473130225,10552.595483418898
4450.420391687483,10035.313670845258
4450.443536182305,9696.523325921684
4450.466680797492,9368.004658905764
4450.489825533042,9182.890389794906
4450.512970388957,9203.805618695405
4450.536115365237,9864.944573924133
4450.559260461882,10630.005651892894
4450.582405678895,11218.479804206727
4450.605551016274,12146.410393157792
4450.628696474022,13261.817476962517
4450.651842052138,14246.39594357751
4450.674987750623,15393.267431348395
4450.698133569476,16533.228314422166
4450.721279508702,17525.330429042915
4450.744425568297,18533.2393387319
4450.767571748264,19547.665506829708
4450.790718048604,20772.729956727264
4450.813864469315,21948.629283932012
4450.837011010401,22740.430689005734
4450.86015767186,23576.149274027848
4450.883304453694,24509.740806607733
4450.906451355903,25507.272925549783
4450.929598378489,26704.265286531503
4450.95274552145,28069.261891947037
4450.975892784789,28963.88064698983
4450.999040168505,29977.33390335012
4451.022187672601,30707.817798121912
4451.045335297074,31554.454925375125
4451.068483041929,32012.284657089916
4451.091630907163,32237.84783458433
4451.114778892777,32520.32271989191
4451.137926998774,32249.884637021267
4451.161075225153,31943.703890977227
4451.184223571914,31513.587361391834
4451.207372039059,31141.19548320363
4451.230520626587,30470.843063008062
4451.253669334501,29750.874532788504
4451.2768181628,28999.567873114032
4451.299967111485,28483.108841062076
4451.323116180556,27586.738389751994
4451.346265370014,26344.799680990487
4451.369414679861,25384.226462574665
4451.392564110095,24201.777487723324
4451.415713660719,23160.264475469423
4451.438863331732,21992.725174842028
4451.462013123136,20929.35546610668
4451.48516303493,19956.32636763509
4451.508313067117,18965.92380792766
4451.531463219695,18188.957592622126
4451.554613492666,17831.356126376657
4451.577763886031,17807.496711705302
4451.60091439979,18397.33595657662
4451.624065033943,19597.914240662067
4451.647215788492,20536.558005013434
4451.670366663436,21746.99880224135
4451.693517658777,23260.583945451228
4451.716668774516,24568.586282121927
4451.739820010652,25851.156579441802
4451.762971367186,26703.59136444249
4451.78612284412,27649.847425878066
4451.8092744414525,27991.879232687777
4451.832426159187,28314.97633906962
4451.855577997321,28479.135733845764
4451.878729955857,28637.53689775245
4451.901882034796,28319.879870903114
4451.925034234137,28263.369248118663
4451.948186553881,28014.983383482457
4451.97133899403,27740.03084676058
4451.994491554583,27833.648618481868
4452.017644235542,28231.82775770742
4452.040797036907,28367.11122548916
4452.063949958678,29007.31865050127
4452.087103000857,29812.23167329141
4452.1102561634425,30235.2899633648
4452.133409446437,30684.85301511368
4452.156562849841,31189.85502931517
4452.179716373655,31959.271152316778
4452.202870017878,32297.78185483329
4452.226023782513,32556.701281813617
4452.24917766756,32743.368084826863
4452.272331673018,32784.76563471035
4452.29548579889,33035.86466159436
4452.318640045174,32617.53056318598
4452.341794411874,32368.48752778641
4452.364948898987,32311.470741463258
4452.388103506516,31976.419551178802
4452.4112582344615,31484.607619066603
4452.434413082823,31000.664124076324
4452.457568051602,30424.899294131064
4452.480723140799,29691.55619668145
4452.503878350413,29150.601689644573
4452.527033680448,28723.06582323956
4452.550189130902,28105.315840186082
4452.5733447017765,27406.21731809306
4452.596500393071,26893.34853351163
4452.619656204789,26427.11765791581
4452.642812136928,26149.244305983553
4452.66596818949,25971.89264093319
4452.689124362475,25639.548849881037
4452.7122806558855,25802.719643301152
4452.735437069719,25760.643395576044
4452.7585936039795,25761.007254921515
4452.781750258665,26026.264389892473
4452.804907033777,26352.803731013388
4452.828063929317,26572.824704780945
4452.851220945285,26688.282204489013
4452.87437808168,26936.272411205344
4452.897535338506,26662.280864791926
4452.92069271576,26326.778953772297
4452.943850213445,26560.747948684046
4452.967007831562,25950.574473088727
4452.99016557011,25794.52973202833
4453.01332342909,25400.126460976742
4453.036481408502,25610.033072235816
4453.059639508349,25879.43812397234
4453.08279772863,25955.39577300388
4453.105956069345,25837.46731439383
4453.129114530496,25992.386400721192
4453.152273112083,25989.941891498747
4453.175431814107,25573.735312268054
4453.198590636567,25263.88514585214
4453.221749579466,25042.104912095754
4453.244908642802,24536.601358866537
4453.268067826579,24186.93353146783
4453.291227130795,24025.594849947807
4453.314386555451,24407.766034713637
4453.337546100549,24869.823278943608
4453.360705766087,25274.803246106305
4453.3838655520685,25917.381364564808
4453.407025458493,27025.32068654361
4453.430185485361,27896.46983479219
4453.453345632673,28433.163188693703
4453.476505900429,28811.491003073297
4453.4996662886315,29119.588084200168
4453.52282679728,29557.388799826622
4453.545987426375,29765.3808769442
4453.569148175917,29768.89074084396
4453.592309045907,29786.57996353893
4453.615470036346,29575.131503752837
4453.638631147233,29207.084068668377
4453.661792378571,29133.860408709905
4453.684953730359,29050.73297556036
4453.708115202598,28905.186843638687
4453.731276795288,29209.757039554494
4453.754438508431,29616.64340796539
4453.777600342027,30198.763489736597
4453.800762296077,30507.795379343457
4453.82392437058,31197.944769732498
4453.847086565538,31638.18695025844
4453.870248880952,31877.41710928859
4453.8934113168225,32065.49386190038
4453.916573873149,32331.14192902686
4453.939736549933,32230.407720643918
4453.962899347174,31909.179447939954
4453.986062264875,31641.646548229986
4454.009225303034,31074.10214451126
4454.032388461654,30522.326482707744
4454.055551740734,29644.12589950634
4454.078715140275,28975.59801763929
4454.101878660277,27854.663862028796
4454.125042300742,27050.84875118091
4454.14820606167,25848.25255617859
4454.171369943061,24827.47100808944
4454.194533944917,23600.95161661049
4454.2176980672375,22608.95081126817
4454.240862310024,21056.126634820364
4454.264026673275,19963.60785522661
4454.287191156994,18444.13318770686
4454.31035576118,17347.931879845433
4454.333520485834,15929.458817927441
4454.356685330957,15096.06407335262
4454.379850296548,14371.542584742705
4454.40301538261,14177.477017905088
4454.426180589142,13983.797184675142
4454.449345916145,14094.609663382473
4454.4725113636205,14309.464575476606
4454.495676931568,14451.72653455769
4454.5188426199875,14615.305266030891
4454.542008428882,14587.194241664385
4454.565174358249,14229.118965717722
4454.588340408092,13814.74612460336
4454.611506578411,13296.777732699802
4454.634672869205,12549.809887321278
4454.657839280476,11679.774957944785
4454.681005812225,10785.102344936458
4454.704172464451,10136.215560788389
4454.727339237156,9731.34748337562
4454.750506130341,9388.887046731932
4454.773673144005,9263.864463692946
4454.79684027815,9417.198210949644
4454.820007532776,9817.746615007705
4454.843174907884,10236.61342574258
4454.866342403473,10898.895962131965
4454.889510019546,11832.549796497813
4454.912677756102,12603.615014612704
4454.935845613144,13416.29699458926
4454.959013590669,14298.616343381278
4454.982181688681,15008.914211739097
4455.005349907178,15666.034018162221
4455.028518246162,16664.473227346567
4455.051686705633,17683.724667792023
4455.074855285593,18515.99073124993
4455.098023986041,19150.369078801603
4455.121192806979,19803.346036538856
4455.144361748406,20256.44016802497
4455.167530810323,20745.64813789086
4455.190699992732,20814.17689310986
4455.213869295633,20756.79488761724
4455.237038719026,20837.556966473632
4455.260208262912,20597.751624373974
4455.283377927292,20745.06259939341
4455.306547712166,21073.698202437205
4455.329717617535,21795.09135466095
4455.352887643399,22601.776758047607
4455.37605778976,23673.410460889307
4455.399228056617,24813.755756451414
4455.422398443972,25537.182328389754
4455.445568951825,26445.071743670134
4455.468739580177,26818.151057778578
4455.491910329028,26763.198599220123
4455.515081198378,26833.166501647076
4455.538252188229,26530.3925783183
4455.561423298582,26022.49701730785
4455.584594529436,25364.369854882316
4455.607765880793,24039.39611551936
4455.630937352652,23366.937215859787
4455.654108945016,22123.072502373878
4455.677280657883,21103.47154367059
4455.700452491255,19935.707544107252
4455.723624445134,18979.02555907725
4455.746796519518,17646.15349103119
4455.7699687144095,16732.438647416006
4455.793141029808,15650.682883208887
4455.816313465714,14576.3731305337
4455.83948602213,14371.143844270793
4455.862658699055,14267.525467614041
4455.885831496489,14442.718368690103
4455.909004414434,15008.167833946041
4455.932177452891,16116.097675353805
4455.955350611858,17426.849185210478
4455.978523891339,18726.84313882307
4456.001697291333,20123.1951477922
4456.024870811841,21404.80768514502
4456.048044452862,22802.095416994085
4456.071218214399,23996.007067089595
4456.094392096451,24735.82079844039
4456.117566099019,25416.052548848384
4456.140740222105,25717.09313868923
4456.163914465707,25610.48616086326
4456.187088829828,25520.10315436588
4456.210263314468,25223.551957352272
4456.233437919626,24518.184228615723
4456.256612645306,23736.748585173707
4456.279787491505,22729.536494387834
4456.302962458226,21912.59484976248
4456.326137545469,21452.528356530656
4456.349312753233,21150.30512005167
4456.372488081522,20870.916913644745
4456.395663530333,20735.137443607957
4456.41883909967,20930.1180987855
4456.442014789531,21147.09449990707
4456.465190599917,21322.09967099389
4456.488366530831,21370.753640748197
4456.5115425822705,21294.815367515734
4456.5347187542375,21099.917814955235
4456.557895046733,20937.226202948197
4456.581071459757,20812.97976881882
4456.604247993311,21031.931896795166
4456.627424647395,21254.99847725287
4456.650601422009,21702.3298229606
4456.673778317154,22507.770210684725
4456.696955332832,23570.216269144985
4456.720132469041,24695.67217138238
4456.7433097257845,25718.276146298595
4456.766487103061,26835.314369158245
4456.789664600872,27632.015814927698
4456.8128422192185,28221.782312672723
4456.8360199581,28544.02102194157
4456.859197817518,28741.228573247667
4456.882375797473,29043.127028313993
4456.905553897966,29140.06689120228
4456.928732118997,28806.80994617018
4456.951910460566,28523.8769657441
4456.975088922674,28320.57763063215
4456.998267505323,28029.331366236962
4457.021446208513,27988.213562411147
4457.044625032244,27705.004791821233
4457.067803976516,27614.78750174288
4457.090983041332,27452.65545949763
4457.1141622266905,27486.798011846222
4457.1373415325925,27321.91739142042
4457.160520959039,27167.87112138596
4457.183700506031,26868.158916223805
4457.206880173568,26212.969401027367
4457.230059961651,25442.378135801224
4457.2532398702815,24678.68686594581
4457.27641989946,24040.232868467236
4457.299600049186,22901.319087979173
4457.322780319461,21758.947530253354
4457.345960710286,20773.63597409761
4457.36914122166,19552.75989314279
4457.392321853586,18709.565527263767
4457.415502606062,18337.923308616937
4457.43868347909,18082.275855563148
4457.461864472672,18025.52521945055
4457.485045586805,18546.06443478444
4457.508226821494,19337.303916845372
4457.5314081767365,20424.162557830616
4457.554589652534,21637.217216122433
4457.577771248887,22839.34444924413
4457.600952965797,24198.925649523626
4457.624134803263,25417.551214531908
4457.647316761288,26597.047532183682
4457.67049883987,27248.57887473783
4457.693681039011,27893.984527964785
4457.716863358712,28478.696118358377
4457.7400457989725,28803.370353736624
4457.763228359793,28632.003607160677
4457.7864110411765,28552.057528334208
4457.809593843121,28237.453282416347
4457.832776765628,27750.374035318102
4457.855959808699,27093.748970742297
4457.879142972333,26583.595193885358
4457.902326256532,25874.747643059727
4457.925509661296,24930.26562197888
4457.948693186626,24079.075599565265
4457.971876832522,23169.9693399338
4457.995060598985,22116.709386703296
4458.018244486016,21178.27448827327
4458.041428493615,20319.619322022856
4458.0646126217825,19736.301305836798
4458.08779687052,19316.89393612024
4458.110981239827,19105.318007456728
4458.134165729705,19228.66340039401
4458.157350340155,19405.239282779155
4458.180535071177,19387.032493418246
4458.203719922771,19709.1360406745
4458.226904894938,20029.781644681567
4458.2500899876795,20555.843319503692
4458.273275200995,21403.987863828163
4458.296460534886,22002.099552909698
4458.3196459893525,22677.14337808015
4458.342831564396,23474.31195915101
4458.366017260016,24311.47750397714
4458.389203076214,24826.88146569346
4458.4123890129895,24980.13169705724
4458.435575070344,25302.011847624264
4458.458761248279,25177.717388085824
4458.481947546794,24992.355056621655
4458.505133965889,24868.26468510317
4458.528320505566,25269.5742462058
4458.551507165825,25793.92594572197
4458.574693946666,26502.540370482322
4458.597880848091,26757.548879655893
4458.6210678701,27383.66277034213
4458.644255012693,27494.082292000367
4458.6674422758715,27789.684096325927
4458.690629659636,27899.93259903558
4458.713817163986,27223.562192019937
4458.737004788924,26915.88374771823
4458.76019253445,26333.428147575403
4458.783380400563,25248.062553637228
4458.8065683872655,24443.54162521498
4458.829756494558,23414.444331866343
4458.85294472244,22149.44932024564
4458.876133070914,20758.69388635896
4458.899321539979,19359.193050082293
4458.922510129635,17946.923641830243
4458.945698839884,16635.196427967476
4458.968887670727,14928.791138841882
4458.992076622164,13528.284180225777
4459.015265694195,12435.713575142627
4459.0384548868215,11524.118677966942
4459.061644200044,10732.162606932478
4459.084833633862,10406.642023761826
4459.108023188278,10317.504611307957
4459.131212863292,10749.39971926766
4459.154402658904,11102.473548130107
4459.177592575114,11781.568628583673
4459.200782611925,12699.753930427196
4459.223972769336,13858.75366211443
4459.247163047347,14960.463871945254
4459.27035344596,16100.761750940652
4459.293543965176,17252.134848179336
4459.316734604993,18285.603114742677
4459.339925365414,19585.33204638922
4459.363116246439,20855.140599185197
4459.386307248069,22435.96297025744
4459.409498370304,23832.975340225526
4459.432689613145,24884.25124328334
4459.455880976592,26179.43555595014
4459.479072460647,27439.03420556819
4459.502264065309,28080.616831451374
4459.52545579058,28855.701498521117
4459.5486476364595,29240.994247137496
4459.571839602949,29478.34370935195
4459.595031690048,29486.258982378433
4459.618223897759,29298.21305127675
4459.641416226081,28985.768961995494
4459.664608675014,28738.655340896017
4459.687801244561,28555.0264435962
4459.710993934721,28229.21928984564
4459.734186745496,28311.44075171121
4459.757379676885,28420.521738848347
4459.780572728889,28174.397371151572
4459.803765901509,28713.55337581207
4459.8269591947455,28998.403781548488
4459.850152608599,28806.083504162572
4459.87334614307,29203.874293724366
4459.89653979816,28996.012238784642
4459.91973357387,28810.586019617032
4459.942927470198,28580.12056736185
4459.966121487147,28113.99965739706
4459.989315624717,27284.53970564522
4460.0125098829085,26507.621530594963
4460.035704261722,25621.076803349373
4460.058898761158,24705.054222767474
4460.082093381218,23530.129266617252
4460.105288121902,22393.12363999532
4460.12848298321,21343.4452994946
4460.151677965145,20333.29398809013
4460.1748730677045,19308.483953173374
4460.198068290891,18822.36267931362
4460.221263634704,18478.519064823784
4460.244459099145,18714.226966643913
4460.267654684215,19228.544064780024
4460.290850389914,20241.97357088763
4460.314046216243,21409.857979592616
4460.337242163202,22736.80338177143
4460.360438230791,24172.684322869412
4460.383634419013,25429.472566764216
4460.406830727867,26964.19606143116
4460.430027157354,28040.317448423102
4460.453223707474,29213.350069986507
4460.476420378228,30201.421641666297
4460.499617169617,30736.810822053692
4460.522814081641,31283.292831767856
4460.5460111143,31644.57714991183
4460.569208267598,32001.404566178233
4460.592405541532,32179.40870867664
4460.615602936104,32289.74498002933
4460.638800451314,32326.97062794713
4460.661998087163,31799.002566428942
4460.685195843652,31863.95518885944
4460.708393720782,31540.067486999676
4460.731591718552,31105.823087165158
4460.754789836965,30850.824023186768
4460.777988076019,29986.925219551966
4460.801186435716,29681.399085404926
4460.824384916057,29222.14286621699
4460.847583517042,28453.38050951637
4460.870782238671,27663.122469228536
4460.893981080947,26934.67257561651
4460.917180043868,25818.553440343003
4460.940379127435,24820.230445018085
4460.963578331651,23756.828320464763
4460.986777656513,22388.690437614645
4461.009977102025,21067.47642952584
4461.033176668186,19734.687947429546
4461.056376354995,18396.410888267317
4461.079576162457,17348.82107448621
4461.102776090568,16461.07554619918
4461.125976139332,15680.91542935913
4461.149176308748,14959.629025757262
4461.172376598816,14517.495971833345
4461.195577009538,14228.728078022743
4461.218777540915,14264.647755298209
4461.241978192946,14477.054521684333
4461.265178965633,14482.995397861356
4461.2883798589755,14422.339495031625
4461.311580872974,14317.810096180669
4461.3347820076315,14236.037045791274
4461.357983262946,13931.2335243724
4461.381184638919,13401.872579438246
4461.404386135551,13111.80311642762
4461.4275877528435,12815.670909152966
4461.4507894907965,12632.387541090962
4461.4739913494095,12490.169040470631
4461.497193328685,12243.757441557176
4461.520395428623,12012.688463726654
4461.543597649224,11850.973648449786
4461.566799990488,11658.329670393792
4461.590002452416,11212.115424785772
4461.61320503501,11047.28822854231
4461.636407738269,11052.54580702574
4461.659610562193,11096.01228030564
4461.682813506784,11386.616194685104
4461.706016572044,11677.85848864492
4461.729219757971,12249.143280015063
4461.752423064566,13104.029471887608
4461.775626491831,13900.344723803264
4461.798830039766,14609.322519081868
4461.82203370837,15232.23171065
4461.845237497647,15753.479553207528
4461.868441407595,15973.822001449345
4461.891645438215,16253.869892236904
4461.914849589509,16163.072135681528
4461.938053861475,15918.774067241684
4461.961258254117,16019.881934176867
4461.984462767433,16269.150758698413
4462.007667401424,16514.312992657186
4462.030872156092,17330.650450250807
4462.0540770314365,18084.398941176096
4462.077282027459,19215.11213804437
4462.100487144158,20095.260190723275
4462.123692381537,21076.640022274893
4462.146897739594,21971.3599214144
4462.170103218332,22534.88986189012
4462.19330881775,22972.82683014207
4462.21651453785,23288.955326919626
4462.239720378631,23706.66179184034
4462.262926340095,23725.086036608896
4462.286132422241,23604.944862229768
4462.309338625071,23276.919154809788
4462.3325449485865,23177.000470630242
4462.355751392785,22541.26075210377
4462.3789579576705,22016.63350296289
4462.402164643242,21761.829718088462
4462.4253714495,21695.25916513971
4462.448578376446,21944.123587186252
4462.471785424079,22670.257043513582
4462.494992592401,23377.52737139076
4462.518199881412,24397.847862072136
4462.541407291114,25373.122343393796
4462.564614821506,26285.85688539935
4462.587822472589,27297.3960423307
4462.611030244365,27873.371930358382
4462.634238136832,28168.832820252403
