wave,flux
4450.003811362098,9801.464241428164
4450.026953690486,9699.742314539391
4450.050096139227,9498.85065361669
4450.073238708321,9109.631033632748
4450.096381397769,8636.836825496439
4450.119524207569,8210.266823311014
4450.142667137726,7727.5942849150515
4450.165810188237,7073.070062815554
4450.188953359103,6467.905955057738
4450.212096650326,5847.443862075354
4450.2352400619075,5145.91329397692
4450.258383593846,4538.219745558823
4450.281527246142,3994.9616018446027
4450.304671018797,3559.6520311671657
4450.327814911813,3093.688128815663
4450.350958925188,2759.715467689984
4450.374103058924,2587.099005773667
4450.3972473130225,2388.4232441678746
4450.420391687483,2315.991926760825
4450.443536182305,2270.871597663725
4450.466680797492,2288.458317908347
4450.489825533042,2589.3642735032927
4450.512970388957,2869.0598464347236
4450.536115365237,3210.0531766514364
4450.559260461882,3750.371640987733
4450.582405678895,4235.1887357524765
4450.605551016274,4625.046027981512
4450.628696474022,4995.283545695144
4450.651842052138,5177.607217818995
4450.674987750623,5327.715637752957
4450.698133569476,5409.201591163738
4450.721279508702,5472.81796135682
4450.744425568297,5523.077587639976
4450.767571748264,5744.1786693873755
4450.790718048604,6060.2166921828875
4450.813864469315,6262.426645247772
4450.837011010401,6571.596165980577
4450.86015767186,7097.477162666936
4450.883304453694,7496.826886888076
4450.906451355903,7900.716098410256
4450.929598378489,8582.669831020938
4450.95274552145,9273.73513982219
4450.975892784789,10022.827607555402
4450.999040168505,10420.955146446908
4451.022187672601,10818.216049275243
4451.045335297074,11186.646582927699
4451.068483041929,11410.27903369308
4451.091630907163,11417.108473299491
4451.114778892777,11439.193656099196
4451.137926998774,11457.828958599288
4451.161075225153,11459.16723099817
4451.184223571914,11313.929436252889
4451.207372039059,10840.37595886551
4451.230520626587,10829.37301547834
4451.253669334501,10498.063537499236
4451.2768181628,10064.666660246177
4451.299967111485,9618.004147036045
4451.323116180556,9183.293948818779
4451.346265370014,8620.863462193802
4451.369414679861,7949.157737571698
4451.392564110095,7381.258466452952
4451.415713660719,6790.421251614308
4451.438863331732,6154.071998644245
4451.462013123136,5576.185536150169
4451.48516303493,5023.948304744735
4451.508313067117,4627.334307102956
4451.531463219695,4542.755575563221
4451.554613492666,4620.042619187965
4451.577763886031,4783.049130372151
4451.60091439979,5260.590632680269
4451.624065033943,6045.101150692413
4451.647215788492,6849.74930170732
4451.670366663436,7641.184758560347
4451.693517658777,8430.867665712349
4451.716668774516,8970.061220102378
4451.739820010652,9236.578904617569
4451.762971367186,9432.616399130591
4451.78612284412,9513.66348211665
4451.8092744414525,9345.84563945533
4451.832426159187,8984.899445697032
4451.855577997321,8687.305246631535
4451.878729955857,8334.539549984636
4451.901882034796,7821.139992346013
4451.925034234137,7489.151586582212
4451.948186553881,7385.956749881188
4451.97133899403,7320.224056392583
4451.994491554583,7571.501292282633
4452.017644235542,7935.96249336457
4452.040797036907,8399.806837653776
4452.063949958678,8816.508203169617
4452.087103000857,9242.385549484794
4452.1102561634425,10050.01589812208
4452.133409446437,10264.71822450976
4452.156562849841,10820.65134212432
4452.179716373655,10988.134356346745
4452.202870017878,11081.079230114836
4452.226023782513,11207.976051561773
4452.24917766756,11325.873182990043
4452.272331673018,11363.733744168609
4452.29548579889,11325.318123857922
4452.318640045174,11093.611424922854
4452.341794411874,11064.712688656533
4452.364948898987,10981.246009472354
4452.388103506516,10639.204238048078
4452.4112582344615,10283.340914155355
4452.434413082823,9806.680342596104
4452.457568051602,9602.792394296848
4452.480723140799,9242.481690121971
4452.503878350413,8651.955061916957
4452.527033680448,8218.348280861994
4452.550189130902,7697.291529334395
4452.5733447017765,7377.7941584086
4452.596500393071,7143.647322214663
4452.619656204789,6861.549542938774
4452.642812136928,6844.5031128108985
4452.66596818949,6852.413874905952
4452.689124362475,6784.542103023901
4452.7122806558855,6737.393950489407
4452.735437069719,6984.772749449868
4452.7585936039795,7271.160115215643
4452.781750258665,7613.430975234181
4452.804907033777,7940.099219439946
4452.828063929317,7992.623307405146
4452.851220945285,8033.046795234711
4452.87437808168,7984.769809520384
4452.897535338506,7917.8981185038965
4452.92069271576,7812.011438782455
4452.943850213445,7570.441264374878
4452.967007831562,7371.451705510586
4452.99016557011,7228.015849718904
4453.01332342909,7319.898867351216
4453.036481408502,7528.865190834058
4453.059639508349,7697.221737951152
4453.08279772863,7817.910700642869
4453.105956069345,7858.768728068582
4453.129114530496,7697.937055024023
4453.152273112083,7734.456295301346
4453.175431814107,7289.757845689852
4453.198590636567,6875.685792094829
4453.221749579466,6721.853726969973
4453.244908642802,6476.456872477729
4453.268067826579,6328.432888721879
4453.291227130795,6432.903415680956
4453.314386555451,6665.142992764267
4453.337546100549,7066.444067529466
4453.360705766087,7631.116820872685
4453.3838655520685,8240.451220569028
4453.407025458493,8911.584905144377
4453.430185485361,9424.43652713082
4453.453345632673,9684.749912978552
4453.476505900429,9708.844553304767
4453.4996662886315,9736.65725574347
4453.52282679728,9661.82726151858
4453.545987426375,9363.849488648237
4453.569148175917,9125.860061262289
4453.592309045907,8971.815120733872
4453.615470036346,8732.87541057067
4453.638631147233,8476.15746323429
4453.661792378571,8327.61491685538
4453.684953730359,8263.559275635538
4453.708115202598,8421.585421520198
4453.731276795288,8811.7470659416
4453.754438508431,9224.47506728226
4453.777600342027,9680.341603623532
4453.800762296077,10100.716263961896
4453.82392437058,10409.460470979227
4453.847086565538,10720.84158397596
4453.870248880952,10995.527887997268
4453.8934113168225,11018.879288674876
4453.916573873149,11143.141791784592
4453.939736549933,11152.237967072506
4453.962899347174,11071.50170079957
4453.986062264875,11166.528072825071
4454.009225303034,11103.669138046536
4454.032388461654,10639.143418520927
4454.055551740734,10386.295126712103
4454.078715140275,9972.665659332188
4454.101878660277,9644.313609858153
4454.125042300742,9120.462898553727
4454.14820606167,8516.130091980649
4454.171369943061,7909.181459046449
4454.194533944917,7344.137622508355
4454.2176980672375,6598.804602503916
4454.240862310024,5971.422085289527
4454.264026673275,5466.785772650688
4454.287191156994,4790.004277074541
4454.31035576118,4244.677129484621
4454.333520485834,3937.4854085232796
4454.356685330957,3772.4147105467255
4454.379850296548,3704.569609169317
4454.40301538261,3881.6928342512124
4454.426180589142,4168.199430985032
4454.449345916145,4559.7729081059815
4454.4725113636205,4957.907409412938
4454.495676931568,5047.116861606034
4454.5188426199875,4938.806193904189
4454.542008428882,4741.374952612335
4454.565174358249,4503.315981034194
4454.588340408092,4127.433472857135
4454.611506578411,3623.9973052030396
4454.634672869205,3151.7656225425776
4454.657839280476,2806.3943738158705
4454.681005812225,2555.290356674841
4454.704172464451,2274.8256581843143
4454.727339237156,2204.7662940502455
4454.750506130341,2223.387176364955
4454.773673144005,2303.5260371610934
4454.79684027815,2548.8342977481952
4454.820007532776,2819.7891671930447
4454.843174907884,3208.4938885421757
4454.866342403473,3608.927118738144
4454.889510019546,3903.8487352657885
4454.912677756102,4184.01125595698
4454.935845613144,4314.387287580219
4454.959013590669,4415.862556546743
4454.982181688681,4600.826848872056
4455.005349907178,4870.033369351501
4455.028518246162,5212.808782624221
4455.051686705633,5511.999812568186
4455.074855285593,5884.508700744804
4455.098023986041,6178.47076912154
4455.121192806979,6375.874241025429
4455.144361748406,6531.260805399266
4455.167530810323,6365.310739254546
4455.190699992732,6161.223999730507
4455.213869295633,6000.265881327554
4455.237038719026,5724.810763271384
4455.260208262912,5551.1779460465195
4455.283377927292,5611.645312769006
4455.306547712166,5820.034402393157
4455.329717617535,6310.890422301027
4455.352887643399,7006.375069997085
4455.37605778976,7677.88029858431
4455.399228056617,8364.274591866182
4455.422398443972,8869.108586857556
4455.445568951825,9292.068234396109
4455.468739580177,9358.074446930312
4455.491910329028,9452.741905679582
4455.515081198378,9184.374227146041
4455.538252188229,8931.122426407328
4455.561423298582,8608.969135405148
4455.584594529436,8111.036389179664
4455.607765880793,7621.449547866383
4455.630937352652,6945.189471218003
4455.654108945016,6426.6561975571285
4455.677280657883,5865.766687830495
4455.700452491255,5442.276381628176
4455.723624445134,4930.20509548066
4455.746796519518,4550.802036230737
4455.7699687144095,4130.651642477556
4455.793141029808,3680.6130015964172
4455.816313465714,3515.607970885732
4455.83948602213,3358.7779762945042
4455.862658699055,3667.2568022228606
4455.885831496489,3953.6846046000455
4455.909004414434,4579.798140268084
4455.932177452891,5193.539967115436
4455.955350611858,5975.562222195418
4455.978523891339,6779.123608264872
4456.001697291333,7551.555402729077
4456.024870811841,8170.567122923646
4456.048044452862,8572.100009647907
4456.071218214399,8613.107284361096
4456.094392096451,8823.373294975754
4456.117566099019,8648.183298220696
4456.140740222105,8507.901627391837
4456.163914465707,8191.9771652387835
4456.187088829828,7818.77515777742
4456.210263314468,7370.095159232986
4456.233437919626,6947.250462887131
4456.256612645306,6375.072852035543
4456.279787491505,5877.473636228526
4456.302962458226,5440.930819907409
4456.326137545469,5266.34078064592
4456.349312753233,5190.133051152693
4456.372488081522,5388.4105224083605
4456.395663530333,5537.880512830225
4456.41883909967,5711.792254542227
4456.442014789531,5957.164299547197
4456.465190599917,6048.4630926896525
4456.488366530831,6102.227680802425
4456.5115425822705,6024.502248752095
4456.5347187542375,5920.648660742885
4456.557895046733,5813.418826116469
4456.581071459757,5709.829260823212
4456.604247993311,5831.335581594501
4456.627424647395,6101.680607655543
4456.650601422009,6591.2103492284705
4456.673778317154,7208.426508031663
4456.696955332832,7908.518394634072
4456.720132469041,8645.51413793975
4456.7433097257845,9060.682898595796
4456.766487103061,9476.611050821544
4456.789664600872,9708.478617438073
4456.8128422192185,9778.018215036042
4456.8360199581,9698.177163068645
4456.859197817518,9517.97578874603
4456.882375797473,9201.44585788191
4456.905553897966,8989.931189897343
4456.928732118997,8917.079024115283
4456.951910460566,8666.705858000194
4456.975088922674,8440.413519805934
4456.998267505323,8232.612966066754
4457.021446208513,8274.050567384878
4457.044625032244,8404.048380907025
4457.067803976516,8528.359386558563
4457.090983041332,8753.072435535358
4457.1141622266905,8943.322051575264
4457.1373415325925,9092.787304654588
4457.160520959039,9065.594357169246
4457.183700506031,8836.086206699676
4457.206880173568,8474.941989823566
4457.230059961651,8080.477094714676
4457.2532398702815,7702.208779257331
4457.27641989946,7196.328437769937
4457.299600049186,6528.028968828492
4457.322780319461,5977.53378699937
4457.345960710286,5424.466550333904
4457.36914122166,4823.9612060920745
4457.392321853586,4471.629675139834
4457.415502606062,4306.928881389769
4457.43868347909,4250.801159408914
4457.461864472672,4426.372360362236
4457.485045586805,4853.572823025261
4457.508226821494,5404.615069116309
4457.5314081767365,5951.286524664394
4457.554589652534,6664.241958214195
4457.577771248887,7410.888916126695
4457.600952965797,8072.091000001596
4457.624134803263,8608.761997703543
4457.647316761288,9070.73604116049
4457.67049883987,9474.609099674317
4457.693681039011,9580.144939980008
4457.716863358712,9573.043249212797
4457.7400457989725,9532.913252726832
4457.763228359793,9523.61213848061
4457.7864110411765,9334.782088107977
4457.809593843121,9099.3372665429
4457.832776765628,8866.656462658735
4457.855959808699,8802.31743764132
4457.879142972333,8492.605371312002
4457.902326256532,7906.044625161161
4457.925509661296,7505.324377428888
4457.948693186626,6912.7946734641555
4457.971876832522,6354.485326766472
4457.995060598985,5865.426810893065
4458.018244486016,5415.780233408474
4458.041428493615,5018.288599013574
4458.0646126217825,4937.365310272499
4458.08779687052,4777.119544891754
4458.110981239827,4790.778856528622
4458.134165729705,4841.303468028351
4458.157350340155,5027.69706596854
4458.180535071177,5197.157330509088
4458.203719922771,5477.711837999959
4458.226904894938,5676.741228336259
4458.2500899876795,5924.034416929261
4458.273275200995,6163.000890663416
4458.296460534886,6583.989925650312
4458.3196459893525,7049.150398111622
4458.342831564396,7425.68312556138
4458.366017260016,7491.5948096205175
4458.389203076214,7585.186269241758
4458.4123890129895,7451.238389770471
4458.435575070344,7291.461451135455
4458.458761248279,6985.34792870681
4458.481947546794,6976.381418578752
4458.505133965889,7065.954705315046
4458.528320505566,7293.871863067405
4458.551507165825,7644.298211212018
4458.574693946666,8165.199891928244
4458.597880848091,8905.195874994975
4458.6210678701,9513.546821979293
4458.644255012693,9909.239389927392
4458.6674422758715,10019.184721533256
4458.690629659636,9987.338008382894
4458.713817163986,9790.537854733351
4458.737004788924,9535.724307958733
4458.76019253445,9161.877825748717
4458.783380400563,8901.589075853046
4458.8065683872655,8249.713562632925
4458.829756494558,7606.796293858833
4458.85294472244,7085.792002494447
4458.876133070914,6285.921677543127
4458.899321539979,5595.797206518332
4458.922510129635,4993.976641991166
4458.945698839884,4283.2831517177865
4458.968887670727,3565.9771141589354
4458.992076622164,3018.0874844361056
4459.015265694195,2654.9084227978587
4459.0384548868215,2347.520968424384
4459.061644200044,2215.0738673693118
4459.084833633862,2284.063416260101
4459.108023188278,2388.8828475749874
4459.131212863292,2635.3435962092253
4459.154402658904,2962.553217014789
4459.177592575114,3332.3305192822177
4459.200782611925,3810.837571977998
4459.223972769336,4232.342648848245
4459.247163047347,4660.907131864174
4459.27035344596,5062.900066279364
4459.293543965176,5345.424932156858
4459.316734604993,5719.63896218414
4459.339925365414,6123.363771827994
4459.363116246439,6649.6594082559295
4459.386307248069,7298.164626382965
4459.409498370304,7946.304280511512
4459.432689613145,8613.90133011245
4459.455880976592,9129.340689342665
4459.479072460647,9450.14716596563
4459.502264065309,9614.161712793006
4459.52545579058,9746.7003060262
4459.5486476364595,9604.869818301331
4459.571839602949,9357.260587540286
4459.595031690048,9218.809700987651
4459.618223897759,8739.26264504104
4459.641416226081,8364.975625174759
4459.664608675014,8167.736712305258
4459.687801244561,7817.437354293942
4459.710993934721,7532.470863002854
4459.734186745496,7699.866487884085
4459.757379676885,8040.490734660723
4459.780572728889,8361.373027809766
4459.803765901509,8784.327768910429
4459.8269591947455,9207.719708261904
4459.850152608599,9636.509227767852
4459.87334614307,9877.168896881189
4459.89653979816,9871.291615059334
4459.91973357387,9826.171533293546
4459.942927470198,9592.457854281987
4459.966121487147,9201.094564475798
4459.989315624717,8668.132594203378
4460.0125098829085,8297.60111009993
4460.035704261722,7696.913037411751
4460.058898761158,7085.5431268619095
4460.082093381218,6491.931992943584
4460.105288121902,5900.143188619694
4460.12848298321,5293.871782660502
4460.151677965145,4696.960019520879
4460.1748730677045,4387.060246389952
4460.198068290891,4139.936165056667
4460.221263634704,4191.291691751451
4460.244459099145,4424.717545460374
4460.267654684215,4910.173353293146
4460.290850389914,5469.90363434484
4460.314046216243,6168.78968304402
4460.337242163202,6884.842333771987
4460.360438230791,7719.637441980694
4460.383634419013,8493.761057332009
4460.406830727867,9164.529528036706
4460.430027157354,9781.678372839004
4460.453223707474,10181.871633639434
4460.476420378228,10464.85707394363
4460.499617169617,10807.211420145282
4460.522814081641,10893.232068300313
4460.5460111143,10972.469774535562
4460.569208267598,11010.2928862558
4460.592405541532,10925.968639652072
4460.615602936104,10968.00996969202
4460.638800451314,10866.056535917307
4460.661998087163,10706.331586666978
4460.685195843652,10513.164590750022
4460.708393720782,10324.06111002595
4460.731591718552,10149.707992248374
4460.754789836965,10082.650374419556
4460.777988076019,9995.654899369854
4460.801186435716,9796.873268570334
4460.824384916057,9606.274161919378
4460.847583517042,9420.287672394534
4460.870782238671,9189.45963858557
4460.893981080947,8722.084146159912
4460.917180043868,8182.109718893021
4460.940379127435,7587.9223752273165
4460.963578331651,7016.628992748753
4460.986777656513,6335.096030113385
4461.009977102025,5606.380334084937
4461.033176668186,5023.837189166155
4461.056376354995,4482.6536129542055
4461.079576162457,4043.8614047793976
4461.102776090568,3769.4246344343837
4461.125976139332,3646.003468013498
4461.149176308748,3559.680021886957
4461.172376598816,3600.1060402839744
4461.195577009538,3637.6296713899574
4461.218777540915,3777.167448557137
4461.241978192946,3899.9018576536687
4461.265178965633,4079.1830508193893
4461.2883798589755,4203.7210595633505
4461.311580872974,4168.323807692863
4461.3347820076315,4223.935719556885
4461.357983262946,4005.058821923178
4461.381184638919,3757.8009968130423
4461.404386135551,3645.0171169703713
4461.4275877528435,3417.8210088760375
4461.4507894907965,3305.7335804943687
4461.4739913494095,3142.546484111733
4461.497193328685,3079.0106419799195
4461.520395428623,2951.1553899296423
4461.543597649224,2790.6719978486694
4461.566799990488,2551.4350134672227
4461.590002452416,2458.475549081038
4461.61320503501,2412.4640454127066
4461.636407738269,2477.540297132991
4461.659610562193,2718.952358319416
4461.682813506784,3068.1103823819753
4461.706016572044,3449.220107362619
4461.729219757971,3919.337931916397
4461.752423064566,4434.388560563918
4461.775626491831,4935.148648209422
4461.798830039766,5157.608916990072
4461.82203370837,5180.691998581701
4461.845237497647,5131.851713759984
4461.868441407595,4992.050148835237
4461.891645438215,4854.530074534756
4461.914849589509,4524.962661085797
4461.938053861475,4308.09949947993
4461.961258254117,4073.6260814385264
4461.984462767433,4157.163582805236
4462.007667401424,4296.846563219416
4462.030872156092,4725.66140388497
4462.0540770314365,5313.92079026515
4462.077282027459,5801.803317909148
4462.100487144158,6356.598169839088
4462.123692381537,6777.068801311607
4462.146897739594,6830.1473387757205
4462.170103218332,7075.710741441554
4462.19330881775,7043.613345540161
4462.21651453785,7110.89729638634
4462.239720378631,6958.85957247076
4462.262926340095,6874.607040551527
4462.286132422241,6656.666837121181
4462.309338625071,6384.843272957091
4462.3325449485865,6035.636351775217
4462.355751392785,5675.78788367399
4462.3789579576705,5493.207190715652
4462.402164643242,5495.501587891941
4462.4253714495,5566.39229939547
4462.448578376446,6068.544868904674
4462.471785424079,6600.5383775810205
4462.494992592401,7164.872701697126
4462.518199881412,7864.5476720402385
4462.541407291114,8456.234698694258
4462.564614821506,9041.755392166036
4462.587822472589,9477.510734944919
4462.611030244365,9520.873431496062
4462.634238136832,9465.322052846219
4462.657446149992,9384.869878588395
4462.680654283847,9279.68376735032
4462.703862538396,9094.725594931575
4462.727070913639,8974.582923883292
4462.750279409578,8796.091557024833
4462.773488026214,8448.8941124833
4462.796696763546,7975.283427660296
