wave,flux
5000.025812696027,20902.875282075936
5000.051815424163,20102.828535565557
5000.0778182875265,19454.17423298699
5000.103821286119,18450.413141078476
5000.12982441994,17281.119874050888
5000.155827688991,16360.557106373326
5000.181831093272,15327.098073395402
5000.207834632784,14406.11082845471
5000.2338383075285,13772.725897106113
5000.259842117506,13096.827385974513
5000.285846062716,12737.598713889185
5000.311850143161,12714.24217025623
5000.33785435884,12801.397957916492
5000.363858709754,13329.606916603492
5000.389863195905,14256.721461985035
5000.415867817292,15310.088125090266
5000.441872573917,16281.455186595746
5000.4678774657805,17207.304804599615
5000.493882492882,18044.1974569892
5000.519887655224,18443.54723476289
5000.545892952806,18493.896705117124
5000.571898385629,18414.9323966718
5000.597903953694,18086.60031660716
5000.623909657001,17675.24103340897
5000.649915495552,17232.722618756183
5000.675921469346,16638.37307162027
5000.701927578384,16207.231541431056
5000.727933822669,16127.194341886136
5000.7539402021985,16007.882945159321
5000.779946716975,16302.596560857197
5000.805953366999,16659.247597423964
5000.831960152272,17024.428458279748
5000.857967072792,17224.11498801096
5000.883974128563,17463.677768428486
5000.9099813195835,17723.308840474325
5000.935988645855,17923.306226704008
5000.961996107378,18268.317766149714
5000.988003704153,18611.82728266007
5001.014011436181,18925.594695911346
5001.040019303464,19671.939113696248
5001.066027306,20350.806967748475
5001.092035443791,20833.069046249882
5001.118043716839,21166.427741789696
5001.1440521251425,21222.734277952757
5001.170060668704,21141.162113718383
5001.196069347523,21234.60589682997
5001.222078161601,20833.337053215662
5001.248087110937,20731.62304177509
5001.274096195534,20577.769084741005
5001.300105415392,20333.84991111064
5001.326114770512,20112.47193983282
5001.352124260892,19837.481977063322
5001.3781338865365,19521.71873550107
5001.4041436474445,19120.13602887977
5001.430153543616,18724.16457512857
5001.456163575053,18300.294563150866
5001.482173741756,17997.20154563108
5001.508184043724,17706.549067079246
5001.534194480961,17646.6903898497
5001.560205053464,17251.000889632818
5001.586215761236,16730.04085703368
5001.612226604278,16056.67002640782
5001.638237582589,15231.438843782176
5001.664248696171,14349.99919484865
5001.690259945024,13250.407855419358
5001.716271329149,12116.719076428777
5001.742282848547,11062.868364509664
5001.768294503218,10137.808719741288
5001.794306293164,9491.339559842805
5001.820318218383,9166.844324406768
5001.84633027888,9345.829660530992
5001.872342474651,10056.02888366268
5001.8983548056995,10989.781795726629
5001.924367272026,12391.397831813638
5001.9503798736305,14169.924584493569
5001.976392610514,15815.927850626656
5002.002405482678,17579.380036397513
5002.028418490122,18970.619659068332
5002.054431632847,20034.620354800634
5002.080444910854,20846.900585330954
5002.106458324142,21583.71581151745
5002.1324718727155,21987.31075155661
5002.158485556572,22182.54465060569
5002.184499375713,22333.947603474317
5002.210513330139,22406.008012284965
5002.236527419852,22543.141907629273
5002.262541644852,22568.511633646107
5002.288556005138,22312.23915525756
5002.314570500714,22058.452681149225
5002.340585131577,21864.77487905735
5002.36659989773,21620.901281796992
5002.392614799174,21360.18055888439
5002.418629835909,20930.501349437847
5002.444645007936,20534.94445732144
5002.4706603152545,19976.119558603852
5002.496675757866,19321.06042136017
5002.522691335772,18756.81060272964
5002.548707048972,17929.863646448805
5002.574722897468,17148.476383075864
5002.600738881259,16383.024988519004
5002.626755000347,15491.932387110855
5002.652771254732,14759.309574540393
5002.678787644415,14107.445207882707
5002.704804169397,13551.080220460684
5002.730820829678,13165.995702241844
5002.75683762526,13172.33798788158
5002.782854556142,13460.25588766448
5002.8088716223265,14145.388162596462
5002.834888823812,15150.08359706927
5002.860906160601,16644.168020938083
5002.886923632695,18128.43410195349
5002.912941240092,19417.27695390501
5002.938958982793,20642.81024965061
5002.9649768608015,21478.463970601024
5002.990994874116,22001.449967667268
5003.017013022737,22385.99085186998
5003.043031306666,22702.320728646835
5003.069049725905,22854.400118028952
5003.095068280452,22991.993309621517
5003.121086970309,23072.72135801417
5003.147105795477,22765.548022772877
5003.173124755956,22964.72695577486
5003.199143851748,22995.823851399942
5003.225163082852,22986.48767418608
5003.251182449269,22895.514500963105
5003.277201951001,22797.2250070302
5003.3032215880485,22868.16525022881
5003.32924136041,22652.92146413852
5003.35526126809,22561.710394422716
5003.381281311085,22289.16943932599
5003.407301489398,22045.76645716946
5003.433321803031,21800.593441035406
5003.459342251982,21642.385510908025
5003.4853628362525,21439.811988806694
5003.511383555844,21173.55563057432
5003.537404410757,20921.049866421377
5003.563425400991,20435.667497260023
5003.589446526548,19880.995325348755
5003.615467787429,19291.69609038944
5003.641489183634,18707.124298219678
5003.667510715163,18384.9195128913
5003.693532382018,17891.27238959955
5003.719554184199,17355.19944724422
5003.745576121707,17406.31174407672
5003.771598194542,17616.55020555333
5003.797620402706,17814.693693754576
5003.823642746199,18158.958610884965
5003.849665225021,18305.94660190872
5003.875687839174,18277.24233122323
5003.901710588658,18170.02183917367
5003.927733473473,17969.527125419023
5003.953756493622,17635.69072379996
5003.979779649103,17181.39944409589
5004.005802939919,16877.849030836314
5004.031826366068,16899.71373854303
5004.057849927553,17116.187311276968
5004.083873624375,17633.48138234183
5004.109897456533,18371.300885265893
5004.135921424028,18899.12248054135
5004.161945526862,19517.192043716605
5004.187969765035,19954.605877236107
5004.213994138547,20247.710949372256
5004.240018647399,20315.778054061553
5004.266043291592,20422.149495087957
5004.292068071127,20488.15896074712
5004.318092986004,20711.040147599037
5004.344118036223,20876.180256696705
5004.370143221788,21100.285010175794
5004.396168542696,21421.788609018997
5004.422193998949,21773.567442221436
5004.448219590549,22167.70682586713
5004.474245317495,22458.723021980233
5004.500271179789,22584.454654577745
5004.52629717743,22689.894428934695
5004.5523233104195,22943.10820940186
5004.578349578759,22823.343636654554
5004.604375982449,22691.351076738825
5004.630402521489,22899.3678372658
5004.656429195881,22709.02081718973
5004.682456005625,22464.645461197175
5004.708482950721,22294.204267405275
5004.734510031172,22305.638940426157
5004.760537246977,21849.829592635593
5004.7865645981365,21295.45710679238
5004.812592084652,20872.904201501857
5004.838619706525,20457.361981835256
5004.8646474637535,19893.37363772948
5004.890675356341,19379.03520268784
5004.916703384286,18807.086904437016
5004.942731547591,18133.4000271331
5004.968759846256,17662.400540913877
5004.994788280281,17040.675816553856
5005.020816849668,16241.721923869047
5005.046845554417,15504.159594518782
5005.072874394528,14980.903908041988
5005.098903370003,14233.949005727569
5005.124932480842,14080.273379413497
5005.150961727047,13876.629789227316
5005.176991108617,14355.264026647246
5005.203020625552,15158.568280154805
5005.229050277856,16230.406038141957
5005.255080065526,17215.69582396547
5005.281109988566,18322.088520872017
5005.3071400469735,19141.2939499132
5005.333170240751,19519.81027967574
5005.3592005699,19361.788197210146
5005.38523103442,18920.203520477073
5005.411261634312,18486.718127848806
5005.4372923695755,17706.993191852154
5005.463323240213,16632.863861618476
5005.489354246225,15625.46094869968
5005.515385387611,14556.777999144573
5005.541416664373,13476.010961815691
5005.567448076511,12434.434077128284
5005.593479624025,11280.536310292438
5005.619511306918,10295.76130473059
5005.645543125189,9611.545279529073
5005.671575078838,9186.414433579312
5005.697607167867,8988.751448023362
5005.723639392277,9290.52147856114
5005.749671752068,9795.323308753681
5005.77570424724,10518.954808976547
5005.8017368777955,11294.137120192243
5005.8277696437335,11814.910879220588
5005.853802545055,12044.67991103853
5005.879835581762,12011.15775168641
5005.905868753854,11692.764158595653
5005.931902061331,11094.923395984692
5005.957935504196,10324.794032355863
5005.983969082448,9460.390492055261
5006.010002796088,8514.857515108873
5006.036036645117,7908.468269706714
5006.062070629536,7678.206275470171
5006.088104749344,7568.553319244893
5006.114139004544,8014.881747630188
5006.140173395135,8993.018906638563
5006.166207921118,10197.460111192597
5006.192242582495,11773.144621717302
5006.218277379266,13624.556424315393
5006.244312311431,15362.022029781254
5006.270347378991,17031.48314998582
5006.296382581946,18594.752385895976
5006.322417920299,19834.81607121626
5006.348453394048,20714.44928422207
5006.374489003196,21275.057539221772
5006.400524747743,21646.858364963082
5006.426560627688,22007.766306373043
5006.452596643034,22179.347261899555
5006.47863279378,22118.41197919032
5006.504669079928,22278.362003415656
5006.530705501478,22354.247375803778
5006.556742058431,21962.29734243796
5006.582778750788,22167.653163313083
5006.608815578549,22128.556094229312
5006.634852541715,22033.42255851405
5006.660889640287,21989.099855495228
5006.686926874265,21903.844523531367
5006.71296424365,21918.40549741916
5006.739001748444,21983.203252862808
5006.765039388645,21676.826663894168
5006.791077164256,21629.248443900684
5006.817115075277,21253.922455024098
5006.843153121708,20922.656219816996
5006.869191303552,20303.758857218167
5006.895229620806,19625.386111338972
5006.921268073474,18888.389384219143
5006.947306661555,17763.6595463185
5006.97334538505,16586.81308550469
5006.999384243961,15535.160700268516
5007.025423238286,14456.199100555214
5007.051462368028,13156.603918888097
5007.077501633187,11910.317482591441
5007.103541033764,10703.503952265046
5007.129580569759,9703.630367211508
5007.155620241173,8830.371633383602
5007.181660048007,8219.301417596474
5007.207699990262,8303.039211223111
5007.233740067937,8650.001746315202
5007.259780281035,9476.90138407773
5007.285820629555,10772.431821952116
5007.311861113499,12164.421431484856
5007.337901732866,13950.243455615764
5007.363942487658,15634.38637435574
5007.389983377876,17220.80408667745
5007.41602440352,18627.304169642925
5007.442065564591,19661.80819877463
5007.468106861089,20416.17266525045
5007.494148293015,20897.907574792127
5007.520189860371,21049.611617612463
5007.546231563156,21076.277235631936
5007.572273401372,21097.88693479518
5007.598315375018,20955.681531701262
5007.624357484096,20793.584099995198
5007.650399728607,20671.59586171943
5007.676442108551,20336.301644546405
5007.702484623929,20295.76854203717
5007.728527274741,20708.81157639345
5007.754570060989,20844.393324055512
5007.780612982673,21321.20674393589
5007.806656039793,21674.348101444117
5007.832699232351,22531.073114353432
5007.858742560347,22994.954244382297
5007.884786023782,23366.749359463716
5007.910829622656,23514.753602291592
5007.936873356971,23511.27904423188
5007.962917226726,23665.727344343315
5007.988961231923,23658.4174765962
5008.015005372563,23597.222232001346
5008.041049648646,23765.828763119815
5008.067094060171,23866.71978002052
5008.0931386071425,23876.097325207695
5008.119183289558,23877.270986799995
5008.14522810742,23868.25042870829
5008.171273060728,24136.486231387767
5008.197318149483,24204.806976427975
5008.223363373687,23944.439967810875
5008.249408733339,24071.01835356187
5008.27545422844,24014.75176320111
5008.301499858992,24228.150076549384
5008.327545624995,24081.222970545037
5008.353591526448,23890.78066348777
5008.379637563355,23784.252103838677
5008.405683735714,23597.21387956466
5008.431730043527,23420.43861562753
5008.457776486794,23251.877192533768
5008.483823065515,22940.256732387603
5008.509869779693,22896.601918226123
5008.535916629327,22663.423843232496
5008.561963614418,22432.200195027035
5008.588010734968,22480.568869261646
5008.614057990975,22361.893333890806
5008.640105382442,22220.65060253317
5008.666152909369,22456.525976290544
5008.692200571756,22836.674833264733
5008.718248369605,23100.954386331763
5008.744296302916,23362.83247919757
5008.77034437169,23728.61027713033
5008.796392575927,23894.79500872538
5008.822440915628,23879.95159159684
5008.848489390794,23855.09515714622
5008.874538001426,23793.81201797226
5008.900586747524,23833.67062054298
5008.926635629089,23946.731586226855
5008.952684646122,23915.912822776023
5008.978733798623,23901.44412158304
5009.004783086593,23842.74474550592
5009.030832510033,23790.224911800757
5009.056882068944,23915.748825164977
5009.082931763326,23861.88123576314
5009.108981593179,23910.71456259931
5009.135031558506,23876.697498277044
5009.161081659306,23828.03747814528
5009.187131895579,23795.140597399317
5009.213182267327,23607.236606792867
5009.239232774552,23456.742896390555
5009.265283417251,23427.711323680163
5009.291334195428,23434.552902210227
5009.317385109083,23385.41154520381
5009.343436158216,23101.336074341467
5009.369487342828,22711.09588610872
5009.395538662919,22360.09313200774
5009.421590118491,22037.0218748568
5009.447641709544,21771.94220991455
5009.473693436078,21547.935896209503
5009.499745298095,20990.93181362172
5009.525797295596,20674.781486746582
5009.55184942858,20450.9633084273
5009.577901697049,20197.612744755945
5009.603954101003,20206.465782192114
5009.630006640443,20065.91637214447
5009.65605931537,20064.55923019306
5009.682112125784,20510.225815899303
5009.708165071686,20777.880904989463
5009.7342181530785,20958.902860396873
5009.760271369959,21165.43256805361
5009.78632472233,21163.933882154586
5009.812378210192,20826.449744963546
5009.838431833546,20513.014912314542
5009.864485592391,19959.418608435768
5009.890539486731,19232.363465362287
5009.916593516564,18598.88418965581
5009.942647681891,17677.875300838336
5009.968701982713,16654.35283386794
5009.994756419032,15977.755365988281
5010.020810990847,15519.516544157126
5010.046865698159,15072.107596183178
5010.072920540969,14738.679711238537
5010.098975519279,14683.01323608987
5010.125030633087,14550.313285330925
5010.151085882395,14649.071160432033
5010.177141267204,14848.259123686059
5010.2031967875155,15216.727717489763
5010.229252443328,15820.021135904024
5010.255308234644,16811.073616859176
5010.281364161464,17777.795815831094
5010.307420223788,19116.99670613399
5010.333476421617,20467.696504832067
5010.359532754951,21418.242117966078
5010.3855892237925,22077.27387332394
5010.4116458281405,22648.011370904052
5010.437702567997,23285.860716734835
5010.463759443362,23439.0552384954
5010.489816454236,23424.71334835944
5010.51587360062,23578.90214840784
5010.541930882514,23677.227962349094
5010.56798829992,23531.58304952902
5010.5940458528385,23235.027544359644
5010.62010354127,22870.339364488398
5010.646161365214,22468.66772191457
5010.672219324672,22160.316158130354
5010.698277419646,21640.828639745014
5010.724335650135,20918.277426510158
5010.7503940161405,20335.08201889609
5010.7764525176635,19574.10122751383
5010.802511154703,18774.666339777556
5010.828569927262,18230.160316648507
5010.85462883534,17637.100311568047
5010.880687878937,17244.492125581142
5010.906747058056,17131.60749982422
5010.932806372695,17355.88513879619
5010.958865822856,17880.08613297422
5010.98492540854,18839.074403526556
5011.0109851297475,19926.695791721057
5011.0370449864795,21011.24664996958
5011.063104978735,21887.805978215463
5011.089165106517,22690.403221341156
5011.115225369825,23015.061066253784
5011.14128576866,23286.83967900331
5011.167346303022,23653.026299477995
5011.193406972913,23722.235528883608
5011.219467778333,23622.243951574485
5011.2455287192815,23706.99526528576
5011.271589795761,23885.069447619557
5011.297651007772,24013.467254710034
5011.323712355315,23960.583294045307
5011.34977383839,23834.851693592802
5011.375835456999,23644.767942187937
5011.401897211142,23402.71487566663
5011.427959100819,23399.65375856566
5011.454021126031,22946.65984177758
5011.4800832867795,22843.25652546243
5011.506145583065,22522.60877556039
5011.532208014888,22147.258794817393
5011.558270582248,21694.737323979756
5011.584333285148,21189.365838109996
5011.610396123588,20582.754348069582
5011.636459097567,19764.827364917113
5011.662522207088,19289.348112117645
5011.68858545215,18392.888608744375
5011.714648832754,17658.905675001573
5011.740712348902,16903.281474866704
5011.766776000594,16157.73841037095
5011.79283978783,15313.978008259268
5011.818903710611,14495.791525039738
5011.844967768939,13515.86866629558
5011.871031962813,12410.738472187892
5011.897096292234,11299.806645276769
5011.923160757203,10077.609619027766
5011.949225357721,8930.267173641447
5011.975290093788,7965.560787967423
5012.001354965406,7117.546106053355
5012.027419972574,6695.40123445918
5012.053485115294,6795.530951824258
5012.079550393566,7130.512215289606
5012.105615807392,7800.26265677287
5012.13168135677,8826.872073555562
5012.157747041703,9991.461317691774
5012.183812862192,11261.569103712003
5012.209878818236,12475.088675713865
5012.235944909837,13728.387909554573
5012.262011136994,14520.655440867178
5012.28807749971,14909.054879256739
5012.3141439979845,15163.734250183923
5012.340210631818,15111.154589285066
5012.366277401212,14919.469269854748
5012.392344306166,14729.186199778582
5012.418411346682,14531.099447485569
5012.44447852276,14650.424990277621
5012.470545834401,15148.478577383414
5012.496613281605,15916.685671380572
5012.522680864374,16457.77087916519
5012.548748582707,17130.22607400132
5012.574816436606,17746.307353294233
5012.600884426071,18108.085540871423
5012.626952551104,18250.73092634161
5012.653020811705,18417.841587326988
5012.679089207873,18680.715271132554
5012.705157739611,19239.663306498893
5012.73122640692,19813.738888781292
5012.757295209798,20400.362513728604
5012.7833641482475,21100.172253635064
5012.80943322227,21820.157045777833
5012.835502431864,22417.80357680816
5012.861571777033,22725.615021489935
5012.887641257775,22856.184634184643
5012.9137108740915,22935.46135799693
5012.939780625984,22893.949442892826
5012.965850513452,22714.44333417351
5012.991920536498,22312.678442922326
5013.017990695121,21760.58110170435
5013.044060989323,21226.00403147069
5013.070131419104,20454.677943386305
5013.096201984464,19792.69808978546
5013.122272685405,18867.596749035045
5013.148343521927,18191.813881806353
5013.17441449403,17281.59871770845
5013.200485601717,16386.370680369924
5013.226556844987,15632.008343346228
5013.2526282238405,15016.969247242296
5013.278699738279,14733.84834743284
5013.304771388303,14584.846984455595
5013.330843173913,14714.8336742944
5013.35691509511,15117.198948558083
5013.382987151894,15504.629880611
5013.409059344267,15785.441604348642
5013.435131672228,15742.761134026021
5013.46120413578,15605.658755273043
5013.487276734921,15097.822714043492
5013.513349469653,14322.865966968966
5013.539422339977,13434.595577256086
5013.565495345894,12535.2638989605
5013.5915684874035,11648.145752127184
5013.617641764507,10940.247197004754
5013.643715177206,10566.192726746669
5013.6697887254995,10578.591294227455
5013.695862409389,11011.371152223424
5013.721936228875,11885.785271725346
5013.748010183958,13076.670599813555
5013.77408427464,14310.207202915399
5013.800158500921,15432.821931486755
5013.826232862801,16450.54339723549
5013.852307360281,17194.556020284992
5013.8783819933615,17458.175135906935
5013.904456762045,17472.19999286706
5013.930531666329,17236.220070648622
5013.956606706218,16731.37719700463
5013.982681881709,16131.579447738473
5014.008757192805,15403.597314256027
5014.034832639507,14443.820623056114
5014.060908221814,13233.908465708204
5014.086983939728,12136.41750229978
5014.113059793249,10952.811946974116
5014.139135782378,9823.194718250814
5014.165211907116,9126.70096057723
5014.1912881674625,8757.491848425108
5014.21736456342,8786.271644457058
