wave,flux
5000.025812696027,22142.760353666
5000.051815424163,21489.998451295978
5000.0778182875265,20615.73623266387
5000.103821286119,19652.718903124467
5000.12982441994,18636.267980630444
5000.155827688991,17607.53143966924
5000.181831093272,16658.253238408488
5000.207834632784,15638.788015626369
5000.2338383075285,14723.08185036228
5000.259842117506,14178.167790485866
5000.285846062716,13699.499920813718
5000.311850143161,13152.70874336726
5000.33785435884,13467.310056218721
5000.363858709754,13629.21496897987
5000.389863195905,14331.590802379791
5000.415867817292,15404.96804074302
5000.441872573917,16125.845166946789
5000.4678774657805,17062.741905380117
5000.493882492882,18018.917073323562
5000.519887655224,18591.053836539402
5000.545892952806,18922.35280886464
5000.571898385629,19108.49344212647
5000.597903953694,18995.121860214254
5000.623909657001,18639.1787744287
5000.649915495552,18207.90307358355
5000.675921469346,17552.047660845285
5000.701927578384,17252.277191265868
5000.727933822669,16753.721831003466
5000.7539402021985,16625.33226931973
5000.779946716975,16682.6411211123
5000.805953366999,17058.909899592185
5000.831960152272,17416.939728567355
5000.857967072792,17734.154535603928
5000.883974128563,18046.49080185279
5000.9099813195835,18281.213006621434
5000.935988645855,18402.620325990672
5000.961996107378,18627.68623753048
5000.988003704153,19099.40509166991
5001.014011436181,19591.514325015476
5001.040019303464,20063.50914646052
5001.066027306,20723.79627119919
5001.092035443791,21268.368021471426
5001.118043716839,21690.714554785412
5001.1440521251425,22071.37476467919
5001.170060668704,22053.996249075866
5001.196069347523,22049.323191254083
5001.222078161601,21932.743854680382
5001.248087110937,21825.931217436402
5001.274096195534,21510.854343605453
5001.300105415392,21205.05920891395
5001.326114770512,20933.204827408343
5001.352124260892,20715.296971799522
5001.3781338865365,20465.91374430829
5001.4041436474445,20077.35569635282
5001.430153543616,19664.00805675111
5001.456163575053,19180.035409729302
5001.482173741756,18898.16464686826
5001.508184043724,18530.72786563461
5001.534194480961,18190.274374971617
5001.560205053464,17885.18690088207
5001.586215761236,17480.03900516338
5001.612226604278,16990.043064648682
5001.638237582589,16176.49120133616
5001.664248696171,15409.265166729283
5001.690259945024,14473.671571047225
5001.716271329149,13342.040405212627
5001.742282848547,12335.332231065695
5001.768294503218,11350.073303404462
5001.794306293164,10444.24565281347
5001.820318218383,9958.021793834429
5001.84633027888,9804.050828500722
5001.872342474651,10012.967502581878
5001.8983548056995,10839.848850907685
5001.924367272026,12078.813946574464
5001.9503798736305,13484.96427947452
5001.976392610514,15529.668151672702
5002.002405482678,17183.603270694675
5002.028418490122,18526.567267374998
5002.054431632847,19987.846414955366
5002.080444910854,21125.69147109523
5002.106458324142,21833.441108225037
5002.1324718727155,22478.95273313802
5002.158485556572,22915.010597627082
5002.184499375713,23189.254645393725
5002.210513330139,23336.428780902002
5002.236527419852,23221.468103571606
5002.262541644852,23182.55645326914
5002.288556005138,23350.3001949239
5002.314570500714,23343.161779886468
5002.340585131577,22914.717715690742
5002.36659989773,22417.73787889794
5002.392614799174,22205.001092958933
5002.418629835909,21849.139295508787
5002.444645007936,21490.958154641463
5002.4706603152545,21020.030117904607
5002.496675757866,20552.736421042227
5002.522691335772,19846.267507736517
5002.548707048972,19145.534236865176
5002.574722897468,18384.47257617513
5002.600738881259,17537.08179973673
5002.626755000347,16670.78072093954
5002.652771254732,15910.360976231515
5002.678787644415,15195.447660734639
5002.704804169397,14421.730782252602
5002.730820829678,13998.901187281905
5002.75683762526,13717.19614279754
5002.782854556142,13738.046234356796
5002.8088716223265,13930.884357690516
5002.834888823812,15131.75717958844
5002.860906160601,16498.843644326753
5002.886923632695,17850.99586027733
5002.912941240092,19401.9220817732
5002.938958982793,20734.5378735186
5002.9649768608015,21663.361722780035
5002.990994874116,22502.825657597525
5003.017013022737,23132.995623579158
5003.043031306666,23490.050537004445
5003.069049725905,23707.99098080714
5003.095068280452,23712.863383318738
5003.121086970309,23741.02930346262
5003.147105795477,23944.03879367188
5003.173124755956,23822.43470811858
5003.199143851748,23708.37080820318
5003.225163082852,23954.20499109432
5003.251182449269,23883.049356095165
5003.277201951001,23729.562366188384
5003.3032215880485,23737.114863956824
5003.32924136041,23655.10988853099
5003.35526126809,23450.165795220655
5003.381281311085,23235.902242486678
5003.407301489398,23061.40488864268
5003.433321803031,22914.761039946854
5003.459342251982,22623.523830201364
5003.4853628362525,22443.96265718167
5003.511383555844,22342.266363576025
5003.537404410757,21843.061524293415
5003.563425400991,21272.9157000141
5003.589446526548,20963.238634763038
5003.615467787429,20448.3055225054
5003.641489183634,19913.060859032026
5003.667510715163,19303.4276721304
5003.693532382018,18906.869238476862
5003.719554184199,18366.283688205083
5003.745576121707,18060.370502359037
5003.771598194542,18124.51939676714
5003.797620402706,18349.16989893633
5003.823642746199,18646.546198769953
5003.849665225021,18934.74014170332
5003.875687839174,19127.924638127482
5003.901710588658,19100.421158080942
5003.927733473473,18917.529079321983
5003.953756493622,18508.300649950193
5003.979779649103,18075.438311949918
5004.005802939919,17800.46214991308
5004.031826366068,17639.73323933392
5004.057849927553,17723.107424705075
5004.083873624375,17956.26411917488
5004.109897456533,18587.75740471898
5004.135921424028,19137.374356609365
5004.161945526862,19722.703563782088
5004.187969765035,20288.049081697623
5004.213994138547,20635.285324437446
5004.240018647399,21025.848491412216
5004.266043291592,21078.394017844446
5004.292068071127,21201.76362406941
5004.318092986004,21395.457090518023
5004.344118036223,21586.19725286298
5004.370143221788,21811.013938812204
5004.396168542696,21960.436522614214
5004.422193998949,22254.510943833826
5004.448219590549,22744.28964249962
5004.474245317495,23161.439190902358
5004.500271179789,23425.13834176301
5004.52629717743,23511.875683240192
5004.5523233104195,23634.66268268233
5004.578349578759,23845.984303914458
5004.604375982449,23836.496261242155
5004.630402521489,23752.672756204258
5004.656429195881,23441.41679175158
5004.682456005625,23664.18473597523
5004.708482950721,23360.2776973092
5004.734510031172,23260.976819461517
5004.760537246977,22922.604994504123
5004.7865645981365,22448.04043245458
5004.812592084652,21944.799575951263
5004.838619706525,21458.73299409186
5004.8646474637535,20986.694225929292
5004.890675356341,20313.69637736784
5004.916703384286,19716.2992028538
5004.942731547591,19176.776240409894
5004.968759846256,18497.74658779217
5004.994788280281,17938.408039808764
5005.020816849668,17259.2573949478
5005.046845554417,16683.99348621727
5005.072874394528,16132.74610083994
5005.098903370003,15191.104930975225
5005.124932480842,14778.216141582287
5005.150961727047,14592.47201402835
5005.176991108617,14656.1837472877
5005.203020625552,15322.485550246138
5005.229050277856,16163.066849838515
5005.255080065526,17196.34872738393
5005.281109988566,18324.808813315853
5005.3071400469735,19325.37499367339
5005.333170240751,19842.28438400965
5005.3592005699,20077.209395544567
5005.38523103442,19897.543495336668
5005.411261634312,19416.842636783607
5005.4372923695755,18770.686112002724
5005.463323240213,17800.07377127165
5005.489354246225,16792.831502680667
5005.515385387611,15695.028158422077
5005.541416664373,14605.33852047442
5005.567448076511,13462.008960437057
5005.593479624025,12373.163849780132
5005.619511306918,11409.542775265787
5005.645543125189,10483.482306970427
5005.671575078838,9824.742258704184
5005.697607167867,9489.101136414645
5005.723639392277,9566.005538600673
5005.749671752068,9915.202952592228
5005.77570424724,10388.187328738033
5005.8017368777955,11096.369258439003
5005.8277696437335,11871.182657700776
5005.853802545055,12278.608742631632
5005.879835581762,12470.287480461344
5005.905868753854,12395.823255770787
5005.931902061331,11875.867915662666
5005.957935504196,11126.51556168547
5005.983969082448,10271.241569196056
5006.010002796088,9480.788635808767
5006.036036645117,8747.934414622216
5006.062070629536,8080.927532531512
5006.088104749344,8026.544540189401
5006.114139004544,8120.496970643944
5006.140173395135,8791.543345942444
5006.166207921118,9890.66166484462
5006.192242582495,11329.762605541473
5006.218277379266,12936.706077811255
5006.244312311431,14897.672984859639
5006.270347378991,16681.262204299404
5006.296382581946,18270.229561998563
5006.322417920299,19652.396009555945
5006.348453394048,20799.78917548021
5006.374489003196,21677.91107184827
5006.400524747743,22293.298872856045
5006.426560627688,22755.253213687745
5006.452596643034,23028.20723149386
5006.47863279378,23078.273969014357
5006.504669079928,23037.978340961334
5006.530705501478,23046.239473613783
5006.556742058431,23106.147600776694
5006.582778750788,22928.200555817184
5006.608815578549,22921.40782937172
5006.634852541715,22913.37695272289
5006.660889640287,22893.667114926924
5006.686926874265,22758.834879573187
5006.71296424365,22666.64182992436
5006.739001748444,22798.72803595851
5006.765039388645,22702.056485864
5006.791077164256,22391.764132401844
5006.817115075277,22180.173131424755
5006.843153121708,21811.345502268
5006.869191303552,21306.539004085607
5006.895229620806,20652.34720074102
5006.921268073474,19940.074782722775
5006.947306661555,19065.473037108983
5006.97334538505,17972.88190183666
5006.999384243961,16865.593398140765
5007.025423238286,15685.201320403545
5007.051462368028,14449.562116326786
5007.077501633187,13252.891775592389
5007.103541033764,11956.599324249399
5007.129580569759,10728.960759255882
5007.155620241173,9631.80413439063
5007.181660048007,9046.995144059576
5007.207699990262,8746.055715743087
5007.233740067937,8856.097838205877
5007.259780281035,9462.411152919725
5007.285820629555,10373.855370258283
5007.311861113499,11717.874760640228
5007.337901732866,13422.55276759289
5007.363942487658,15144.099918168398
5007.389983377876,16793.852333544
5007.41602440352,18455.437460131536
5007.442065564591,19582.544092921682
5007.468106861089,20559.480596603647
5007.494148293015,21470.153013294697
5007.520189860371,21863.83634189466
5007.546231563156,21884.428057850317
5007.572273401372,21845.640748034682
5007.598315375018,21806.32996563614
5007.624357484096,21630.335339244615
5007.650399728607,21553.031198629735
5007.676442108551,21370.94533171757
5007.702484623929,21261.777331934605
5007.728527274741,21318.134287935893
5007.754570060989,21583.201347298214
5007.780612982673,22202.45417249908
5007.806656039793,22555.884914549933
5007.832699232351,22859.825129025394
5007.858742560347,23463.238527821482
5007.884786023782,23872.10457218794
5007.910829622656,24226.41079602127
5007.936873356971,24324.351124564066
5007.962917226726,24377.768822068963
5007.988961231923,24380.16458779806
5008.015005372563,24589.422875609413
5008.041049648646,24721.71187971599
5008.067094060171,24698.380831153103
5008.0931386071425,24754.731316990008
5008.119183289558,24757.151574456555
5008.14522810742,24808.64374176891
5008.171273060728,24926.2061988141
5008.197318149483,24876.69285439641
5008.223363373687,24925.248525002262
5008.249408733339,25143.836557740226
5008.27545422844,24784.190139602924
5008.301499858992,25118.872857858318
5008.327545624995,24866.716730571945
5008.353591526448,24807.67933527267
5008.379637563355,24722.387862539446
5008.405683735714,24685.504220253206
5008.431730043527,24480.40643517228
5008.457776486794,24218.327110319708
5008.483823065515,24122.20760666221
5008.509869779693,23919.949190572537
5008.535916629327,23574.693264592694
5008.561963614418,23504.67390730236
5008.588010734968,23263.661755882593
5008.614057990975,23174.481113665603
5008.640105382442,23254.545620974153
5008.666152909369,23222.318513583137
5008.692200571756,23335.39258662966
5008.718248369605,23614.921297339897
5008.744296302916,24072.331989175163
5008.77034437169,24476.43720504541
5008.796392575927,24455.386493639162
5008.822440915628,24494.968689196645
5008.848489390794,24743.32408222539
5008.874538001426,24882.7995462573
5008.900586747524,24877.944377723055
5008.926635629089,24674.897996363336
5008.952684646122,24948.427582855278
5008.978733798623,24980.426620311322
5009.004783086593,24881.583477343363
5009.030832510033,24532.157789669967
5009.056882068944,24724.583632518817
5009.082931763326,24856.249375884367
5009.108981593179,24805.550461209656
5009.135031558506,24769.51472396319
5009.161081659306,24826.117451994392
5009.187131895579,24696.81480808419
5009.213182267327,24665.903969752326
5009.239232774552,24611.925231480407
5009.265283417251,24503.712708420604
5009.291334195428,24472.546493524893
5009.317385109083,24313.63359566534
5009.343436158216,23970.658916185595
5009.369487342828,23671.76094117618
5009.395538662919,23478.02967425202
5009.421590118491,23065.105222181664
5009.447641709544,22771.63962195272
5009.473693436078,22485.359583684418
5009.499745298095,22074.435208757797
5009.525797295596,21758.476133475775
5009.55184942858,21439.261384221572
5009.577901697049,21166.965676215226
5009.603954101003,21154.363636805167
5009.630006640443,20899.732875713496
5009.65605931537,20832.42571010236
5009.682112125784,21036.107050403858
5009.708165071686,21287.46839160162
5009.7342181530785,21496.329934651618
5009.760271369959,21803.859568281543
5009.78632472233,21980.18956986679
5009.812378210192,21747.859160514876
5009.838431833546,21441.52887922758
5009.864485592391,20998.301793861225
5009.890539486731,20382.180135291153
5009.916593516564,19637.845377328755
5009.942647681891,18837.918918574673
5009.968701982713,18046.869528074218
5009.994756419032,17182.49556996206
5010.020810990847,16386.053302574826
5010.046865698159,15863.26938087582
5010.072920540969,15641.513167706333
5010.098975519279,15348.978939768393
5010.125030633087,15318.069234258297
5010.151085882395,15254.718921436928
5010.177141267204,15388.09669804487
5010.2031967875155,15616.811623494377
5010.229252443328,16309.212440158439
5010.255308234644,16833.08075153163
5010.281364161464,17901.30040540013
5010.307420223788,18969.704486304632
5010.333476421617,20206.135571204875
5010.359532754951,21434.6137767369
5010.3855892237925,22582.257792286382
5010.4116458281405,23351.934110412665
5010.437702567997,23879.916571187867
5010.463759443362,24204.16308877377
5010.489816454236,24242.132479450243
5010.51587360062,24503.782647138436
5010.541930882514,24519.58138432186
5010.56798829992,24369.771418243916
5010.5940458528385,24141.611234154134
5010.62010354127,23847.32204793549
5010.646161365214,23614.070684528895
5010.672219324672,23148.45814632724
5010.698277419646,22700.10283376044
5010.724335650135,22088.351244087084
5010.7503940161405,21312.475040055986
5010.7764525176635,20640.85028858464
5010.802511154703,20074.771548704604
5010.828569927262,19310.817217756183
5010.85462883534,18764.226105247566
5010.880687878937,18323.370266521597
5010.906747058056,18029.84892875509
5010.932806372695,17948.613295113864
5010.958865822856,18328.398342627534
5010.98492540854,18858.92436109626
5011.0109851297475,19927.41639128293
5011.0370449864795,21052.835586284
5011.063104978735,22085.49820158265
5011.089165106517,22873.901779071737
5011.115225369825,23469.038343531713
5011.14128576866,24126.899850342492
5011.167346303022,24275.536451455613
5011.193406972913,24402.090742912205
5011.219467778333,24713.40756502936
5011.2455287192815,24739.861012355028
5011.271589795761,24749.23042676149
5011.297651007772,24889.804892327807
5011.323712355315,24929.581407320762
5011.34977383839,24838.671884820207
5011.375835456999,24698.134985848985
5011.401897211142,24593.69336616462
5011.427959100819,24413.71601811084
5011.454021126031,24121.34852005164
5011.4800832867795,23821.811919726137
5011.506145583065,23593.575964126816
5011.532208014888,23241.427678078355
5011.558270582248,22812.271017737905
5011.584333285148,22392.517732844775
5011.610396123588,21626.022459562664
5011.636459097567,21008.923275352965
5011.662522207088,20288.85073874305
5011.68858545215,19651.325887239305
5011.714648832754,18818.430222697847
5011.740712348902,18041.820121151723
5011.766776000594,17107.440154969227
5011.79283978783,16221.959023404112
5011.818903710611,15342.265140475552
5011.844967768939,14659.842276621597
5011.871031962813,13621.859982958355
5011.897096292234,12347.070464613595
5011.923160757203,11103.406362372583
5011.949225357721,9924.813630654928
5011.975290093788,8856.64280571186
5012.001354965406,7886.06264294294
5012.027419972574,7281.654271451503
5012.053485115294,7088.424851632983
5012.079550393566,7244.579842744736
5012.105615807392,7785.204951284233
5012.13168135677,8568.686579409248
5012.157747041703,9565.456957714274
5012.183812862192,10815.444637592496
5012.209878818236,12246.465174493927
5012.235944909837,13408.805408811631
5012.262011136994,14341.770652770503
5012.28807749971,15296.772569162695
5012.3141439979845,15446.796251870946
5012.340210631818,15807.790350721421
5012.366277401212,15749.998665599338
5012.392344306166,15314.109062709736
5012.418411346682,15277.137948501519
5012.44447852276,15170.93963498497
5012.470545834401,15474.758379506873
5012.496613281605,15967.667456234169
5012.522680864374,16737.25951011189
5012.548748582707,17563.15922354846
5012.574816436606,18069.787445923637
5012.600884426071,18386.089907551315
5012.626952551104,18804.799293442866
5012.653020811705,19245.424371867088
5012.679089207873,19477.690672784585
5012.705157739611,19655.62912646339
5012.73122640692,20054.445840942688
5012.757295209798,20710.141914502547
5012.7833641482475,21600.997363859555
5012.80943322227,22309.57993593932
5012.835502431864,22819.0808467599
5012.861571777033,23352.607111870395
5012.887641257775,23648.879301817327
5012.9137108740915,23766.05375944624
5012.939780625984,23669.02092246678
5012.965850513452,23442.242695743986
5012.991920536498,23286.556569334592
5013.017990695121,22707.548172964405
5013.044060989323,22101.723592550396
5013.070131419104,21576.772058120874
5013.096201984464,21040.710558573624
5013.122272685405,20229.15266994465
5013.148343521927,19367.84317290262
5013.17441449403,18679.36943322095
5013.200485601717,17778.557445460603
5013.226556844987,16863.31233018311
5013.2526282238405,15989.616810960752
5013.278699738279,15569.04025334163
5013.304771388303,15130.949372245557
5013.330843173913,15103.424591202438
5013.35691509511,15401.355789356947
5013.382987151894,15654.074602381548
5013.409059344267,15951.991632520001
5013.435131672228,16273.825433209508
5013.46120413578,16001.5817773893
5013.487276734921,15689.647080569099
5013.513349469653,15155.210913120523
5013.539422339977,14469.206643836014
5013.565495345894,13573.831946098613
5013.5915684874035,12766.796301821085
5013.617641764507,11967.686506280048
5013.643715177206,11407.366443090403
5013.6697887254995,11152.957695120922
5013.695862409389,11245.385450437916
5013.721936228875,11863.256263984094
5013.748010183958,12832.798446434375
5013.77408427464,14045.413213861057
5013.800158500921,15329.51155376771
5013.826232862801,16394.593323212273
5013.852307360281,17226.543901778638
5013.8783819933615,17800.939063134472
5013.904456762045,18060.670022921448
5013.930531666329,17942.47080022884
5013.956606706218,17487.711397981693
5013.982681881709,16978.364136875185
5014.008757192805,16322.848935811056
5014.034832639507,15571.682305297369
5014.060908221814,14334.610083683108
5014.086983939728,13287.241726122424
5014.113059793249,12124.344359380686
5014.139135782378,10884.789031050737
5014.165211907116,9989.266196664868
5014.1912881674625,9373.189415165696
5014.21736456342,9089.456019839585
