wave,flux
4450.003811362098,19118.505442949572
4450.026953690486,18237.033075919495
4450.050096139227,17405.80577278152
4450.073238708321,16524.981618961105
4450.096381397769,15330.369247183518
4450.119524207569,14000.02584278296
4450.142667137726,12830.484955555929
4450.165810188237,11844.44641996773
4450.188953359103,10791.246884403976
4450.212096650326,9792.833725621553
4450.2352400619075,8703.208114483112
4450.258383593846,7972.8516118545995
4450.281527246142,7633.657842985717
4450.304671018797,7142.305405381261
4450.327814911813,6848.158499038882
4450.350958925188,6661.002589477
4450.374103058924,6752.3828073500035
4450.3972473130225,7055.968392083327
4450.420391687483,7601.17635903202
4450.443536182305,8152.367551022412
4450.466680797492,8948.053130908542
4450.489825533042,9902.009159685795
4450.512970388957,10701.47559794277
4450.536115365237,11483.520530752467
4450.559260461882,12188.204856530234
4450.582405678895,12891.006204145582
4450.605551016274,13592.513661407238
4450.628696474022,14378.484513330743
4450.651842052138,15257.896160002701
4450.674987750623,15865.866354170732
4450.698133569476,16483.166635954894
4450.721279508702,17022.396568031883
4450.744425568297,17617.921303259343
4450.767571748264,18267.355949131637
4450.790718048604,19026.345391089337
4450.813864469315,19750.063355920585
4450.837011010401,20377.446158366794
4450.86015767186,21151.27621137909
4450.883304453694,21741.2806861438
4450.906451355903,22240.012547227776
4450.929598378489,22743.913354836168
4450.95274552145,23278.698298467127
4450.975892784789,23369.1586754916
4450.999040168505,23383.87876498492
4451.022187672601,23452.615907108735
4451.045335297074,23472.549440263127
4451.068483041929,22993.58280676284
4451.091630907163,22847.893517999342
4451.114778892777,22490.67051579407
4451.137926998774,22003.691837896826
4451.161075225153,21680.377502435967
4451.184223571914,21160.004528730366
4451.207372039059,20288.972995751443
4451.230520626587,19645.335834590474
4451.253669334501,18808.294485290367
4451.2768181628,18113.27420798592
4451.299967111485,17233.89599290792
4451.323116180556,16282.340962057795
4451.346265370014,15301.397088298088
4451.369414679861,14402.805593169991
4451.392564110095,13697.669373402403
4451.415713660719,13134.210422468286
4451.438863331732,12964.878573547094
4451.462013123136,13406.682074829774
4451.48516303493,13846.018473735856
4451.508313067117,14625.418151811426
4451.531463219695,15565.023490474507
4451.554613492666,16538.5644591343
4451.577763886031,17543.953332028505
4451.60091439979,18458.045226839098
4451.624065033943,19267.81648882212
4451.647215788492,19974.074795581197
4451.670366663436,20521.919028796474
4451.693517658777,20862.86956490307
4451.716668774516,21185.894193388413
4451.739820010652,21242.38884485812
4451.762971367186,21058.312847632387
4451.78612284412,20844.404711021467
4451.8092744414525,20660.55504612771
4451.832426159187,20661.01397479781
4451.855577997321,20644.366702666342
4451.878729955857,20686.85955338944
4451.901882034796,20891.97220424463
4451.925034234137,21307.87034358299
4451.948186553881,21648.69277256699
4451.97133899403,21820.74063884309
4451.994491554583,22365.474983907916
4452.017644235542,22808.297396840302
4452.040797036907,22646.527296607717
4452.063949958678,23221.62836951725
4452.087103000857,23382.62455778472
4452.1102561634425,23753.709768989775
4452.133409446437,23937.287286901286
4452.156562849841,23692.448098095298
4452.179716373655,23805.407062212777
4452.202870017878,23480.986377444202
4452.226023782513,23670.033188397374
4452.24917766756,23680.767047019428
4452.272331673018,23100.107984782695
4452.29548579889,22889.934768888335
4452.318640045174,22609.073969894067
4452.341794411874,22305.19681890398
4452.364948898987,21941.511909768484
4452.388103506516,21767.21913539175
4452.4112582344615,21335.291106019442
4452.434413082823,20939.419688498954
4452.457568051602,20637.5746476443
4452.480723140799,20090.059468146053
4452.503878350413,19728.373842006604
4452.527033680448,19670.84915280737
4452.550189130902,19501.769143439542
4452.5733447017765,19480.383120678947
4452.596500393071,19565.032279272607
4452.619656204789,19558.68894811813
4452.642812136928,19792.039443643247
4452.66596818949,20070.21673973593
4452.689124362475,20249.440113283013
4452.7122806558855,20270.538429178385
4452.735437069719,20384.5306635926
4452.7585936039795,20140.622872766504
4452.781750258665,20031.092095625463
4452.804907033777,19788.064685313966
4452.828063929317,19566.80013734038
4452.851220945285,19303.17177560413
4452.87437808168,19381.33534295116
4452.897535338506,19290.48681750044
4452.92069271576,19513.774920538748
4452.943850213445,19476.62269578186
4452.967007831562,19610.162853901307
4452.99016557011,19569.459606738976
4453.01332342909,19599.83698440913
4453.036481408502,19395.474947605944
4453.059639508349,19229.767217849618
4453.08279772863,18830.455436842367
4453.105956069345,18447.95449400841
4453.129114530496,17896.105580491832
4453.152273112083,18114.065288081412
4453.175431814107,17984.76431877037
4453.198590636567,18080.356688323776
4453.221749579466,18337.82853702452
4453.244908642802,18966.186394943914
4453.268067826579,19317.650771759363
4453.291227130795,20138.6531963834
4453.314386555451,20682.489949100047
4453.337546100549,21032.0520931166
4453.360705766087,21294.63832669721
4453.3838655520685,21662.793200868062
4453.407025458493,21824.07174330557
4453.430185485361,21834.13178454598
4453.453345632673,21631.19440768433
4453.476505900429,21459.815879868846
4453.4996662886315,21340.119664901413
4453.52282679728,21397.673269125626
4453.545987426375,21218.536467425256
4453.569148175917,21117.88910353931
4453.592309045907,21244.112101309835
4453.615470036346,21503.730895174394
4453.638631147233,21849.380399892907
4453.661792378571,22081.562668836224
4453.684953730359,22388.447390075333
4453.708115202598,22701.862273099352
4453.731276795288,23059.95169350111
4453.754438508431,23194.61221033796
4453.777600342027,23399.796645546772
4453.800762296077,23551.740025269628
4453.82392437058,23387.55099221976
4453.847086565538,23163.749190141025
4453.870248880952,23143.666729422173
4453.8934113168225,22895.74417566457
4453.916573873149,22384.22733383392
4453.939736549933,22036.615705330678
4453.962899347174,21574.39290736685
4453.986062264875,21074.348071305958
4454.009225303034,20339.747724197958
4454.032388461654,19565.23209967949
4454.055551740734,18758.894106963307
4454.078715140275,17747.49697233108
4454.101878660277,16741.615058104282
4454.125042300742,15781.57583224841
4454.14820606167,14482.966613962693
4454.171369943061,13530.25796418678
4454.194533944917,12766.124792976603
4454.2176980672375,11855.715513184367
4454.240862310024,11459.622087059917
4454.264026673275,10857.598231550097
4454.287191156994,10889.817856485166
4454.31035576118,11224.673159366004
4454.333520485834,11275.493358987587
4454.356685330957,11487.196910317143
4454.379850296548,11480.358456476943
4454.40301538261,11422.283654825822
4454.426180589142,11533.402746772668
4454.449345916145,11095.086336180542
4454.4725113636205,10531.80190482518
4454.495676931568,9770.8066007497
4454.5188426199875,9133.914663754527
4454.542008428882,8535.655136923095
4454.565174358249,7959.564762644483
4454.588340408092,7383.727268298414
4454.611506578411,6897.290317574157
4454.634672869205,6662.921234794602
4454.657839280476,6715.306515653962
4454.681005812225,6934.779770347653
4454.704172464451,7352.178980859754
4454.727339237156,7853.763343126519
4454.750506130341,8396.600839233759
4454.773673144005,8980.632794333713
4454.79684027815,9620.835022480338
4454.820007532776,10286.647999292392
4454.843174907884,10811.783967765674
4454.866342403473,11205.053829454702
4454.889510019546,11923.747903065514
4454.912677756102,12705.534907064164
4454.935845613144,13335.020940387365
4454.959013590669,14029.898500627967
4454.982181688681,14691.898843235573
4455.005349907178,15105.611064277646
4455.028518246162,15314.246523969514
4455.051686705633,15497.590014708623
4455.074855285593,15509.322937149233
4455.098023986041,15311.885238062581
4455.121192806979,15078.658331361625
4455.144361748406,15228.131614816326
4455.167530810323,15464.960611839548
4455.190699992732,15751.158187689818
4455.213869295633,16260.047129175466
4455.237038719026,16909.95200894107
4455.260208262912,17780.78243026391
4455.283377927292,18550.62205197744
4455.306547712166,19234.93878635549
4455.329717617535,19662.229220585046
4455.352887643399,19966.670006527536
4455.37605778976,20195.14697097996
4455.399228056617,20329.76187634893
4455.422398443972,19977.73064797624
4455.445568951825,19595.1332566309
4455.468739580177,19137.99322622662
4455.491910329028,18744.774511551776
4455.515081198378,17834.508812031276
4455.538252188229,16953.02410960918
4455.561423298582,15987.973133203852
4455.584594529436,15130.120283002081
4455.607765880793,14143.086628717161
4455.630937352652,13131.375463747232
4455.654108945016,12140.584224962438
4455.677280657883,11200.951951932668
4455.700452491255,10642.595099279075
4455.723624445134,10178.224365794988
4455.746796519518,10387.607139410366
4455.7699687144095,10535.310428943203
4455.793141029808,11187.650660185725
4455.816313465714,11972.942284080284
4455.83948602213,12828.732261411054
4455.862658699055,13999.896880504204
4455.885831496489,15148.249589900031
4455.909004414434,16070.010229346697
4455.932177452891,16864.931250913305
4455.955350611858,17884.772202135842
4455.978523891339,18680.884140345082
4456.001697291333,18883.484170746662
4456.024870811841,19227.76561856284
4456.048044452862,19162.287650426893
4456.071218214399,18766.54866493848
4456.094392096451,18626.601480049285
4456.117566099019,18404.445423243145
4456.140740222105,17881.814813962475
4456.163914465707,17261.425396397666
4456.187088829828,16885.395597888157
4456.210263314468,16606.78279286759
4456.233437919626,16364.633520260677
4456.256612645306,16184.397171317756
4456.279787491505,16285.931177251474
4456.302962458226,16351.260352132756
4456.326137545469,16363.715313584278
4456.349312753233,16460.464156025857
4456.372488081522,16323.476426130896
4456.395663530333,16092.84931391758
4456.41883909967,15807.674278422797
4456.442014789531,15441.401780845743
4456.465190599917,15366.681816952614
4456.488366530831,15273.744652766198
4456.5115425822705,15439.669977321293
4456.5347187542375,15908.865685104633
4456.557895046733,16747.456192018886
4456.581071459757,17550.07233496322
4456.604247993311,18358.144508351415
4456.627424647395,19084.439092111377
4456.650601422009,19634.4397333924
4456.673778317154,20238.31436237966
4456.696955332832,20763.867247187474
4456.720132469041,21040.80985525772
4456.7433097257845,21075.717007140112
4456.766487103061,21154.534730053532
4456.789664600872,21161.248227136686
4456.8128422192185,21108.296526376143
4456.8360199581,20838.311776483984
4456.859197817518,20590.140445379922
4456.882375797473,20572.01113737147
4456.905553897966,20473.18598707627
4456.928732118997,20689.002055508034
4456.951910460566,20887.973867743327
4456.975088922674,20668.785950243167
4456.998267505323,20647.228314333603
4457.021446208513,20694.42836039788
4457.044625032244,20435.03295137935
4457.067803976516,20134.86399403991
4457.090983041332,19854.228872476546
4457.1141622266905,19313.533947222542
4457.1373415325925,18688.33853216379
4457.160520959039,17940.55332586087
4457.183700506031,16989.798970009193
4457.206880173568,16153.031810320901
4457.230059961651,15363.76670340103
4457.2532398702815,14622.461483466315
4457.27641989946,13983.55342268454
4457.299600049186,13598.718643701191
4457.322780319461,13474.409899099579
4457.345960710286,13650.205219390535
4457.36914122166,13988.859688246908
4457.392321853586,14616.337427279675
4457.415502606062,15374.287258724824
4457.43868347909,16182.053413663403
4457.461864472672,17205.574634911285
4457.485045586805,18243.505449865963
4457.508226821494,19032.200533309857
4457.5314081767365,19676.072239423473
4457.554589652534,20350.622173269803
4457.577771248887,20710.613602976566
4457.600952965797,20793.44149763618
4457.624134803263,20991.113503996425
4457.647316761288,21171.32434018251
4457.67049883987,21132.69406636886
4457.693681039011,20943.597514910532
4457.716863358712,20812.207546660236
4457.7400457989725,20557.134008075234
4457.763228359793,19979.55450318917
4457.7864110411765,19477.646212488427
4457.809593843121,18835.3137821888
4457.832776765628,17988.0756867857
4457.855959808699,17343.220167942094
4457.879142972333,16628.60382494462
4457.902326256532,15979.504169745136
4457.925509661296,15305.969075421888
4457.948693186626,14813.237902993174
4457.971876832522,14622.241658749035
4457.995060598985,14561.661086415528
4458.018244486016,14590.581564940994
4458.041428493615,14602.576109885636
4458.0646126217825,14825.732774072583
4458.08779687052,14897.935644307598
4458.110981239827,15200.820721391914
4458.134165729705,15628.895229795544
4458.157350340155,16398.733027019553
4458.180535071177,16840.441183142364
4458.203719922771,17411.502641371473
4458.226904894938,17987.12456157772
4458.2500899876795,18326.865798003702
4458.273275200995,18482.09460288391
4458.296460534886,18593.31036369308
4458.3196459893525,18621.667192356927
4458.342831564396,18730.562643557805
4458.366017260016,18673.39148590724
4458.389203076214,18713.29401143966
4458.4123890129895,18912.37750989772
4458.435575070344,19397.209971914035
4458.458761248279,19849.084745632834
4458.481947546794,20247.113037337436
4458.505133965889,20620.55130445855
4458.528320505566,21074.341764325916
4458.551507165825,20994.64398090403
4458.574693946666,20903.00812486814
4458.597880848091,20714.11398635976
4458.6210678701,20356.2369321005
4458.644255012693,20071.86667774383
4458.6674422758715,19302.848180403194
4458.690629659636,18453.75530090836
4458.713817163986,17697.003997341846
4458.737004788924,16710.988565948002
4458.76019253445,15688.483330772146
4458.783380400563,14691.133067466546
4458.8065683872655,13378.008667915914
4458.829756494558,12128.4488376967
4458.85294472244,11034.369676963292
4458.876133070914,9923.806792274785
4458.899321539979,8917.261376752449
4458.922510129635,8177.4507976000305
4458.945698839884,7894.468460155681
4458.968887670727,7670.153536956818
4458.992076622164,7618.397676415081
4459.015265694195,8029.136350576409
4459.0384548868215,8473.155978049184
4459.061644200044,9216.031440767489
4459.084833633862,9822.756771389204
4459.108023188278,10493.899856492719
4459.131212863292,11350.591713441177
4459.154402658904,12085.606234107727
4459.177592575114,12733.033356011583
4459.200782611925,13650.468833888306
4459.223972769336,14745.601496560495
4459.247163047347,15510.596446544248
4459.27035344596,16600.64388567025
4459.293543965176,17482.61869983175
4459.316734604993,18607.36964500849
4459.339925365414,19355.13454667135
4459.363116246439,20105.812333255042
4459.386307248069,20596.568262670182
4459.409498370304,21122.75968810892
4459.432689613145,21416.464158335995
4459.455880976592,21288.190913808317
4459.479072460647,21316.836989024327
4459.502264065309,21552.30449726241
4459.52545579058,21299.351106627666
4459.5486476364595,21123.869878393973
4459.571839602949,20910.809381697367
4459.595031690048,20812.53759831547
4459.618223897759,20850.07426452513
4459.641416226081,20817.206528058992
4459.664608675014,21004.219277718737
4459.687801244561,21144.282140840674
4459.710993934721,21478.8813359472
4459.734186745496,21784.168624122976
4459.757379676885,21740.1602167976
4459.780572728889,21673.54185172121
4459.803765901509,21649.460700769137
4459.8269591947455,21114.924226615643
4459.850152608599,20872.962903580425
4459.87334614307,20318.852202710335
4459.89653979816,19850.499395747433
4459.91973357387,19328.999759959708
4459.942927470198,18527.93981112494
4459.966121487147,17563.807546463875
4459.989315624717,16663.661179929983
4460.0125098829085,15815.624059526039
4460.035704261722,15360.065463135803
4460.058898761158,14683.467061941059
4460.082093381218,14171.32984463471
4460.105288121902,14017.459767785132
4460.12848298321,14413.796636580631
4460.151677965145,14939.16528518633
4460.1748730677045,15528.028930599721
4460.198068290891,16429.049986942642
4460.221263634704,17432.794733211154
4460.244459099145,18252.378445135393
4460.267654684215,19069.101172307062
4460.290850389914,19963.677442273343
4460.314046216243,20764.55810909879
4460.337242163202,21386.532402836932
4460.360438230791,21838.58366279292
4460.383634419013,22373.780531147622
4460.406830727867,22699.433591862038
4460.430027157354,22859.065831155167
4460.453223707474,23185.238295535157
4460.476420378228,23341.101998371927
4460.499617169617,23275.30086846083
4460.522814081641,23205.643049173374
4460.5460111143,23107.14300926132
4460.569208267598,23103.72635821474
4460.592405541532,22793.020800428163
4460.615602936104,22462.520891411375
4460.638800451314,22519.61926999012
4460.661998087163,22233.925410819586
4460.685195843652,21893.797888309688
4460.708393720782,21591.83182767926
4460.731591718552,21235.13921340622
4460.754789836965,20744.913068967322
4460.777988076019,20110.965458832405
4460.801186435716,19444.32405683459
4460.824384916057,18800.848014840376
4460.847583517042,18001.563129612747
4460.870782238671,17077.840583965182
4460.893981080947,15959.67392672916
4460.917180043868,14936.722167968386
4460.940379127435,14125.436507393582
4460.963578331651,13303.345696816103
4460.986777656513,12671.008302180238
4461.009977102025,12120.537572387277
4461.033176668186,11619.313149596086
4461.056376354995,11551.386087436496
4461.079576162457,11535.192576034911
4461.102776090568,11322.024743244872
4461.125976139332,11337.23627014105
4461.149176308748,11486.185655949748
4461.172376598816,11536.631562190487
4461.195577009538,11338.074911892498
4461.218777540915,11053.713114952448
4461.241978192946,10606.798939146554
4461.265178965633,10359.341553084867
4461.2883798589755,10274.263477562707
4461.311580872974,10012.506026089548
4461.3347820076315,9771.563179507051
4461.357983262946,9660.752127766127
4461.381184638919,9430.371692627225
4461.404386135551,9180.284760171082
4461.4275877528435,8861.519791070843
4461.4507894907965,8624.86855020301
4461.4739913494095,8340.534424101834
4461.497193328685,8277.246998814308
4461.520395428623,8270.490277855795
4461.543597649224,8420.19467093463
4461.566799990488,8804.304024393296
4461.590002452416,9324.266517167023
4461.61320503501,9844.477144554108
4461.636407738269,10547.582515893675
4461.659610562193,11306.495813842317
4461.682813506784,11736.17339662114
4461.706016572044,12069.470372255377
4461.729219757971,12166.705541656893
4461.752423064566,12353.351038660283
4461.775626491831,12278.39914965732
4461.798830039766,12084.393669926965
4461.82203370837,12019.659954346456
4461.845237497647,11937.162531740394
4461.868441407595,12098.256450116478
4461.891645438215,12478.026544235487
4461.914849589509,13276.949204740926
4461.938053861475,14006.93009092934
4461.961258254117,14741.616124046199
4461.984462767433,15447.870001842768
4462.007667401424,16183.826567999948
4462.030872156092,16761.621217289427
4462.0540770314365,17147.467753914625
4462.077282027459,17606.850886899516
4462.100487144158,17895.973667547314
4462.123692381537,17935.47347123748
4462.146897739594,17916.12450268342
4462.170103218332,17805.26202551806
4462.19330881775,17399.33123769591
4462.21651453785,17173.9919353562
4462.239720378631,16862.463674475675
4462.262926340095,16266.528394884144
4462.286132422241,16070.562322652346
4462.309338625071,16124.498857883755
4462.3325449485865,16142.49184945651
4462.355751392785,16727.923145433542
4462.3789579576705,17551.715805229043
4462.402164643242,18029.95485480825
4462.4253714495,18923.674402763303
4462.448578376446,19445.66187672453
4462.471785424079,20089.346918561245
4462.494992592401,20552.526462383397
4462.518199881412,20917.884575856977
4462.541407291114,21052.925528204094
4462.564614821506,21049.005949411505
4462.587822472589,21013.703526620997
4462.611030244365,20865.23432204181
4462.634238136832,20751.506711126003
