wave,flux
5000.025812696027,8385.24305200671
5000.051815424163,7690.585875800825
5000.0778182875265,7281.889440616254
5000.103821286119,7360.978351263412
5000.12982441994,7856.276806455282
5000.155827688991,8774.425453802354
5000.181831093272,9845.346852487726
5000.207834632784,10942.85948275054
5000.2338383075285,11981.348416553255
5000.259842117506,12769.141293834526
5000.285846062716,13072.507066084465
5000.311850143161,13176.288257029146
5000.33785435884,12950.9056663569
5000.363858709754,12441.622809727334
5000.389863195905,11726.018047748688
5000.415867817292,10779.475829255753
5000.441872573917,9927.858041748299
5000.4678774657805,9497.039534135356
5000.493882492882,9478.517097791935
5000.519887655224,9903.001052275178
5000.545892952806,10488.871316352119
5000.571898385629,10912.704345625272
5000.597903953694,11221.891277667137
5000.623909657001,11491.531042447155
5000.649915495552,11350.693359197336
5000.675921469346,11064.723165218282
5000.701927578384,10917.071187521336
5000.727933822669,11053.744512621157
5000.7539402021985,11584.719507696973
5000.779946716975,12144.58810303615
5000.805953366999,12707.99048823623
5000.831960152272,13310.531417452976
5000.857967072792,13658.87047218192
5000.883974128563,13846.968624265472
5000.9099813195835,13813.883431473101
5000.935988645855,13713.554261690299
5000.961996107378,13729.983805716894
5000.988003704153,13450.763570883593
5001.014011436181,13462.883771462459
5001.040019303464,13573.585413503588
5001.066027306,13317.5379757918
5001.092035443791,13151.262044330173
5001.118043716839,12758.123159791694
5001.1440521251425,12133.204604442755
5001.170060668704,11443.020630826384
5001.196069347523,10920.13353649159
5001.222078161601,10646.785371402379
5001.248087110937,10718.726978035156
5001.274096195534,11258.906057382845
5001.300105415392,11766.245973169951
5001.326114770512,12083.432525966735
5001.352124260892,12486.851608484363
5001.3781338865365,12281.014224812025
5001.4041436474445,11871.38268424005
5001.430153543616,11100.71530845286
5001.456163575053,10257.010106789467
5001.482173741756,9241.956906427851
5001.508184043724,8037.254263117769
5001.534194480961,6786.395994416254
5001.560205053464,5662.500214418422
5001.586215761236,5024.58337178532
5001.612226604278,4923.860590041951
5001.638237582589,5347.0085828287865
5001.664248696171,6288.915293121289
5001.690259945024,7519.077319474319
5001.716271329149,8989.536302414468
5001.742282848547,10390.70218331293
5001.768294503218,11551.447757415333
5001.794306293164,12491.778896195252
5001.820318218383,13217.447048391039
5001.84633027888,13485.48727926346
5001.872342474651,13875.382007681106
5001.8983548056995,13956.290276057023
5001.924367272026,14191.757800212672
5001.9503798736305,14268.772030597098
5001.976392610514,14320.462118946496
5002.002405482678,14404.054789547008
5002.028418490122,14381.42390734494
5002.054431632847,14244.653502462195
5002.080444910854,14079.966878547908
5002.106458324142,14037.082468463552
5002.1324718727155,14014.77406642553
5002.158485556572,13886.807278535394
5002.184499375713,13681.586932051432
5002.210513330139,13572.810466740197
5002.236527419852,13283.954111819694
5002.262541644852,13160.087439424251
5002.288556005138,12791.246454024149
5002.314570500714,12692.534541478128
5002.340585131577,12332.205552272715
5002.36659989773,12104.165511660061
5002.392614799174,11625.46787497724
5002.418629835909,10849.641780922115
5002.444645007936,9923.048245231437
5002.4706603152545,8894.894037973778
5002.496675757866,7892.8008094803745
5002.522691335772,7250.76620704748
5002.548707048972,7471.905973677616
5002.574722897468,8289.01456319427
5002.600738881259,9424.766039199172
5002.626755000347,10841.576176762408
5002.652771254732,11978.490267855828
5002.678787644415,12965.96148761678
5002.704804169397,13586.593717107688
5002.730820829678,13980.710092670419
5002.75683762526,14250.592017755944
5002.782854556142,14490.272490472984
5002.8088716223265,14573.37933989882
5002.834888823812,14517.692821028411
5002.860906160601,14346.53478032207
5002.886923632695,14271.806113818307
5002.912941240092,14434.978866014322
5002.938958982793,14551.517311115007
5002.9649768608015,14445.327625418297
5002.990994874116,14288.714502457262
5003.017013022737,14258.285248981218
5003.043031306666,14425.879786728894
5003.069049725905,14383.293125061778
5003.095068280452,14308.29652575655
5003.121086970309,14269.940880847775
5003.147105795477,14173.073717736122
5003.173124755956,14107.993358794061
5003.199143851748,14066.373700522367
5003.225163082852,13980.589461540938
5003.251182449269,14102.32387089445
5003.277201951001,14144.84645358264
5003.3032215880485,14136.559530606119
5003.32924136041,14016.41665700192
5003.35526126809,13595.762264389807
5003.381281311085,13095.916278668064
5003.407301489398,12502.167190567443
5003.433321803031,11717.32665273813
5003.459342251982,11122.647293814181
5003.4853628362525,10838.27193221424
5003.511383555844,11065.744101126305
5003.537404410757,11676.99862751506
5003.563425400991,12232.444949991566
5003.589446526548,12900.121120102847
5003.615467787429,13066.72947040747
5003.641489183634,13065.722238860459
5003.667510715163,12744.177130125317
5003.693532382018,12118.278909329903
5003.719554184199,11442.72463965757
5003.745576121707,10621.766989614189
5003.771598194542,10007.008774161148
5003.797620402706,9991.039059221455
5003.823642746199,10412.114991319773
5003.849665225021,11160.246525374265
5003.875687839174,11950.64576430388
5003.901710588658,12428.123050681388
5003.927733473473,12852.93521363784
5003.953756493622,12862.09942483937
5003.979779649103,13077.53422674865
5004.005802939919,13074.641398335043
5004.031826366068,13006.556580738421
5004.057849927553,12852.3150027698
5004.083873624375,12935.132256039982
5004.109897456533,12941.38748338378
5004.135921424028,13099.060172440131
5004.161945526862,13318.09874188072
5004.187969765035,13729.80395169068
5004.213994138547,14097.15610580458
5004.240018647399,14339.089459288278
5004.266043291592,14466.42044446204
5004.292068071127,14472.319460123537
5004.318092986004,14478.33678832474
5004.344118036223,14410.753657481226
5004.370143221788,14466.503533403078
5004.396168542696,14600.224570798146
5004.422193998949,14469.136468056573
5004.448219590549,14517.061919941942
5004.474245317495,14374.17651713503
5004.500271179789,14193.903461820593
5004.52629717743,14131.449854050063
5004.5523233104195,13737.487201340677
5004.578349578759,13567.512630624726
5004.604375982449,13398.78519012607
5004.630402521489,13101.858758039798
5004.656429195881,13048.634254264942
5004.682456005625,12945.045171363832
5004.708482950721,12967.862068421296
5004.734510031172,12827.0109120793
5004.760537246977,12270.03362835342
5004.7865645981365,11656.225951168513
5004.812592084652,10654.489153907683
5004.838619706525,9424.581167249278
5004.8646474637535,8285.41022068751
5004.890675356341,7556.25719886887
5004.916703384286,7573.801223889609
5004.942731547591,7930.096178071427
5004.968759846256,8840.76342505653
5004.994788280281,10252.494579034008
5005.020816849668,11335.815772009346
5005.046845554417,12365.50734473131
5005.072874394528,13006.161241984788
5005.098903370003,13351.560569647345
5005.124932480842,13433.863180102424
5005.150961727047,13320.217735287555
5005.176991108617,13142.85552493382
5005.203020625552,12868.539963264397
5005.229050277856,12396.039238456466
5005.255080065526,11808.991644115478
5005.281109988566,11112.44308291235
5005.3071400469735,10251.026960104417
5005.333170240751,9316.514612415482
5005.3592005699,8062.922382247747
5005.38523103442,6837.354494901946
5005.411261634312,5917.680197262035
5005.4372923695755,5195.405874027877
5005.463323240213,5114.939344429396
5005.489354246225,5530.551582341583
5005.515385387611,6404.800150163357
5005.541416664373,7445.62246853302
5005.567448076511,8491.953054362848
5005.593479624025,9411.578093322207
5005.619511306918,9946.429308880302
5005.645543125189,10144.18647250026
5005.671575078838,9864.222135632917
5005.697607167867,9177.742910665107
5005.723639392277,8283.50019049903
5005.749671752068,7125.264775441064
5005.77570424724,5861.058634317522
5005.8017368777955,4891.100207858817
5005.8277696437335,4354.40807864268
5005.853802545055,4088.2907401858556
5005.879835581762,4224.087442988979
5005.905868753854,4858.943632604499
5005.931902061331,5908.413086328614
5005.957935504196,7227.351609968286
5005.983969082448,8725.505030786004
5006.010002796088,10152.123771001054
5006.036036645117,11259.985233245154
5006.062070629536,12344.565558561795
5006.088104749344,12995.65712843549
5006.114139004544,13382.954589434803
5006.140173395135,13705.981763583368
5006.166207921118,14038.021404032306
5006.192242582495,14123.123307180529
5006.218277379266,14063.726027285278
5006.244312311431,14112.47748352271
5006.270347378991,14139.961718284758
5006.296382581946,14062.916855327858
5006.322417920299,13974.974484463297
5006.348453394048,14033.492866152705
5006.374489003196,14015.103776065573
5006.400524747743,13828.300578833028
5006.426560627688,13859.807811749894
5006.452596643034,14035.907178817786
5006.47863279378,13901.93558936549
5006.504669079928,13822.305377882101
5006.530705501478,13821.040018334741
5006.556742058431,13830.385602280108
5006.582778750788,13739.594676400204
5006.608815578549,13564.734214308211
5006.634852541715,13538.740402580352
5006.660889640287,13392.070447758351
5006.686926874265,13184.39783534366
5006.71296424365,12895.917150994988
5006.739001748444,12422.167252755193
5006.765039388645,11955.30843592029
5006.791077164256,11298.349676128284
5006.817115075277,10319.582106986392
5006.843153121708,9173.29204003458
5006.869191303552,7802.645138530165
5006.895229620806,6687.340052408353
5006.921268073474,5514.906189464756
5006.947306661555,4633.401665987576
5006.97334538505,4279.400282014045
5006.999384243961,4442.032871575342
5007.025423238286,5081.944522048541
5007.051462368028,6094.018874870071
5007.077501633187,7412.308160518644
5007.103541033764,8883.174792174346
5007.129580569759,10230.385918348089
5007.155620241173,11442.866963950537
5007.181660048007,12421.373089259298
5007.207699990262,13284.52520896732
5007.233740067937,13793.55757177773
5007.259780281035,14022.960743160922
5007.285820629555,14181.450745601227
5007.311861113499,14180.611618007695
5007.337901732866,14073.809396394638
5007.363942487658,13815.018706863708
5007.389983377876,13264.429972694077
5007.41602440352,12695.03759346239
5007.442065564591,12320.584151146151
5007.468106861089,12132.912831051213
5007.494148293015,12279.380339919404
5007.520189860371,12726.09713979706
5007.546231563156,13356.185534414471
5007.572273401372,13991.049258153136
5007.598315375018,14382.28185693521
5007.624357484096,14662.653169855506
5007.650399728607,14830.611615727476
5007.676442108551,14903.725026985905
5007.702484623929,14845.36246927119
5007.728527274741,14694.470753478305
5007.754570060989,14705.499342429193
5007.780612982673,14725.608185380896
5007.806656039793,14718.286327321865
5007.832699232351,14757.205890780275
5007.858742560347,14805.721324103817
5007.884786023782,14866.597575959197
5007.910829622656,14918.094455901692
5007.936873356971,14871.994551738202
5007.962917226726,14809.641000998088
5007.988961231923,14916.919435533664
5008.015005372563,15060.454421180384
5008.041049648646,15196.38223463873
5008.067094060171,15048.121039624875
5008.0931386071425,15166.120388494606
5008.119183289558,15069.931127703989
5008.14522810742,14934.042522596676
5008.171273060728,15097.736312102807
5008.197318149483,14901.281548064917
5008.223363373687,14796.308864237924
5008.249408733339,14730.561572749973
5008.27545422844,14483.430916430008
5008.301499858992,14165.936143259123
5008.327545624995,13862.627553599435
5008.353591526448,13627.365943985344
5008.379637563355,13455.49358082022
5008.405683735714,13588.14151369484
5008.431730043527,14044.425031528235
5008.457776486794,14289.442360267536
5008.483823065515,14405.511003594605
5008.509869779693,14811.494691753549
5008.535916629327,15039.959728365398
5008.561963614418,14898.87839327763
5008.588010734968,14865.806806075776
5008.614057990975,14916.38342493348
5008.640105382442,15013.970169437054
5008.666152909369,14908.870387649964
5008.692200571756,14757.865181431427
5008.718248369605,14896.555351686166
5008.744296302916,14886.4578969024
5008.77034437169,14849.845877750713
5008.796392575927,14890.323081869066
5008.822440915628,14835.03530072255
5008.848489390794,14904.657988638075
5008.874538001426,14923.581391952797
5008.900586747524,14880.643975232893
5008.926635629089,14905.494896557002
5008.952684646122,15027.025444604194
5008.978733798623,14993.87610213268
5009.004783086593,14943.270864775219
5009.030832510033,14930.95838828143
5009.056882068944,14934.852689483329
5009.082931763326,14932.504685091988
5009.108981593179,14829.595625169146
5009.135031558506,14698.608787849911
5009.161081659306,14546.489538185537
5009.187131895579,14496.821105593792
5009.213182267327,14354.360529612688
5009.239232774552,14309.01058857362
5009.265283417251,14130.999045371644
5009.291334195428,13914.029270607647
5009.317385109083,13452.074845687148
5009.343436158216,12928.882693891075
5009.369487342828,12680.857322191747
5009.395538662919,12648.34912447468
5009.421590118491,12782.270498452235
5009.447641709544,13125.622823410918
5009.473693436078,13526.800126309452
5009.499745298095,13797.587083605144
5009.525797295596,14072.399280538713
5009.55184942858,14130.248973688596
5009.577901697049,14178.676953473443
5009.603954101003,14067.88776957519
5009.630006640443,13676.767025360212
5009.65605931537,13201.275119072963
5009.682112125784,12656.639913485504
5009.708165071686,11912.372815062543
5009.7342181530785,11117.52677232169
5009.760271369959,10584.160327849639
5009.78632472233,10328.417153980885
5009.812378210192,10198.009445751715
5009.838431833546,10002.935718998766
5009.864485592391,9833.880247457872
5009.890539486731,9222.519864091668
5009.916593516564,8460.741814152241
5009.942647681891,8158.557848253055
5009.968701982713,8212.4933193331
5009.994756419032,8949.773789562
5010.020810990847,9746.591554706985
5010.046865698159,11039.480738362327
5010.072920540969,12184.73515762841
5010.098975519279,13028.0707973877
5010.125030633087,13631.963701437831
5010.151085882395,13973.457280335331
5010.177141267204,14398.219726157968
5010.2031967875155,14754.829851665349
5010.229252443328,14881.965914635866
5010.255308234644,14857.644569138418
5010.281364161464,14866.508831359977
5010.307420223788,15010.730604297962
5010.333476421617,14988.311304505281
5010.359532754951,15016.296865171602
5010.3855892237925,15033.608597390048
5010.4116458281405,14752.06470092532
5010.437702567997,14610.324505678313
5010.463759443362,14453.89547821249
5010.489816454236,14354.102388856929
5010.51587360062,13986.520999745804
5010.541930882514,13411.347286479253
5010.56798829992,12812.431444787444
5010.5940458528385,12033.018596603082
5010.62010354127,11015.005504437446
5010.646161365214,10279.636254110179
5010.672219324672,9958.240997215065
5010.698277419646,10089.88715416684
5010.724335650135,10855.416154495031
5010.7503940161405,11821.94463358348
5010.7764525176635,12939.856569863145
5010.802511154703,13807.649376013094
5010.828569927262,14287.365162454893
5010.85462883534,14515.852116727438
5010.880687878937,14654.593752060688
5010.906747058056,14712.6864475741
5010.932806372695,14817.276342711537
5010.958865822856,14783.180601452059
5010.98492540854,14715.921385874815
5011.0109851297475,14869.839126061139
5011.0370449864795,14863.488518209288
5011.063104978735,14876.507229978683
5011.089165106517,15108.218819896247
5011.115225369825,15046.84638010299
5011.14128576866,14928.284291458905
5011.167346303022,15006.4468448576
5011.193406972913,15026.296948208323
5011.219467778333,14822.537429444856
5011.2455287192815,14674.250859535367
5011.271589795761,14604.188762657508
5011.297651007772,14474.979265288346
5011.323712355315,14200.295348978501
5011.34977383839,13875.195291603584
5011.375835456999,13593.981245037035
5011.401897211142,12898.603458121224
5011.427959100819,12360.487053397861
5011.454021126031,11909.732394577008
5011.4800832867795,11562.719846920154
5011.506145583065,11408.863157974312
5011.532208014888,11440.802940766025
5011.558270582248,11391.030111563316
5011.584333285148,11177.429798841451
5011.610396123588,10788.563902042135
5011.636459097567,10094.047640139914
5011.662522207088,9051.927558742978
5011.68858545215,7947.42825413331
5011.714648832754,6770.491646913649
5011.740712348902,5473.195571853692
5011.766776000594,4529.863386989599
5011.79283978783,3972.1355320798384
5011.818903710611,3694.364271422552
5011.844967768939,3863.033718528421
5011.871031962813,4329.291357957252
5011.897096292234,5212.055677946135
5011.923160757203,6407.994722440711
5011.949225357721,7690.273442494702
5011.975290093788,9170.741451902388
5012.001354965406,10267.166020425257
5012.027419972574,11054.2798840387
5012.053485115294,11467.008279523065
5012.079550393566,11123.19741079879
5012.105615807392,10642.043478109246
5012.13168135677,9615.881493597832
5012.157747041703,8935.43150206209
5012.183812862192,8590.661040587594
5012.209878818236,9008.024751065976
5012.235944909837,9724.94325506951
5012.262011136994,10712.5451204213
5012.28807749971,11600.030377511614
5012.3141439979845,12134.553714715466
5012.340210631818,12291.71819765084
5012.366277401212,12039.979516931628
5012.392344306166,11518.45324609192
5012.418411346682,11071.920753340984
5012.44447852276,11055.001065987202
5012.470545834401,11589.885823754741
5012.496613281605,12181.49483934239
5012.522680864374,12955.29296429123
5012.548748582707,13706.103534376878
5012.574816436606,14032.933396629449
5012.600884426071,14288.604726332773
5012.626952551104,14499.667128680414
5012.653020811705,14611.854221781567
5012.679089207873,14681.036703578771
5012.705157739611,14659.925156830448
5012.73122640692,14589.01452281214
5012.757295209798,14603.003199188654
5012.7833641482475,14577.890710074895
5012.80943322227,14340.011833879185
5012.835502431864,14247.796867211913
5012.861571777033,13960.678389865574
5012.887641257775,13617.142013971672
5012.9137108740915,12943.701052324464
5012.939780625984,11917.369016412842
5012.965850513452,10790.818105935756
5012.991920536498,9724.878704127612
5013.017990695121,8848.680572142313
5013.044060989323,8503.66628768133
5013.070131419104,8553.593095491999
5013.096201984464,9154.330437791741
5013.122272685405,10168.043475781342
5013.148343521927,10958.889256351726
5013.17441449403,11568.356696311876
5013.200485601717,11957.035882895074
5013.226556844987,11927.628054521194
5013.2526282238405,11516.557231273546
5013.278699738279,10847.514910871449
5013.304771388303,9947.086422554392
5013.330843173913,8736.132254299317
5013.35691509511,7452.7192614121
5013.382987151894,6455.4232285002245
5013.409059344267,5791.960149581785
5013.435131672228,5622.988224546866
5013.46120413578,6074.112581520127
5013.487276734921,6938.44133632583
5013.513349469653,8127.788172503899
5013.539422339977,9377.579526034391
5013.565495345894,10457.963953127311
5013.5915684874035,11331.273896397686
5013.617641764507,11601.737690921284
5013.643715177206,11864.490029215478
5013.6697887254995,12085.798589222677
5013.695862409389,12313.765824465414
5013.721936228875,12445.082223071964
5013.748010183958,12466.577501489583
5013.77408427464,12120.394028426663
5013.800158500921,11490.529882656017
5013.826232862801,10556.232192857737
5013.852307360281,9218.475646316389
5013.8783819933615,7791.048883954221
5013.904456762045,6520.547439525225
5013.930531666329,5503.306744299123
5013.956606706218,4817.413786589955
5013.982681881709,4628.211999980822
5014.008757192805,4906.7280918777105
5014.034832639507,5685.82194017741
5014.060908221814,6849.763565373126
5014.086983939728,8254.32449374205
5014.113059793249,9819.554119008959
5014.139135782378,11138.455406443945
5014.165211907116,12202.793574303225
5014.1912881674625,13002.722594645129
5014.21736456342,13298.065923603039
