wave,flux
4450.003811362098,8134.647960692027
4450.026953690486,7088.190438877716
4450.050096139227,6130.683475717416
4450.073238708321,5151.587020605075
4450.096381397769,4506.232838263224
4450.119524207569,4109.215227467407
4450.142667137726,3829.94714035367
4450.165810188237,3378.1667779277755
4450.188953359103,2959.45445843275
4450.212096650326,2670.698051149696
4450.2352400619075,2374.5067185886896
4450.258383593846,2353.9837465831256
4450.281527246142,2537.6563926624076
4450.304671018797,2912.0675249649958
4450.327814911813,3682.0121603969233
4450.350958925188,4658.466676824253
4450.374103058924,5481.521290955599
4450.3972473130225,6234.09849703639
4450.420391687483,6794.586118787716
4450.443536182305,6869.408371360615
4450.466680797492,6694.132812815026
4450.489825533042,6498.46745344312
4450.512970388957,6415.8226244083335
4450.536115365237,6647.485145208353
4450.559260461882,7070.064225241923
4450.582405678895,7462.4600199688875
4450.605551016274,7553.242481954948
4450.628696474022,7449.315457216023
4450.651842052138,7642.109842232475
4450.674987750623,8013.298535474341
4450.698133569476,8653.47894660791
4450.721279508702,9796.82970806405
4450.744425568297,10961.576468133524
4450.767571748264,11763.569809805347
4450.790718048604,12396.107121578225
4450.813864469315,12817.020075040775
4450.837011010401,13124.526543087972
4450.86015767186,13267.865729768479
4450.883304453694,13320.860828745352
4450.906451355903,13436.210489420742
4450.929598378489,13206.015875181109
4450.95274552145,13142.707844782264
4450.975892784789,13016.359949372973
4450.999040168505,12946.755113552072
4451.022187672601,12840.004490492394
4451.045335297074,12694.52774209576
4451.068483041929,12407.5228160598
4451.091630907163,12179.354566010983
4451.114778892777,12041.26708161225
4451.137926998774,11694.846964563896
4451.161075225153,11328.427448145285
4451.184223571914,10683.633251074856
4451.207372039059,9878.561112036235
4451.230520626587,8630.107910988167
4451.253669334501,7392.330487580561
4451.2768181628,6349.0318706776725
4451.299967111485,5261.085324033819
4451.323116180556,4513.190841212562
4451.346265370014,4390.2317268864235
4451.369414679861,4754.55925664043
4451.392564110095,5522.3377561236275
4451.415713660719,6713.717931390458
4451.438863331732,8052.521380826465
4451.462013123136,9292.07429389568
4451.48516303493,10408.994232835264
4451.508313067117,11211.708289174117
4451.531463219695,11821.453142506196
4451.554613492666,12112.337533538159
4451.577763886031,12132.29729310777
4451.60091439979,12108.342047343573
4451.624065033943,11670.225973197963
4451.647215788492,11175.659437829108
4451.670366663436,10608.2977626689
4451.693517658777,9698.142513137369
4451.716668774516,8827.282951032837
4451.739820010652,8046.516634591127
4451.762971367186,7821.182504345157
4451.78612284412,8016.061909193506
4451.8092744414525,8403.88049937351
4451.832426159187,9369.234445724396
4451.855577997321,9961.195335713423
4451.878729955857,10739.31894045453
4451.901882034796,11352.341785828972
4451.925034234137,12000.636537824746
4451.948186553881,12486.694568126819
4451.97133899403,12804.42734035343
4451.994491554583,13121.948694470278
4452.017644235542,13224.281354082248
4452.040797036907,13231.093608248222
4452.063949958678,13105.156428816339
4452.087103000857,13176.221270483333
4452.1102561634425,13238.171540710266
4452.133409446437,13133.234699735378
4452.156562849841,13093.515043726205
4452.179716373655,12982.14177639252
4452.202870017878,12776.571074391048
4452.226023782513,12455.784903077289
4452.24917766756,11900.438354497246
4452.272331673018,11308.88105099778
4452.29548579889,10882.720587474534
4452.318640045174,10315.425019408043
4452.341794411874,9597.76435531272
4452.364948898987,9116.8023354869
4452.388103506516,8740.419766116429
4452.4112582344615,8484.102855248171
4452.434413082823,8171.959401015805
4452.457568051602,7851.031731230746
4452.480723140799,7578.421646550072
4452.503878350413,7787.787576441515
4452.527033680448,8282.464236449752
4452.550189130902,8791.235853524864
4452.5733447017765,9649.608477724829
4452.596500393071,10361.812508698713
4452.619656204789,10881.022422584672
4452.642812136928,11002.4591652788
4452.66596818949,10662.156478702023
4452.689124362475,10196.749545979674
4452.7122806558855,9473.797369442276
4452.735437069719,8581.595722915934
4452.7585936039795,8169.5425995408905
4452.781750258665,8161.501057513165
4452.804907033777,8728.776028909322
4452.828063929317,9495.987839034884
4452.851220945285,10126.632819286297
4452.87437808168,10530.819643598119
4452.897535338506,10541.489849463598
4452.92069271576,10479.19434980484
4452.943850213445,10324.042680649894
4452.967007831562,9935.455212417904
4452.99016557011,9333.150296931233
4453.01332342909,8476.580313984468
4453.036481408502,7559.304350414786
4453.059639508349,6890.183133501794
4453.08279772863,6617.744675107348
4453.105956069345,6939.295013394707
4453.129114530496,7989.389265105822
4453.152273112083,9178.27286719393
4453.175431814107,10219.673157591747
4453.198590636567,11200.802996069731
4453.221749579466,11905.499057318875
4453.244908642802,12195.095760831548
4453.268067826579,12259.545577227724
4453.291227130795,12347.692260861126
4453.314386555451,12291.804219592585
4453.337546100549,12093.634658312592
4453.360705766087,11832.461373425258
4453.3838655520685,11176.927702964753
4453.407025458493,10374.46711255305
4453.430185485361,9742.9963338015
4453.453345632673,9215.482230438518
4453.476505900429,8969.129442250292
4453.4996662886315,9335.749150143882
4453.52282679728,10048.956296605713
4453.545987426375,10812.798774807346
4453.569148175917,11519.921322540316
4453.592309045907,11811.138437171528
4453.615470036346,12117.808123420622
4453.638631147233,12467.06785051251
4453.661792378571,12667.779112720267
4453.684953730359,12699.130574554832
4453.708115202598,12882.469756033606
4453.731276795288,12905.517696427918
4453.754438508431,13037.503985535344
4453.777600342027,12779.909192048784
4453.800762296077,12753.234112266113
4453.82392437058,12738.617966857519
4453.847086565538,12762.3884199787
4453.870248880952,12562.921707145602
4453.8934113168225,12457.156899741707
4453.916573873149,11962.963828728034
4453.939736549933,11642.331198312626
4453.962899347174,11192.143452356158
4453.986062264875,10444.340524696978
4454.009225303034,9667.517860210177
4454.032388461654,8733.558063453553
4454.055551740734,7430.0874339934235
4454.078715140275,6179.155437496543
4454.101878660277,5090.115641458359
4454.125042300742,4309.649646999211
4454.14820606167,3863.7022029036875
4454.171369943061,4050.5355518975216
4454.194533944917,4737.634327196223
4454.2176980672375,5613.659261475193
4454.240862310024,6613.485222481062
4454.264026673275,7505.328292022156
4454.287191156994,8020.30726217815
4454.31035576118,8000.473088012797
4454.333520485834,7605.162150582485
4454.356685330957,6835.721869383715
4454.379850296548,5831.500672552839
4454.40301538261,4912.202928633117
4454.426180589142,4144.992761853663
4454.449345916145,3495.6286192186253
4454.4725113636205,2999.2971790103297
4454.495676931568,2640.900402087341
4454.5188426199875,2362.524764081014
4454.542008428882,2264.496880537145
4454.565174358249,2480.675864138315
4454.588340408092,2920.2293322035334
4454.611506578411,3583.1683031523394
4454.634672869205,4416.068664490085
4454.657839280476,5084.593539038804
4454.681005812225,5553.745646607678
4454.704172464451,5746.175252718552
4454.727339237156,5577.873386605766
4454.750506130341,5255.085825224364
4454.773673144005,5107.154609977663
4454.79684027815,5355.971538424525
4454.820007532776,5947.785006886042
4454.843174907884,6876.3713747935735
4454.866342403473,7960.277757513556
4454.889510019546,8866.3884598621
4454.912677756102,9331.231184328926
4454.935845613144,9355.163546143198
4454.959013590669,9148.302869671546
4454.982181688681,8373.49212562086
4455.005349907178,7586.927505061556
4455.028518246162,6519.857784943971
4455.051686705633,5808.620818634944
4455.074855285593,5700.674212016227
4455.098023986041,5982.735883508739
4455.121192806979,7000.463389822603
4455.144361748406,8088.720371820914
4455.167530810323,9359.988743585349
4455.190699992732,10418.19713522508
4455.213869295633,11114.576766892447
4455.237038719026,11566.482915289855
4455.260208262912,11695.094067564369
4455.283377927292,12022.660530059418
4455.306547712166,11718.039342179163
4455.329717617535,11579.603149043476
4455.352887643399,10833.356089009645
4455.37605778976,10439.231968994518
4455.399228056617,9795.301642868557
4455.422398443972,9254.169488484153
4455.445568951825,8911.290919338695
4455.468739580177,8400.564813837236
4455.491910329028,7964.851128023189
4455.515081198378,7198.2647648861
4455.538252188229,6201.315893883647
4455.561423298582,5085.776257352656
4455.584594529436,4188.431412293446
4455.607765880793,3620.6395711937857
4455.630937352652,3244.9344001501304
4455.654108945016,3290.810181518592
4455.677280657883,3694.764834291077
4455.700452491255,4652.385274252912
4455.723624445134,5930.988525484724
4455.746796519518,7271.139004775212
4455.7699687144095,8462.20020472156
4455.793141029808,9460.054410479832
4455.816313465714,10305.263745478356
4455.83948602213,10814.722285760734
4455.862658699055,11147.203414712545
4455.885831496489,11288.609761581214
4455.909004414434,11474.260632503961
4455.932177452891,11429.24915078281
4455.955350611858,11200.382043736061
4455.978523891339,10798.629825777098
4456.001697291333,10027.679793190187
4456.024870811841,9079.352975125481
4456.048044452862,8028.463014572534
4456.071218214399,6833.200154948969
4456.094392096451,6004.025272561981
4456.117566099019,5672.5314288600275
4456.140740222105,5839.940256176612
4456.163914465707,6339.579762784648
4456.187088829828,6965.347023808594
4456.210263314468,7732.7549006443915
4456.233437919626,8492.071164027935
4456.256612645306,8919.61265909284
4456.279787491505,8902.108085913123
4456.302962458226,8422.993091829434
4456.326137545469,7499.40126736068
4456.349312753233,6587.348744941442
4456.372488081522,5877.134028164262
4456.395663530333,5616.791912375
4456.41883909967,5951.239319388393
4456.442014789531,6873.18647225698
4456.465190599917,8161.438957056223
4456.488366530831,9421.613764076099
4456.5115425822705,10358.7755649523
4456.5347187542375,11085.858649851762
4456.557895046733,11722.442442015625
4456.581071459757,12071.358928628806
4456.604247993311,12085.303952297423
4456.627424647395,11887.921967992317
4456.650601422009,11758.511635671684
4456.673778317154,11458.168096181129
4456.696955332832,11251.329425744014
4456.720132469041,10701.85339825348
4456.7433097257845,10137.185539018572
4456.766487103061,9619.899624997423
4456.789664600872,9141.804569470942
4456.8128422192185,9094.330794408865
4456.8360199581,9418.13238862655
4456.859197817518,10065.17461750309
4456.882375797473,10646.41750550973
4456.905553897966,11144.181604897834
4456.928732118997,11540.152335623408
4456.951910460566,11630.637181322056
4456.975088922674,11686.356768038177
4456.998267505323,11455.404845572039
4457.021446208513,11226.902731407652
4457.044625032244,10781.147335669788
4457.067803976516,10071.46991986217
4457.090983041332,9171.398381071815
4457.1141622266905,8093.433006794341
4457.1373415325925,6858.9463307538435
4457.160520959039,5771.29375636291
4457.183700506031,4962.72866212643
4457.206880173568,4500.480144942957
4457.230059961651,4375.049420505763
4457.2532398702815,4706.771602154888
4457.27641989946,5000.662388535239
4457.299600049186,5518.103037785798
4457.322780319461,6443.420873905679
4457.345960710286,7571.053869570681
4457.36914122166,8715.550020500028
4457.392321853586,9962.125250159383
4457.415502606062,10957.2106533831
4457.43868347909,11497.641479631124
4457.461864472672,11695.950985102249
4457.485045586805,11511.87196090914
4457.508226821494,11473.950155353119
4457.5314081767365,10964.610898963398
4457.554589652534,11242.17037268346
4457.577771248887,11404.46572896858
4457.600952965797,11552.757691573848
4457.624134803263,11639.30898288878
4457.647316761288,11405.798364026456
4457.67049883987,11223.589873561164
4457.693681039011,10643.707730332218
4457.716863358712,9886.292652619986
4457.7400457989725,9247.288217849893
4457.763228359793,8523.59693701111
4457.7864110411765,7602.339357416723
4457.809593843121,6783.598714975746
4457.832776765628,6011.669960072049
4457.855959808699,5842.76095829908
4457.879142972333,6022.680191972259
4457.902326256532,6359.331915201098
4457.925509661296,6658.318399122329
4457.948693186626,6654.281560593698
4457.971876832522,6400.378734225741
4457.995060598985,6213.289147482214
4458.018244486016,6160.308061094181
4458.041428493615,6805.19422058761
4458.0646126217825,7515.745343768107
4458.08779687052,8621.491065938404
4458.110981239827,9636.861917054479
4458.134165729705,10210.31609460306
4458.157350340155,10488.172086759681
4458.180535071177,10245.151457383598
4458.203719922771,9634.487141371505
4458.226904894938,8839.831056793135
4458.2500899876795,7825.045570922588
4458.273275200995,7314.6835171593175
4458.296460534886,7261.945012698576
4458.3196459893525,7622.567897244198
4458.342831564396,8583.720756357463
4458.366017260016,9805.229539942442
4458.389203076214,10681.794224525549
4458.4123890129895,11301.463412297371
4458.435575070344,11734.774438584847
4458.458761248279,12023.376724967575
4458.481947546794,12248.477676860637
4458.505133965889,12238.539611969793
4458.528320505566,12150.362238337308
4458.551507165825,11858.8245423897
4458.574693946666,11486.143081006836
4458.597880848091,11010.521846056992
4458.6210678701,10530.748453351302
4458.644255012693,9916.069344410282
4458.6674422758715,9198.778518572191
4458.690629659636,8271.281448642741
4458.713817163986,7236.203756176789
4458.737004788924,5937.40838236101
4458.76019253445,4801.493952886213
4458.783380400563,3759.5237334761514
4458.8065683872655,3047.7391085624586
4458.829756494558,2567.4233472923884
4458.85294472244,2345.962037249935
4458.876133070914,2345.1683118841033
4458.899321539979,2470.2941494391735
4458.922510129635,2986.826514947835
4458.945698839884,3564.963350134057
4458.968887670727,4431.412193739975
4458.992076622164,5260.603268253616
4459.015265694195,6016.525247534452
4459.0384548868215,6322.534486579145
4459.061644200044,6236.6343197557235
4459.084833633862,6178.01311600747
4459.108023188278,6059.3029535692385
4459.131212863292,6415.054263157722
4459.154402658904,7122.120544092506
4459.177592575114,8290.756921678616
4459.200782611925,9525.727030015123
4459.223972769336,10741.338538587914
4459.247163047347,11609.095884332668
4459.27035344596,11883.90187235743
4459.293543965176,12253.432001107252
4459.316734604993,12093.539759679043
4459.339925365414,12252.563737774657
4459.363116246439,12230.17774035361
4459.386307248069,11848.282006764313
4459.409498370304,11352.407574381428
4459.432689613145,10478.576418416364
4459.455880976592,9758.668405522183
4459.479072460647,8915.342999517017
4459.502264065309,8403.022655350305
4459.52545579058,8368.351462903702
4459.5486476364595,8744.624768763268
4459.571839602949,9623.594665625249
4459.595031690048,10321.45828258359
4459.618223897759,11290.982676821794
4459.641416226081,11683.444061138292
4459.664608675014,12021.592561050966
4459.687801244561,12340.719271519853
4459.710993934721,12404.248269121394
4459.734186745496,12260.55233324231
4459.757379676885,12056.422408014661
4459.780572728889,11859.628654791499
4459.803765901509,11245.555736094226
4459.8269591947455,10693.72338128523
4459.850152608599,9945.006844946713
4459.87334614307,8963.447989700831
4459.89653979816,7675.331461884755
4459.91973357387,6703.25372895178
4459.942927470198,5512.551746872648
4459.966121487147,4588.800488414507
4459.989315624717,4252.623275204423
4460.0125098829085,4240.043674675675
4460.035704261722,4550.342977018913
4460.058898761158,5117.014989714208
4460.082093381218,5867.37382814346
4460.105288121902,6794.920550903623
4460.12848298321,7856.8888382763735
4460.151677965145,8905.777813682322
4460.1748730677045,9962.02492872192
4460.198068290891,10905.198306762113
4460.221263634704,11702.068293097915
4460.244459099145,12213.427666916821
4460.267654684215,12417.500117666195
4460.290850389914,12518.07813147278
4460.314046216243,12639.630162179341
4460.337242163202,12911.319098789038
4460.360438230791,12966.015926396207
4460.383634419013,13153.453556210055
4460.406830727867,13005.454953997163
4460.430027157354,12922.088256611505
4460.453223707474,12711.061777181296
4460.476420378228,12397.950892831394
4460.499617169617,12165.53467341471
4460.522814081641,11873.717714218457
4460.5460111143,11572.154969857698
4460.569208267598,11773.832102090752
4460.592405541532,11874.741862256022
4460.615602936104,11943.010642309122
4460.638800451314,11946.192642005224
4460.661998087163,11885.575562509488
4460.685195843652,11620.543376368943
4460.708393720782,11177.990637342622
4460.731591718552,10474.579294312192
4460.754789836965,9688.146978562047
4460.777988076019,8610.794968759083
4460.801186435716,7348.530282920122
4460.824384916057,6262.382717352641
4460.847583517042,5309.684012655488
4460.870782238671,4636.17334599019
4460.893981080947,4298.575895386663
4460.917180043868,4032.1171622503603
4460.940379127435,3971.878404341758
4460.963578331651,4016.0461442348205
4460.986777656513,4302.1785475412535
4461.009977102025,4808.682496642322
4461.033176668186,5520.751315261263
4461.056376354995,5920.373050472842
4461.079576162457,6116.7735421098
4461.102776090568,5959.001386826137
4461.125976139332,5413.592463485709
4461.149176308748,4886.353990165906
4461.172376598816,4481.625476657394
4461.195577009538,4326.842213727547
4461.218777540915,4378.696080850593
4461.241978192946,4673.818409130258
4461.265178965633,4955.139341155073
4461.2883798589755,5103.279552118926
4461.311580872974,4761.7020297936915
4461.3347820076315,4377.441240608189
4461.357983262946,3766.7616664422267
4461.381184638919,3104.036145330291
4461.404386135551,2669.2821517699
4461.4275877528435,2514.871034889521
4461.4507894907965,2775.4095607534123
4461.4739913494095,3376.4227557288177
4461.497193328685,4172.329457258816
4461.520395428623,5221.365599587204
4461.543597649224,6421.731928903836
4461.566799990488,7366.788595769943
4461.590002452416,8047.726393780782
4461.61320503501,8407.644029231315
4461.636407738269,8187.844501905308
4461.659610562193,7478.9459048344415
4461.682813506784,6541.495138475886
4461.706016572044,5511.828993765888
4461.729219757971,4648.02706000037
4461.752423064566,4222.27139291612
4461.775626491831,4238.962007427538
4461.798830039766,4683.359025385179
4461.82203370837,5551.608803311365
4461.845237497647,6560.7430121883945
4461.868441407595,7637.60701055686
4461.891645438215,8377.12073117418
4461.914849589509,8800.314617565486
4461.938053861475,9135.449064859591
4461.961258254117,9196.769514503334
4461.984462767433,9345.86977317625
4462.007667401424,9696.871446029949
4462.030872156092,9870.688357419558
4462.0540770314365,9744.026825158933
4462.077282027459,9383.080297708586
4462.100487144158,8641.794459117182
4462.123692381537,7758.6656000815665
4462.146897739594,6748.851064216426
4462.170103218332,5914.078197286394
4462.19330881775,5610.02708346753
4462.21651453785,5692.972767881064
4462.239720378631,6174.312636815984
4462.262926340095,7212.330921255293
4462.286132422241,8526.21865205674
4462.309338625071,9927.626671270962
4462.3325449485865,10980.684223974438
4462.355751392785,11552.943115776201
4462.3789579576705,11755.073996620007
4462.402164643242,11756.387469977746
4462.4253714495,11551.748546086848
4462.448578376446,11126.11342761807
4462.471785424079,11034.018049778319
4462.494992592401,11056.05315749412
4462.518199881412,11015.27050981279
4462.541407291114,11063.08408987206
4462.564614821506,10944.194424067802
4462.587822472589,10932.626430525705
4462.611030244365,10626.997449850764
4462.634238136832,10176.026978136519
4462.657446149992,9275.92874295241
4462.680654283847,8253.352152546797
4462.703862538396,6759.672231762473
4462.727070913639,6144.661427550491
