wave,flux
5000.025812696027,34874.82409391813
5000.051815424163,34252.82134072744
5000.0778182875265,33470.800620830196
5000.103821286119,32483.56748291558
5000.12982441994,31803.88255561646
5000.155827688991,31643.028197540072
5000.181831093272,31714.937435722193
5000.207834632784,31983.22064864494
5000.2338383075285,32341.294804630943
5000.259842117506,33091.09660993015
5000.285846062716,33603.81493033816
5000.311850143161,34296.4815488941
5000.33785435884,34827.13678332258
5000.363858709754,35275.328031196295
5000.389863195905,35804.33461954985
5000.415867817292,36635.1765740057
5000.441872573917,37244.205570960505
5000.4678774657805,37567.66924482493
5000.493882492882,37996.60868770597
5000.519887655224,38442.50506680151
5000.545892952806,38811.04615701287
5000.571898385629,38943.62802529802
5000.597903953694,38618.76164342032
5000.623909657001,38742.50942083544
5000.649915495552,38376.51980530929
5000.675921469346,38275.27705279652
5000.701927578384,37833.77981852033
5000.727933822669,37363.07270089679
5000.7539402021985,36117.97287539446
5000.779946716975,35135.54535537705
5000.805953366999,33795.58640309023
5000.831960152272,32369.837478129353
5000.857967072792,31243.731403627902
5000.883974128563,30388.320349281064
5000.9099813195835,29908.565775508636
5000.935988645855,29955.33864680734
5000.961996107378,30466.401081624485
5000.988003704153,30936.744606485026
5001.014011436181,31345.04548228387
5001.040019303464,31459.000212944182
5001.066027306,31493.211801983725
5001.092035443791,31050.14156425316
5001.118043716839,30082.876407925083
5001.1440521251425,28970.14669619187
5001.170060668704,27315.424463944713
5001.196069347523,25614.98610010109
5001.222078161601,23992.712915859956
5001.248087110937,22472.24322568576
5001.274096195534,21739.126733285073
5001.300105415392,21795.653172825623
5001.326114770512,22267.216986218315
5001.352124260892,23335.01750400579
5001.3781338865365,24842.43876224336
5001.4041436474445,26590.217689338246
5001.430153543616,28499.015801946953
5001.456163575053,30227.200362649568
5001.482173741756,32168.02895858678
5001.508184043724,34019.456110337625
5001.534194480961,35245.08545329988
5001.560205053464,36542.1793272521
5001.586215761236,37584.13970106463
5001.612226604278,38420.37261401262
5001.638237582589,38890.899930573345
5001.664248696171,39626.19927594287
5001.690259945024,40189.34290988569
5001.716271329149,40263.563437446326
5001.742282848547,40268.217468856084
5001.768294503218,40239.20946014988
5001.794306293164,40493.81792405223
5001.820318218383,40621.00072999599
5001.84633027888,40481.76279775705
5001.872342474651,40340.606612759
5001.8983548056995,39906.22642014264
5001.924367272026,39828.91398748828
5001.9503798736305,39412.47942787683
5001.976392610514,38965.940940862114
5002.002405482678,38583.43968863731
5002.028418490122,38007.01591349207
5002.054431632847,37284.956495162434
5002.080444910854,36412.78325240712
5002.106458324142,35140.86680537003
5002.1324718727155,33809.37242483234
5002.158485556572,32609.547776731553
5002.184499375713,31527.86823688639
5002.210513330139,31231.603967944386
5002.236527419852,31667.453111356586
5002.262541644852,32295.69812469243
5002.288556005138,33146.46910464661
5002.314570500714,34247.76977278117
5002.340585131577,35115.548995232
5002.36659989773,36106.25173074797
5002.392614799174,37016.9578893937
5002.418629835909,37704.313609604826
5002.444645007936,38527.04806681629
5002.4706603152545,39292.2920560207
5002.496675757866,39757.383491937966
5002.522691335772,40128.64536836634
5002.548707048972,40374.07358462332
5002.574722897468,40587.00172416047
5002.600738881259,40842.49951471263
5002.626755000347,40927.14511220846
5002.652771254732,40960.320314004864
5002.678787644415,40860.750468070255
5002.704804169397,41002.57195779337
5002.730820829678,40884.097653658966
5002.75683762526,40796.427472349096
5002.782854556142,40726.27548635368
5002.8088716223265,40666.010876234024
5002.834888823812,40730.10646820013
5002.860906160601,40657.571974581035
5002.886923632695,40580.992853165626
5002.912941240092,40608.63206891008
5002.938958982793,40498.22219150369
5002.9649768608015,40519.43453087042
5002.990994874116,40481.52524235077
5003.017013022737,40280.854482089446
5003.043031306666,40200.59809709395
5003.069049725905,39914.63492701415
5003.095068280452,39531.56816217227
5003.121086970309,39248.947647605564
5003.147105795477,39072.88874395935
5003.173124755956,39282.9827782683
5003.199143851748,38902.543950949206
5003.225163082852,38916.433658863534
5003.251182449269,38675.59995923743
5003.277201951001,38835.7118097384
5003.3032215880485,38470.08224625338
5003.32924136041,38042.12831681443
5003.35526126809,37732.77856235149
5003.381281311085,37082.55704233622
5003.407301489398,36320.91943293709
5003.433321803031,35761.83827357651
5003.459342251982,35384.51847352433
5003.4853628362525,35285.965533013514
5003.511383555844,35349.98145650617
5003.537404410757,35508.10444523931
5003.563425400991,35879.90243547421
5003.589446526548,35888.688136113975
5003.615467787429,36476.137764745516
5003.641489183634,37136.78629494531
5003.667510715163,37374.429618877875
5003.693532382018,37866.273306302304
5003.719554184199,37995.29840578821
5003.745576121707,38553.2486141484
5003.771598194542,38994.15861966122
5003.797620402706,39061.37276734931
5003.823642746199,39547.31282455473
5003.849665225021,39822.69922176395
5003.875687839174,40033.395889959764
5003.901710588658,40335.00599629057
5003.927733473473,40477.7589350505
5003.953756493622,40713.68018497479
5003.979779649103,40719.84321543059
5004.005802939919,40866.83747459839
5004.031826366068,40997.61383160289
5004.057849927553,40626.17195508465
5004.083873624375,40920.71234692627
5004.109897456533,41274.60691437377
5004.135921424028,41101.76382322612
5004.161945526862,40815.18808055038
5004.187969765035,40715.907653321825
5004.213994138547,40581.51373852659
5004.240018647399,40433.6924127263
5004.266043291592,40223.730422874076
5004.292068071127,39760.76274549216
5004.318092986004,39372.62384760677
5004.344118036223,38951.332400399864
5004.370143221788,38348.378957159315
5004.396168542696,37708.813991053765
5004.422193998949,36770.24197841044
5004.448219590549,35427.29694574606
5004.474245317495,33779.13409023888
5004.500271179789,31989.05098446581
5004.52629717743,30624.790515963672
5004.5523233104195,29046.83257804531
5004.578349578759,28571.3357564799
5004.604375982449,28423.7856153559
5004.630402521489,29025.841381963197
5004.656429195881,30177.673683335765
5004.682456005625,31366.333022576095
5004.708482950721,32486.18019873559
5004.734510031172,33549.06183855632
5004.760537246977,34398.392568059826
5004.7865645981365,35407.31490920919
5004.812592084652,36151.8261062395
5004.838619706525,36521.42520700115
5004.8646474637535,36635.89154663314
5004.890675356341,36169.14363059264
5004.916703384286,35406.67506532128
5004.942731547591,34458.253948647834
5004.968759846256,33261.70084038764
5004.994788280281,31498.461345325566
5005.020816849668,29659.295310726262
5005.046845554417,27320.423284800945
5005.072874394528,25574.187690940307
5005.098903370003,23988.774679260303
5005.124932480842,23177.571171780713
5005.150961727047,23025.408989764615
5005.176991108617,23563.490380371073
5005.203020625552,24338.878256033386
5005.229050277856,25357.424270051364
5005.255080065526,26314.32216987208
5005.281109988566,27006.94731710562
5005.3071400469735,27291.611700413316
5005.333170240751,27292.701379122613
5005.3592005699,26854.71901775402
5005.38523103442,25905.5871094128
5005.411261634312,24759.57674790421
5005.4372923695755,23106.111361948428
5005.463323240213,21646.2508623731
5005.489354246225,20338.418078289586
5005.515385387611,19700.621372217272
5005.541416664373,19564.938139597452
5005.567448076511,20128.168020924946
5005.593479624025,21180.44343138697
5005.619511306918,22923.650212155713
5005.645543125189,24885.95645784773
5005.671575078838,27222.478079017023
5005.697607167867,29243.17721434154
5005.723639392277,31117.487372297637
5005.749671752068,32785.379814094624
5005.77570424724,34267.17633838748
5005.8017368777955,35801.4652576517
5005.8277696437335,37048.684078236496
5005.853802545055,37931.97684082905
5005.879835581762,38574.1391669798
5005.905868753854,38979.30837660344
5005.931902061331,39609.3879128699
5005.957935504196,40037.24928442126
5005.983969082448,39994.46245564618
5006.010002796088,40170.63576764914
5006.036036645117,40129.836996481165
5006.062070629536,40196.36491411421
5006.088104749344,40369.39577669469
5006.114139004544,40133.43196272584
5006.140173395135,40047.80605564475
5006.166207921118,40186.783078649474
5006.192242582495,39886.40142889286
5006.218277379266,39827.78318582106
5006.244312311431,39759.313702425934
5006.270347378991,39539.67296426663
5006.296382581946,39637.517625082786
5006.322417920299,39323.67118681822
5006.348453394048,38755.39258650867
5006.374489003196,38376.81059513981
5006.400524747743,37850.67678274981
5006.426560627688,37171.314526708076
5006.452596643034,35799.76183453283
5006.47863279378,34436.61833372266
5006.504669079928,32853.349540637726
5006.530705501478,30717.517875715803
5006.556742058431,28691.534386237956
5006.582778750788,26425.33485301291
5006.608815578549,24732.22398462024
5006.634852541715,23058.581499300028
5006.660889640287,22358.419402544045
5006.686926874265,22313.997294651334
5006.71296424365,22993.20900583798
5006.739001748444,24278.13780274815
5006.765039388645,25829.064491809928
5006.791077164256,27807.012272484866
5006.817115075277,29787.493824925612
5006.843153121708,31593.509014986626
5006.869191303552,33229.544905813964
5006.895229620806,34672.48838673547
5006.921268073474,35952.133155782285
5006.947306661555,36938.51250976618
5006.97334538505,37801.440628974946
5006.999384243961,38490.97204695646
5007.025423238286,38875.79911935504
5007.051462368028,38786.25494554691
5007.077501633187,38653.85045194419
5007.103541033764,38764.143163474095
5007.129580569759,38934.075221476174
5007.155620241173,38895.029280921895
5007.181660048007,38918.26598081666
5007.207699990262,39087.43947316134
5007.233740067937,39617.816129936306
5007.259780281035,39681.17691560419
5007.285820629555,39918.25982352507
5007.311861113499,40334.01145748871
5007.337901732866,40811.30574262794
5007.363942487658,41028.026615776784
5007.389983377876,40901.81840816274
5007.41602440352,41047.38559102842
5007.442065564591,41242.69270939147
5007.468106861089,41216.27132918215
5007.494148293015,41472.91544300178
5007.520189860371,41600.727014630305
5007.546231563156,41356.23116070403
5007.572273401372,41486.3453814271
5007.598315375018,41961.09654713388
5007.624357484096,41685.27694108353
5007.650399728607,41640.16878464814
5007.676442108551,41670.8500932085
5007.702484623929,41721.32773500267
5007.728527274741,41836.78136230477
5007.754570060989,41993.609883401376
5007.780612982673,41865.071112796155
5007.806656039793,41722.70091354512
5007.832699232351,41780.443679702774
5007.858742560347,41856.20452726343
5007.884786023782,41624.917509282415
5007.910829622656,41387.181329390514
5007.936873356971,41404.40019814223
5007.962917226726,41330.52730373107
5007.988961231923,41229.85875015616
5008.015005372563,40959.6374523748
5008.041049648646,40585.297346209365
5008.067094060171,40687.496604452186
5008.0931386071425,40866.793426527365
5008.119183289558,40975.83599916768
5008.14522810742,41017.24415096007
5008.171273060728,41347.04469263732
5008.197318149483,40973.51883889486
5008.223363373687,41031.465764704306
5008.249408733339,41146.53784653911
5008.27545422844,41210.17060711524
5008.301499858992,41388.600322108556
5008.327545624995,41213.58002364271
5008.353591526448,41206.51896509946
5008.379637563355,41102.87486407515
5008.405683735714,41420.74845472492
5008.431730043527,41312.227137222035
5008.457776486794,41273.998710841304
5008.483823065515,41388.16855413798
5008.509869779693,41673.80064212529
5008.535916629327,41641.93420954102
5008.561963614418,41561.752296501225
5008.588010734968,41749.40591447107
5008.614057990975,41709.06931058663
5008.640105382442,41652.75499967006
5008.666152909369,41692.31064920884
5008.692200571756,41776.429884527366
5008.718248369605,41921.17252366558
5008.744296302916,41789.327350436215
5008.77034437169,41576.37231108749
5008.796392575927,41663.667451408604
5008.822440915628,41664.75981967761
5008.848489390794,41534.738756570776
5008.874538001426,41334.468351686766
5008.900586747524,41380.92952211834
5008.926635629089,41118.03534355385
5008.952684646122,41050.61885655693
5008.978733798623,41251.481636363475
5009.004783086593,40885.27212725194
5009.030832510033,40674.096153208244
5009.056882068944,40832.4497741031
5009.082931763326,41055.90439683766
5009.108981593179,40811.59743016171
5009.135031558506,40523.81453299841
5009.161081659306,40534.28749207407
5009.187131895579,40619.90856879415
5009.213182267327,40577.07977555991
5009.239232774552,40272.5669927017
5009.265283417251,40032.183544990454
5009.291334195428,39895.11560005524
5009.317385109083,39462.14737689914
5009.343436158216,38731.03622606339
5009.369487342828,37765.371701480864
5009.395538662919,37176.67119960422
5009.421590118491,36140.88493532812
5009.447641709544,35176.070865475594
5009.473693436078,34047.61909929383
5009.499745298095,32701.63898672524
5009.525797295596,31512.612588012827
5009.55184942858,30075.330317045147
5009.577901697049,28877.945599396502
5009.603954101003,27816.075988565713
5009.630006640443,27560.435018150532
5009.65605931537,27862.212344862968
5009.682112125784,28729.377922568638
5009.708165071686,30101.46966914165
5009.7342181530785,31564.785479777842
5009.760271369959,33098.11425577873
5009.78632472233,34528.57426402379
5009.812378210192,35704.019110469104
5009.838431833546,36753.73877942791
5009.864485592391,37729.65878925466
5009.890539486731,38700.68514376149
5009.916593516564,39580.49091011416
5009.942647681891,40209.69818245459
5009.968701982713,40579.05068807917
5009.994756419032,40770.68772911668
5010.020810990847,41115.76958645985
5010.046865698159,41213.67208863812
5010.072920540969,41347.98330347969
5010.098975519279,41195.350915517105
5010.125030633087,41204.053597654936
5010.151085882395,40777.20159841377
5010.177141267204,40283.29670954018
5010.2031967875155,40084.77387648599
5010.229252443328,39454.619596244935
5010.255308234644,38803.69093860721
5010.281364161464,38091.93880212745
5010.307420223788,37148.57751686512
5010.333476421617,36670.800885218836
5010.359532754951,36605.584661686415
5010.3855892237925,36653.49671186584
5010.4116458281405,37087.96632949636
5010.437702567997,37583.8868089884
5010.463759443362,38085.64834169083
5010.489816454236,38599.1337670136
5010.51587360062,39089.46395591698
5010.541930882514,39552.26055943386
5010.56798829992,40006.0855122288
5010.5940458528385,40585.75678873309
5010.62010354127,40671.1553538704
5010.646161365214,40826.60615321513
5010.672219324672,41313.03489485126
5010.698277419646,41416.000060065366
5010.724335650135,41454.92689970627
5010.7503940161405,41567.13183910859
5010.7764525176635,41603.262956109065
5010.802511154703,41759.30328334163
5010.828569927262,41597.51985758633
5010.85462883534,41622.551254123995
5010.880687878937,41728.88427735047
5010.906747058056,41482.32044364385
5010.932806372695,41448.66979749507
5010.958865822856,41337.476672275676
5010.98492540854,41207.885496881296
5011.0109851297475,41071.62989303731
5011.0370449864795,40636.39555183119
5011.063104978735,40303.56952148392
5011.089165106517,39708.00346813185
5011.115225369825,39213.71815706814
5011.14128576866,38693.83943811869
5011.167346303022,38054.38226046733
5011.193406972913,37647.11584104955
5011.219467778333,37036.79288160395
5011.2455287192815,35849.39024114423
5011.271589795761,34581.77579224791
5011.297651007772,33342.48990570332
5011.323712355315,31479.212357379136
5011.34977383839,29433.74152626081
5011.375835456999,27352.334063578746
5011.401897211142,25084.612123260562
5011.427959100819,22962.859400149144
5011.454021126031,21189.48480781018
5011.4800832867795,20046.75258689841
5011.506145583065,19833.00774123246
5011.532208014888,20082.39683394228
5011.558270582248,20899.174808110474
5011.584333285148,22217.413178505896
5011.610396123588,23882.081024328312
5011.636459097567,25916.665238229678
5011.662522207088,27631.580421968007
5011.68858545215,29240.398635035912
5011.714648832754,30272.12392143896
5011.740712348902,31196.05796367993
5011.766776000594,31656.99145963813
5011.79283978783,31773.727878471527
5011.818903710611,31862.00977233403
5011.844967768939,31971.35498639362
5011.871031962813,32346.653591588307
5011.897096292234,32881.99703018852
5011.923160757203,33642.648064882116
5011.949225357721,34509.81866663841
5011.975290093788,35119.69200272734
5012.001354965406,35577.57533990436
5012.027419972574,35918.53313083404
5012.053485115294,36158.03064248055
5012.079550393566,36293.54673045756
5012.105615807392,36367.42531527906
5012.13168135677,36712.515364538245
5012.157747041703,37399.567337958535
5012.183812862192,37969.85858847112
5012.209878818236,38180.242321255275
5012.235944909837,38922.532958946365
5012.262011136994,39250.038176821254
5012.28807749971,39578.06285941423
5012.3141439979845,39805.540578642416
5012.340210631818,40398.628799495986
5012.366277401212,40213.21368144124
5012.392344306166,40504.19425545139
5012.418411346682,40542.878654554355
5012.44447852276,40615.12874741888
5012.470545834401,40599.419618973436
5012.496613281605,40235.65637981436
5012.522680864374,39870.11358479952
5012.548748582707,39423.163960368984
5012.574816436606,38768.92470677046
5012.600884426071,37579.086238542135
5012.626952551104,36659.56909693678
5012.653020811705,35796.17874883033
5012.679089207873,34515.303303736124
5012.705157739611,33431.8531589594
5012.73122640692,32660.959813216665
5012.757295209798,32427.327661031515
5012.7833641482475,32465.712485046548
5012.80943322227,32586.285411927205
5012.835502431864,33021.91839393332
5012.861571777033,32831.37299106809
5012.887641257775,32369.092716903186
5012.9137108740915,31872.304720395274
5012.939780625984,30882.123094516675
5012.965850513452,29537.89127960461
5012.991920536498,27924.128741792247
5013.017990695121,26144.34910712307
5013.044060989323,24666.351201856458
5013.070131419104,23130.56280967922
5013.096201984464,22490.9334260623
5013.122272685405,22593.367074251204
5013.148343521927,23261.120371854653
5013.17441449403,24561.14524668209
5013.200485601717,26093.939782051268
5013.226556844987,27811.449221067076
5013.2526282238405,29627.447788683967
5013.278699738279,30934.27048240817
5013.304771388303,32302.373869147574
5013.330843173913,33502.548050336845
5013.35691509511,35005.554517421835
5013.382987151894,35648.292546902194
5013.409059344267,36023.812778724794
5013.435131672228,36087.43582708825
5013.46120413578,36047.070405332444
5013.487276734921,35451.23594530032
5013.513349469653,34492.78867805668
5013.539422339977,33256.58741576554
5013.565495345894,31720.144954706608
5013.5915684874035,30110.6654204463
5013.617641764507,28592.1217589446
5013.643715177206,27532.883399859234
5013.6697887254995,27085.160056542652
5013.695862409389,27362.101264417106
5013.721936228875,28066.83544772542
5013.748010183958,28908.56823068639
5013.77408427464,30400.100958186606
5013.800158500921,32170.29151861272
5013.826232862801,33523.109917913935
5013.852307360281,34839.01011269699
5013.8783819933615,35891.667187446066
5013.904456762045,36808.22415623343
5013.930531666329,37584.497364320734
5013.956606706218,38046.42496279548
5013.982681881709,38606.08244158367
5014.008757192805,38649.141285059086
5014.034832639507,38766.45936939724
5014.060908221814,38629.19852660383
5014.086983939728,38373.73452160743
5014.113059793249,37748.81606999822
5014.139135782378,37013.05412761811
5014.165211907116,35991.27921816475
5014.1912881674625,34315.84082489625
5014.21736456342,32659.998002695484
5014.243441094988,30842.87394858113
5014.269517762167,28915.1387074756
5014.295594564959,27054.635187339805
5014.321671503363,25645.921460159865
