wave,flux
4450.003811362098,14894.36691045039
4450.026953690486,14558.711213898468
4450.050096139227,14141.098419344811
4450.073238708321,13543.371832146995
4450.096381397769,12761.40187798946
4450.119524207569,12021.183317147592
4450.142667137726,11070.77209830816
4450.165810188237,10117.072559569575
4450.188953359103,9033.029321059055
4450.212096650326,8092.305413663486
4450.2352400619075,7056.680802482142
4450.258383593846,6119.841844284546
4450.281527246142,5360.59521049434
4450.304671018797,4637.077122829668
4450.327814911813,4283.0030289039005
4450.350958925188,3941.5970070723524
4450.374103058924,3713.3529637299876
4450.3972473130225,3504.2661037789726
4450.420391687483,3365.2892660025072
4450.443536182305,3459.6047239682653
4450.466680797492,3812.7822692509476
4450.489825533042,4295.634497100486
4450.512970388957,4986.274152819832
4450.536115365237,5630.071584457174
4450.559260461882,6442.226678903304
4450.582405678895,7153.626030119991
4450.605551016274,7659.76853186955
4450.628696474022,8030.975123379291
4450.651842052138,8275.731155892498
4450.674987750623,8351.097187350868
4450.698133569476,8427.731675773486
4450.721279508702,8521.18020272152
4450.744425568297,8649.20450553925
4450.767571748264,9076.699548911398
4450.790718048604,9575.22862322242
4450.813864469315,10053.147395757473
4450.837011010401,10578.100867797175
4450.86015767186,11249.659332357965
4450.883304453694,12106.659182425823
4450.906451355903,13258.130119950009
4450.929598378489,14197.201478576375
4450.95274552145,15139.58226175543
4450.975892784789,16045.394252657716
4450.999040168505,16680.220635704707
4451.022187672601,17188.10361455832
4451.045335297074,17353.82380951189
4451.068483041929,17498.065249483843
4451.091630907163,17619.496409410825
4451.114778892777,17474.10887840025
4451.137926998774,17563.912710017317
4451.161075225153,17312.11941362117
4451.184223571914,16920.315813736805
4451.207372039059,16606.449066662444
4451.230520626587,16089.2164134597
4451.253669334501,15619.57276151858
4451.2768181628,15037.950698572018
4451.299967111485,14301.513247573668
4451.323116180556,13435.440023151072
4451.346265370014,12521.158588909071
4451.369414679861,11484.471128857414
4451.392564110095,10559.908519309882
4451.415713660719,9690.02684635839
4451.438863331732,8619.417599658265
4451.462013123136,7759.674045820106
4451.48516303493,7171.785158048998
4451.508313067117,6757.804276450855
4451.531463219695,6805.956643608432
4451.554613492666,7263.395103140244
4451.577763886031,8151.081364109258
4451.60091439979,9355.615861556698
4451.624065033943,10551.346639461619
4451.647215788492,11757.49153956841
4451.670366663436,12791.223906534982
4451.693517658777,13765.587966501995
4451.716668774516,14465.76190219648
4451.739820010652,14631.593486983204
4451.762971367186,14613.022797178757
4451.78612284412,14486.016743792426
4451.8092744414525,14030.35740888785
4451.832426159187,13519.233138115254
4451.855577997321,12867.46645269817
4451.878729955857,12142.032093746646
4451.901882034796,11530.511226931983
4451.925034234137,11179.243413729555
4451.948186553881,11052.24621866976
4451.97133899403,11436.142691406074
4451.994491554583,12014.722473583028
4452.017644235542,12636.274947732392
4452.040797036907,13589.705831894693
4452.063949958678,14522.205511576187
4452.087103000857,15083.019108794297
4452.1102561634425,15965.652535734826
4452.133409446437,16515.13104934588
4452.156562849841,17053.821802286067
4452.179716373655,17294.301940055022
4452.202870017878,17461.38773413729
4452.226023782513,17547.42246257864
4452.24917766756,17666.63694297163
4452.272331673018,17559.273515484892
4452.29548579889,17302.407132472952
4452.318640045174,16977.602981098837
4452.341794411874,16747.76397221903
4452.364948898987,16379.59208252864
4452.388103506516,15830.749599068959
4452.4112582344615,15348.147941146668
4452.434413082823,14835.295209151269
4452.457568051602,14050.141863436655
4452.480723140799,13265.809415142252
4452.503878350413,12726.905018878337
4452.527033680448,12138.83688488874
4452.550189130902,11559.25285333983
4452.5733447017765,11035.63242390954
4452.596500393071,10671.178328419908
4452.619656204789,10560.037338632845
4452.642812136928,10378.233978280967
4452.66596818949,10291.97096479127
4452.689124362475,10535.938991661267
4452.7122806558855,10865.882469466289
4452.735437069719,11277.930529578745
4452.7585936039795,11790.864644638197
4452.781750258665,12123.818988274543
4452.804907033777,12503.954835493521
4452.828063929317,12415.970783234096
4452.851220945285,12521.931557605883
4452.87437808168,12115.427517412872
4452.897535338506,11669.842629326156
4452.92069271576,11583.23861558759
4452.943850213445,11243.733431927441
4452.967007831562,11219.199488577762
4452.99016557011,11336.325969028134
4453.01332342909,11565.75796465631
4453.036481408502,11938.756106608178
4453.059639508349,12212.684660386421
4453.08279772863,12225.214722148894
4453.105956069345,12019.169087944492
4453.129114530496,11753.934214943742
4453.152273112083,11353.447545521014
4453.175431814107,10730.910531949938
4453.198590636567,10251.98625108525
4453.221749579466,9837.322711473753
4453.244908642802,9645.016853188228
4453.268067826579,9709.758886972177
4453.291227130795,10134.534642503086
4453.314386555451,10920.49630316079
4453.337546100549,11853.574376476316
4453.360705766087,12954.245237393157
4453.3838655520685,14017.16596313379
4453.407025458493,14715.125589088593
4453.430185485361,15071.862578390277
4453.453345632673,15220.043035504603
4453.476505900429,15240.751242301116
4453.4996662886315,14960.36035767242
4453.52282679728,14584.977028822994
4453.545987426375,14301.986276242133
4453.569148175917,13732.660730122749
4453.592309045907,13198.760203077829
4453.615470036346,12847.863550926199
4453.638631147233,12525.79172927274
4453.661792378571,12508.488494597279
4453.684953730359,12851.477387779867
4453.708115202598,13600.681053889504
4453.731276795288,14211.210363096137
4453.754438508431,14931.348539854238
4453.777600342027,15553.116244867279
4453.800762296077,15988.913319213845
4453.82392437058,16421.125274442933
4453.847086565538,16724.242481542482
4453.870248880952,16944.07916267067
4453.8934113168225,17257.072102120383
4453.916573873149,17296.830803239685
4453.939736549933,17235.864618481115
4453.962899347174,17022.629260456895
4453.986062264875,16707.742601292928
4454.009225303034,16357.923862768146
4454.032388461654,15968.613904906371
4454.055551740734,15512.89306676334
4454.078715140275,14852.085602075584
4454.101878660277,14194.094567343158
4454.125042300742,13253.071247580963
4454.14820606167,12425.395354285867
4454.171369943061,11498.189010055185
4454.194533944917,10311.14223025626
4454.2176980672375,9283.729448294172
4454.240862310024,8140.896240609366
4454.264026673275,7244.425421954796
4454.287191156994,6426.7335654883145
4454.31035576118,5874.2274951848885
4454.333520485834,5708.1006407537125
4454.356685330957,5812.8219585044135
4454.379850296548,6149.931862652151
4454.40301538261,6601.722632771494
4454.426180589142,7226.568159964319
4454.449345916145,7589.423400138845
4454.4725113636205,7932.918130618903
4454.495676931568,7960.59309123573
4454.5188426199875,7653.239557270111
4454.542008428882,7026.163974306259
4454.565174358249,6320.88284010964
4454.588340408092,5681.1311473835385
4454.611506578411,4872.755702953081
4454.634672869205,4200.3296315566595
4454.657839280476,3810.235272330508
4454.681005812225,3455.9517143319476
4454.704172464451,3317.589232609512
4454.727339237156,3373.443547440639
4454.750506130341,3508.230627886121
4454.773673144005,3859.149913029162
4454.79684027815,4338.313345340576
4454.820007532776,4889.691112349128
4454.843174907884,5392.3127179478915
4454.866342403473,5872.971479200037
4454.889510019546,6284.0011848922395
4454.912677756102,6569.526276629554
4454.935845613144,6888.178496996648
4454.959013590669,7116.467692504834
4454.982181688681,7475.134827459578
4455.005349907178,7991.776293138115
4455.028518246162,8567.711096675284
4455.051686705633,9215.061361458818
4455.074855285593,9614.899545537059
4455.098023986041,9919.589043909606
4455.121192806979,9981.808890746355
4455.144361748406,9827.496322230973
4455.167530810323,9446.571177493179
4455.190699992732,8927.58868328123
4455.213869295633,8645.681293887505
4455.237038719026,8419.377667440775
4455.260208262912,8581.658187515202
4455.283377927292,8946.276926111868
4455.306547712166,9724.641413127876
4455.329717617535,10713.218305624496
4455.352887643399,11922.652297966613
4455.37605778976,12845.47499443824
4455.399228056617,13637.084856022182
4455.422398443972,14305.922880072832
4455.445568951825,14713.65554341271
4455.468739580177,14609.231130969158
4455.491910329028,14313.65328315931
4455.515081198378,13938.64557602728
4455.538252188229,13126.436452155018
4455.561423298582,12613.447163239216
4455.584594529436,11672.23385935702
4455.607765880793,10985.151452742448
4455.630937352652,10122.434383645628
4455.654108945016,9263.579695478074
4455.677280657883,8501.988083338842
4455.700452491255,7739.695786006341
4455.723624445134,6752.127008108889
4455.746796519518,6275.832686524211
4455.7699687144095,5647.795757208017
4455.793141029808,5239.7856380244575
4455.816313465714,4998.600896831086
4455.83948602213,5298.927880313565
4455.862658699055,5910.2861840488595
4455.885831496489,6879.93406358137
4455.909004414434,7913.612757787461
4455.932177452891,9291.623633389216
4455.955350611858,10342.045774971588
4455.978523891339,11669.041992088232
4456.001697291333,12575.155215492407
4456.024870811841,13197.484151270704
4456.048044452862,13487.097625936834
4456.071218214399,13591.421259457406
4456.094392096451,13515.252094867075
4456.117566099019,13374.880052083381
4456.140740222105,12850.12961918687
4456.163914465707,12179.94127192272
4456.187088829828,11289.38766109605
4456.210263314468,10452.256754000171
4456.233437919626,9604.275818174241
4456.256612645306,8843.698142733287
4456.279787491505,8355.525991961762
4456.302962458226,8019.489065132631
4456.326137545469,7977.161457256482
4456.349312753233,8222.775384018707
4456.372488081522,8504.72328373042
4456.395663530333,8953.52333380862
4456.41883909967,9274.654473916567
4456.442014789531,9405.301904894886
4456.465190599917,9422.211853456498
4456.488366530831,9291.689747695054
4456.5115425822705,9022.649573247245
4456.5347187542375,8782.246013919328
4456.557895046733,8630.739784152127
4456.581071459757,8783.39162185844
4456.604247993311,9297.914568291919
4456.627424647395,10065.885068764837
4456.650601422009,11136.885417074052
4456.673778317154,12126.31108559851
4456.696955332832,13256.433180458798
4456.720132469041,14070.17889933252
4456.7433097257845,14517.392797400264
4456.766487103061,14880.287556479914
4456.789664600872,14926.153765142457
4456.8128422192185,14818.407015371948
4456.8360199581,14491.573876544586
4456.859197817518,14219.17660216532
4456.882375797473,13955.425390475635
4456.905553897966,13520.232788014559
4456.928732118997,13210.187901805159
4456.951910460566,12820.480015087833
4456.975088922674,12576.536406305644
4456.998267505323,12624.086713767707
4457.021446208513,12797.663605548838
4457.044625032244,13220.874691481806
4457.067803976516,13664.955838772137
4457.090983041332,13932.730822398247
4457.1141622266905,14099.705278202138
4457.1373415325925,14042.355245211913
4457.160520959039,13653.195647842194
4457.183700506031,13301.139832064422
4457.206880173568,12608.885851982695
4457.230059961651,11673.999127976933
4457.2532398702815,11055.424220848268
4457.27641989946,10086.348955523925
4457.299600049186,9033.579333631365
4457.322780319461,8208.345899798367
4457.345960710286,7391.058471259555
4457.36914122166,6741.608098270351
4457.392321853586,6412.90162803504
4457.415502606062,6464.063851737362
4457.43868347909,6761.814377305502
4457.461864472672,7253.1729111714185
4457.485045586805,8085.761822302274
4457.508226821494,9054.660091794229
4457.5314081767365,10137.772754716054
4457.554589652534,11408.02498203174
4457.577771248887,12386.369789963828
4457.600952965797,13257.061302035198
4457.624134803263,14077.866862266957
4457.647316761288,14534.778607828712
4457.67049883987,14819.978913613126
4457.693681039011,14727.254620732303
4457.716863358712,14744.09002553637
4457.7400457989725,14482.649383697557
4457.763228359793,14411.24595540591
4457.7864110411765,14199.496903073368
4457.809593843121,13828.815018969435
4457.832776765628,13365.780971275419
4457.855959808699,12723.023246191937
4457.879142972333,12283.935264099135
4457.902326256532,11558.354921322432
4457.925509661296,10678.792881974614
4457.948693186626,9771.809773946281
4457.971876832522,9081.027722882543
4457.995060598985,8383.848628181153
4458.018244486016,7854.320572143942
4458.041428493615,7563.383897341179
4458.0646126217825,7296.902417862465
4458.08779687052,7407.233901969109
4458.110981239827,7623.026991597307
4458.134165729705,7820.997199942032
4458.157350340155,8152.643926983821
4458.180535071177,8198.592626674046
4458.203719922771,8525.239925197793
4458.226904894938,9095.87501150183
4458.2500899876795,9716.353252672976
4458.273275200995,10244.044332942532
4458.296460534886,10735.444016580825
4458.3196459893525,11451.33067394421
4458.342831564396,11611.691452956604
4458.366017260016,11585.147477864624
4458.389203076214,11466.231610216828
4458.4123890129895,11020.919711662958
4458.435575070344,10768.102063347204
4458.458761248279,10515.794064887645
4458.481947546794,10799.78371310435
4458.505133965889,11205.794582083854
4458.528320505566,11949.19250328781
4458.551507165825,12889.800048733536
4458.574693946666,13773.768182158134
4458.597880848091,14579.331163293331
4458.6210678701,15198.649997579952
4458.644255012693,15445.18869557734
4458.6674422758715,15491.386907447659
4458.690629659636,15319.063424649285
4458.713817163986,14881.263798414479
4458.737004788924,14361.48746722454
4458.76019253445,13612.08288819985
4458.783380400563,12778.178727308465
4458.8065683872655,11742.938093025556
4458.829756494558,10941.385844474926
4458.85294472244,9844.943736133842
4458.876133070914,8652.414953316495
4458.899321539979,7563.495003475842
4458.922510129635,6504.032078967891
4458.945698839884,5462.260830403192
4458.968887670727,4628.230305426004
4458.992076622164,3955.8371197491597
4459.015265694195,3576.3025508179
4459.0384548868215,3361.313665664592
4459.061644200044,3373.325987576265
4459.084833633862,3573.220514247798
4459.108023188278,4003.4665668399243
4459.131212863292,4467.784583556877
4459.154402658904,5066.767593757328
4459.177592575114,5842.611626331257
4459.200782611925,6426.489489164901
4459.223972769336,6963.918222217433
4459.247163047347,7552.0166306564915
4459.27035344596,8201.603376621115
4459.293543965176,8658.968961950863
4459.316734604993,9255.935188365114
4459.339925365414,10147.361220515077
4459.363116246439,11278.454275632948
4459.386307248069,12235.147676139773
4459.409498370304,13314.578753495765
4459.432689613145,14213.882166584806
4459.455880976592,14751.187994614118
4459.479072460647,14944.628598222553
4459.502264065309,15001.811571511136
4459.52545579058,14872.180856433764
4459.5486476364595,14483.396842224536
4459.571839602949,14108.309468804448
4459.595031690048,13536.536765246346
4459.618223897759,12924.874151881022
4459.641416226081,12271.496707514132
4459.664608675014,11956.851493697382
4459.687801244561,11776.696909561828
4459.710993934721,11825.319662643262
4459.734186745496,12005.833540764477
4459.757379676885,12718.017677354926
4459.780572728889,13412.382520490346
4459.803765901509,14270.09625734055
4459.8269591947455,14942.177710587575
4459.850152608599,15272.238795904459
4459.87334614307,15420.304643982856
4459.89653979816,15220.738874316585
4459.91973357387,14834.38555022748
4459.942927470198,14320.370408120247
4459.966121487147,13679.830747887027
4459.989315624717,12811.48282234038
4460.0125098829085,11879.824052658583
4460.035704261722,10940.361369150487
4460.058898761158,10035.412877118839
4460.082093381218,9024.200927962618
4460.105288121902,7928.259598130435
4460.12848298321,7232.329562658964
4460.151677965145,6507.9406545228685
4460.1748730677045,6227.095362246872
4460.198068290891,6351.693380250677
4460.221263634704,6697.175582189783
4460.244459099145,7373.068933913971
4460.267654684215,8236.799629397636
4460.290850389914,9402.419966701349
4460.314046216243,10559.343897231123
4460.337242163202,11600.322820115765
4460.360438230791,12864.937424953214
4460.383634419013,14006.516088477121
4460.406830727867,14923.988054363672
4460.430027157354,15610.958782357518
4460.453223707474,16170.92778937397
4460.476420378228,16532.599330456378
4460.499617169617,16742.542998089295
4460.522814081641,17018.84124987852
4460.5460111143,16980.215619094062
4460.569208267598,16834.08487832264
4460.592405541532,16856.086858667208
4460.615602936104,16693.111079001348
4460.638800451314,16556.662236644836
4460.661998087163,16488.5217054402
4460.685195843652,16099.451929832625
4460.708393720782,15774.65207633536
4460.731591718552,15558.098495472595
4460.754789836965,15407.288551700323
4460.777988076019,15288.936766058425
4460.801186435716,14985.053596897646
4460.824384916057,14536.85219489594
4460.847583517042,14076.866292799252
4460.870782238671,13492.899816816831
4460.893981080947,12750.775230784226
4460.917180043868,11912.98779930047
4460.940379127435,10827.457221667064
4460.963578331651,9731.926170465895
4460.986777656513,8607.11231340863
4461.009977102025,7680.377243772982
4461.033176668186,6854.317969603261
4461.056376354995,6183.041166485633
4461.079576162457,5655.294507057087
4461.102776090568,5393.935615931491
4461.125976139332,5399.983249392106
4461.149176308748,5415.682490067765
4461.172376598816,5554.8563259239545
4461.195577009538,5870.300613901762
4461.218777540915,6275.158986112516
4461.241978192946,6408.129620161353
4461.265178965633,6555.167017467665
4461.2883798589755,6571.964795572959
4461.311580872974,6356.618035897178
4461.3347820076315,6132.364956501733
4461.357983262946,5893.039393222801
4461.381184638919,5664.20977863493
4461.404386135551,5398.165122898996
4461.4275877528435,5237.500336924644
4461.4507894907965,5087.226928915603
4461.4739913494095,4752.512768301313
4461.497193328685,4600.114874450168
4461.520395428623,4302.863370154789
4461.543597649224,4027.8099516425323
4461.566799990488,3806.5483044866905
4461.590002452416,3576.477008055712
4461.61320503501,3808.4179835254063
4461.636407738269,4161.313901565334
4461.659610562193,4635.395074487364
4461.682813506784,5414.269519704327
4461.706016572044,6103.7955117843885
4461.729219757971,6786.143661991492
4461.752423064566,7550.025123301423
4461.775626491831,7886.839149574729
4461.798830039766,8060.946833382321
4461.82203370837,8142.312063616787
4461.845237497647,7674.514320654639
4461.868441407595,7222.43491145702
4461.891645438215,6860.012949205605
4461.914849589509,6324.0763290347795
4461.938053861475,6063.932568904839
4461.961258254117,6304.469373700808
4461.984462767433,6534.361160846184
4462.007667401424,7392.106679207622
4462.030872156092,8056.842741439108
4462.0540770314365,9008.820052572299
4462.077282027459,9730.170148913046
4462.100487144158,10456.530171036235
4462.123692381537,10635.190828093038
4462.146897739594,11077.8837602331
4462.170103218332,11195.029919967443
4462.19330881775,11099.910358771687
4462.21651453785,10896.574076413131
4462.239720378631,10574.277579288231
4462.262926340095,10244.143318236946
4462.286132422241,9764.36149557828
4462.309338625071,9176.427704960972
4462.3325449485865,8592.90533574602
4462.355751392785,8287.195516441501
4462.3789579576705,8271.905375604802
4462.402164643242,8540.003229088692
4462.4253714495,9216.15195836537
4462.448578376446,9956.905966171798
4462.471785424079,11046.345253151767
4462.494992592401,12491.467206828404
4462.518199881412,13375.922811335335
4462.541407291114,14026.995524887652
4462.564614821506,14390.648343865008
4462.587822472589,14678.984938380081
4462.611030244365,14753.167428361774
4462.634238136832,14584.277373753514
4462.657446149992,14423.559064068175
4462.680654283847,14250.797230054926
