wave,flux
4450.003811362098,13290.636511169821
4450.026953690486,13437.819583632154
4450.050096139227,13418.790048008324
4450.073238708321,13255.992383850635
4450.096381397769,13079.2245683185
4450.119524207569,12915.79032509837
4450.142667137726,12596.170624517003
4450.165810188237,12117.24715053131
4450.188953359103,11452.6402797251
4450.212096650326,10717.138924407298
4450.2352400619075,10223.897782007441
4450.258383593846,9688.369013781343
4450.281527246142,8911.414743111947
4450.304671018797,8131.564705325215
4450.327814911813,7549.734353424025
4450.350958925188,6847.527922153671
4450.374103058924,6149.397447305919
4450.3972473130225,5670.359496693284
4450.420391687483,5205.22931372366
4450.443536182305,4906.169984273925
4450.466680797492,4539.391194988927
4450.489825533042,4323.162328601489
4450.512970388957,4180.783322535576
4450.536115365237,4050.186270829379
4450.559260461882,4017.9405301609877
4450.582405678895,4066.0429453625734
4450.605551016274,4351.105857061762
4450.628696474022,4708.912534560776
4450.651842052138,5026.641455481901
4450.674987750623,5561.058161811029
4450.698133569476,6076.005259735094
4450.721279508702,6601.266132373383
4450.744425568297,7247.726637944867
4450.767571748264,7754.5477845442865
4450.790718048604,8293.773062061598
4450.813864469315,8759.464246648608
4450.837011010401,9043.715743949697
4450.86015767186,9434.375504746577
4450.883304453694,9892.195282278217
4450.906451355903,10507.421839071383
4450.929598378489,10856.88466212888
4450.95274552145,11256.727624841995
4450.975892784789,11805.362882954832
4450.999040168505,12451.512038433235
4451.022187672601,12910.490492004996
4451.045335297074,13497.379869291297
4451.068483041929,13926.70991670368
4451.091630907163,14370.458167684908
4451.114778892777,14880.30922287489
4451.137926998774,15167.491704232772
4451.161075225153,15217.656644396488
4451.184223571914,15239.726521255569
4451.207372039059,15174.657292550353
4451.230520626587,15223.487292570871
4451.253669334501,14978.922202911934
4451.2768181628,14723.798408181874
4451.299967111485,14304.75254856338
4451.323116180556,13886.237501256166
4451.346265370014,13375.018915466908
4451.369414679861,12983.922328671617
4451.392564110095,12603.064062634574
4451.415713660719,12105.40432193828
4451.438863331732,11631.66748146734
4451.462013123136,11087.871454856784
4451.48516303493,10543.63191514369
4451.508313067117,10003.292030028631
4451.531463219695,9478.545870993408
4451.554613492666,9004.262363628637
4451.577763886031,8576.015819975426
4451.60091439979,8218.053734046895
4451.624065033943,8006.740984370898
4451.647215788492,8049.535895488241
4451.670366663436,8220.248158744007
4451.693517658777,8622.606589516452
4451.716668774516,9361.17198435505
4451.739820010652,9962.81581632558
4451.762971367186,10506.727213324115
4451.78612284412,11273.504834312898
4451.8092744414525,11840.371879737066
4451.832426159187,12260.548689299312
4451.855577997321,12786.45774511289
4451.878729955857,12959.858956574024
4451.901882034796,13021.454213956393
4451.925034234137,13048.990930249045
4451.948186553881,12865.226074070933
4451.97133899403,12622.160173787319
4451.994491554583,12612.20929258746
4452.017644235542,12662.858809756288
4452.040797036907,12342.909802631208
4452.063949958678,12398.172311952916
4452.087103000857,12595.67879972936
4452.1102561634425,12618.78533384698
4452.133409446437,13050.419942830447
4452.156562849841,13347.188347993671
4452.179716373655,13887.357276591356
4452.202870017878,14256.311003920144
4452.226023782513,14564.955068222771
4452.24917766756,15017.698176070793
4452.272331673018,15351.050691726683
4452.29548579889,15473.898702659262
4452.318640045174,15349.641650132318
4452.341794411874,15386.560916523977
4452.364948898987,15437.224488382733
4452.388103506516,15198.921918336302
4452.4112582344615,14984.975951122564
4452.434413082823,14914.977730073557
4452.457568051602,14815.588837874131
4452.480723140799,14582.579639808848
4452.503878350413,14291.120783074299
4452.527033680448,13985.102475897784
4452.550189130902,13544.155204912175
4452.5733447017765,13094.798218365046
4452.596500393071,12828.45991947757
4452.619656204789,12460.527953264806
4452.642812136928,12104.075174849027
4452.66596818949,12008.610137770176
4452.689124362475,11665.600053864267
4452.7122806558855,11387.171805996522
4452.735437069719,11287.303315281912
4452.7585936039795,11215.569472689482
4452.781750258665,11136.414564906061
4452.804907033777,11027.721685135966
4452.828063929317,11349.101497180445
4452.851220945285,11442.178968735638
4452.87437808168,11544.99891318953
4452.897535338506,11674.49406946276
4452.92069271576,11862.754243440726
4452.943850213445,11855.624297906645
4452.967007831562,11849.68434218676
4452.99016557011,11802.112660189043
4453.01332342909,11846.738911362734
4453.036481408502,11622.481722224686
4453.059639508349,11454.691044648282
4453.08279772863,11316.21034146443
4453.105956069345,11256.160427477791
4453.129114530496,11132.076440888797
4453.152273112083,11283.444744392526
4453.175431814107,11478.965635442406
4453.198590636567,11418.966672847904
4453.221749579466,11456.360775854771
4453.244908642802,11550.272741124736
4453.268067826579,11368.360737989058
4453.291227130795,11201.041720446037
4453.314386555451,11011.294400112545
4453.337546100549,10936.867536979937
4453.360705766087,10829.849731561104
4453.3838655520685,10808.193414240233
4453.407025458493,11066.407455853645
4453.430185485361,11366.151899378774
4453.453345632673,11734.624051137358
4453.476505900429,12170.72628829548
4453.4996662886315,12670.051263582827
4453.52282679728,13052.960622082122
4453.545987426375,13236.934596602703
4453.569148175917,13520.564489910968
4453.592309045907,13621.953745332457
4453.615470036346,13566.579507536057
4453.638631147233,13674.100116598951
4453.661792378571,13636.209228307134
4453.684953730359,13508.604083706046
4453.708115202598,13403.832979421555
4453.731276795288,13206.138874011709
4453.754438508431,13139.126902203056
4453.777600342027,13198.111014897504
4453.800762296077,13328.706734081414
4453.82392437058,13652.521599693788
4453.847086565538,13920.969355946629
4453.870248880952,14233.392660195414
4453.8934113168225,14474.395450606818
4453.916573873149,14776.57705085261
4453.939736549933,14913.650807296704
4453.962899347174,14938.9783728123
4453.986062264875,15160.320543455511
4454.009225303034,15033.890511922646
4454.032388461654,14989.162690499661
4454.055551740734,14594.452024364828
4454.078715140275,14472.701417175334
4454.101878660277,14128.755958484511
4454.125042300742,13956.228423733524
4454.14820606167,13461.976840938165
4454.171369943061,12999.950260523025
4454.194533944917,12426.861852428881
4454.2176980672375,11841.963981709854
4454.240862310024,11404.897500798761
4454.264026673275,10582.20907039028
4454.287191156994,10081.509724315103
4454.31035576118,9549.74449148578
4454.333520485834,8869.478122092882
4454.356685330957,8231.827803868593
4454.379850296548,7721.919707482794
4454.40301538261,7111.498317070071
4454.426180589142,6615.3334344633895
4454.449345916145,6300.7796025123935
4454.4725113636205,6054.24825613181
4454.495676931568,5924.051554821839
4454.5188426199875,5966.612325975032
4454.542008428882,6178.137585483368
4454.565174358249,6270.867069403225
4454.588340408092,6343.481300482504
4454.611506578411,6359.838956077669
4454.634672869205,6326.894872951934
4454.657839280476,6200.20861164682
4454.681005812225,5883.660342184339
4454.704172464451,5426.899701123667
4454.727339237156,5092.569677797239
4454.750506130341,4855.497439580639
4454.773673144005,4602.691387708128
4454.79684027815,4267.024010646863
4454.820007532776,4068.721232222007
4454.843174907884,4048.995219540305
4454.866342403473,4084.4019198271717
4454.889510019546,4236.648185024083
4454.912677756102,4471.399932679224
4454.935845613144,4872.624775559469
4454.959013590669,5260.118268820423
4454.982181688681,5631.301826537096
4455.005349907178,6034.526947392821
4455.028518246162,6426.9730207690545
4455.051686705633,6833.383214840097
4455.074855285593,7168.90838308864
4455.098023986041,7475.41526294277
4455.121192806979,7824.049806769388
4455.144361748406,8190.6467313618305
4455.167530810323,8509.507967676951
4455.190699992732,8859.113011907357
4455.213869295633,8997.191566958843
4455.237038719026,9352.825498658489
4455.260208262912,9518.644420856132
4455.283377927292,9419.383921463774
4455.306547712166,9350.617285383792
4455.329717617535,9340.26129933862
4455.352887643399,9324.720601760515
4455.37605778976,9447.995325024518
4455.399228056617,9737.526997793506
4455.422398443972,10131.619357928219
4455.445568951825,10621.998144047777
4455.468739580177,11168.754046545893
4455.491910329028,11616.193429420398
4455.515081198378,11833.417697353147
4455.538252188229,12084.75443390271
4455.561423298582,12310.164634934397
4455.584594529436,12372.802659672921
4455.607765880793,12102.999603138178
4455.630937352652,11957.08668308684
4455.654108945016,11288.490179314796
4455.677280657883,10943.10789369907
4455.700452491255,10495.866699435923
4455.723624445134,9862.158817632466
4455.746796519518,9438.965833181164
4455.7699687144095,8731.510214436996
4455.793141029808,8373.000036995069
4455.816313465714,7713.564332693931
4455.83948602213,7278.244165227437
4455.862658699055,6826.441419844676
4455.885831496489,6591.8112876244
4455.909004414434,6283.947973547764
4455.932177452891,6361.37709430754
4455.955350611858,6538.992835834658
4455.978523891339,6836.423239942776
4456.001697291333,7209.585677642875
4456.024870811841,7820.278282212517
4456.048044452862,8728.482442616516
4456.071218214399,9359.202439682389
4456.094392096451,10054.409911399252
4456.117566099019,10618.96000659554
4456.140740222105,11198.062892586484
4456.163914465707,11501.472405299033
4456.187088829828,11577.055946683573
4456.210263314468,11800.815088304767
4456.233437919626,11620.384200516335
4456.256612645306,11510.3091087651
4456.279787491505,11336.38973407743
4456.302962458226,10955.658325131059
4456.326137545469,10461.083729150727
4456.349312753233,10050.638585163162
4456.372488081522,9553.696775131639
4456.395663530333,9204.596961906123
4456.41883909967,8978.47990241327
4456.442014789531,8803.696820417272
4456.465190599917,8691.286534744499
4456.488366530831,8742.262224560664
4456.5115425822705,8857.35006440879
4456.5347187542375,9044.129053489723
4456.557895046733,9309.804701440467
4456.581071459757,9547.897216085436
4456.604247993311,9441.386684109184
4456.627424647395,9381.266679681616
4456.650601422009,9468.845010099638
4456.673778317154,9613.583017543271
4456.696955332832,9557.742626435034
4456.720132469041,9779.91622847897
4456.7433097257845,10161.761225196438
4456.766487103061,10743.271981602948
4456.789664600872,11192.09202867725
4456.8128422192185,11847.76877148143
4456.8360199581,12495.475638340615
4456.859197817518,12720.724973269718
4456.882375797473,13129.405810152108
4456.905553897966,13397.61792164935
4456.928732118997,13343.386294568927
4456.951910460566,13441.060001282947
4456.975088922674,13372.825309056296
4456.998267505323,13210.551078566275
4457.021446208513,13085.893046212681
4457.044625032244,12852.273655215415
4457.067803976516,12706.061052512669
4457.090983041332,12481.30805464225
4457.1141622266905,12435.044379990077
4457.1373415325925,12364.167656209389
4457.160520959039,12296.985606120688
4457.183700506031,12364.883434632135
4457.206880173568,12278.882410394306
4457.230059961651,12082.650064529495
4457.2532398702815,12014.027010869691
4457.27641989946,11845.327164356235
4457.299600049186,11479.409611821156
4457.322780319461,11083.092780975583
4457.345960710286,10588.833491253914
4457.36914122166,10159.247825492012
4457.392321853586,9691.192171460394
4457.415502606062,9234.151061014856
4457.43868347909,8726.624115169505
4457.461864472672,8274.373748994698
4457.485045586805,7938.225657861144
4457.508226821494,7823.9645685534115
4457.5314081767365,7985.199599372532
4457.554589652534,8225.078147844653
4457.577771248887,8501.06256816961
4457.600952965797,8880.913417706908
4457.624134803263,9434.446789992844
4457.647316761288,10148.008486080596
4457.67049883987,10795.560555226042
4457.693681039011,11443.976369125661
4457.716863358712,12129.597508095743
4457.7400457989725,12528.261730229086
4457.763228359793,12879.621136376787
4457.7864110411765,13137.407072506681
4457.809593843121,13058.519194679755
4457.832776765628,13141.488546460603
4457.855959808699,12932.068123040357
4457.879142972333,12672.525559339587
4457.902326256532,12573.99959320548
4457.925509661296,12443.357799288497
4457.948693186626,11993.524436885036
4457.971876832522,11662.572915692766
4457.995060598985,11293.865849323554
4458.018244486016,10782.73949649913
4458.041428493615,10339.295076010932
4458.0646126217825,9855.612485518006
4458.08779687052,9274.18811425616
4458.110981239827,8837.993069701493
4458.134165729705,8556.745979713689
4458.157350340155,8313.155331507363
4458.180535071177,8231.71270976773
4458.203719922771,8228.883777139394
4458.226904894938,8417.11747309531
4458.2500899876795,8501.15969312531
4458.273275200995,8662.831299253488
4458.296460534886,8878.636592505063
4458.3196459893525,9117.042892804584
4458.342831564396,9283.17801421002
4458.366017260016,9709.351879134003
4458.389203076214,10117.602733870977
4458.4123890129895,10362.141111700552
4458.435575070344,10622.752607449282
4458.458761248279,10965.159235828933
4458.481947546794,11166.508981580595
4458.505133965889,11231.081525224887
4458.528320505566,11303.431359595124
4458.551507165825,11353.62066589289
4458.574693946666,11344.218439772725
4458.597880848091,11491.87674991335
4458.6210678701,11595.793777492852
4458.644255012693,11760.669038107055
4458.6674422758715,12063.167976105693
4458.690629659636,12366.592380761407
4458.713817163986,12680.494780770085
4458.737004788924,13008.046414305782
4458.76019253445,12838.405548242947
4458.783380400563,12597.278729706677
4458.8065683872655,12344.960748905767
4458.829756494558,12057.820534384007
4458.85294472244,11613.94068690364
4458.876133070914,11106.997249064467
4458.899321539979,10693.851188861616
4458.922510129635,10007.73839648145
4458.945698839884,9244.401100679372
4458.968887670727,8596.252277195012
4458.992076622164,7960.920818036933
4459.015265694195,7341.4778795706
4459.0384548868215,6655.430491060871
4459.061644200044,6009.498893601362
4459.084833633862,5351.879290805091
4459.108023188278,4950.7545444323405
4459.131212863292,4672.695013262464
4459.154402658904,4455.978294272687
4459.177592575114,4391.1741711336945
4459.200782611925,4461.353448214324
4459.223972769336,4731.6973010010115
4459.247163047347,5111.690954148833
4459.27035344596,5473.664386189199
4459.293543965176,6065.768930735958
4459.316734604993,6586.5712117819385
4459.339925365414,7119.183097927534
4459.363116246439,7841.129626780874
4459.386307248069,8485.241424813647
4459.409498370304,9053.93060629729
4459.432689613145,9558.362625936303
4459.455880976592,10322.08145311308
4459.479072460647,10860.835255353142
4459.502264065309,11415.537374714811
4459.52545579058,12065.54156467889
4459.5486476364595,12537.083541758422
4459.571839602949,12985.095593008491
4459.595031690048,13392.307830782886
4459.618223897759,13574.083511801833
4459.641416226081,13470.804191459501
4459.664608675014,13396.486704266956
4459.687801244561,13371.17378520419
4459.710993934721,13236.484934698534
4459.734186745496,13120.907637805853
4459.757379676885,12887.674514158882
4459.780572728889,12764.037688338052
4459.803765901509,12630.824249151605
4459.8269591947455,12688.4419743422
4459.850152608599,12693.517024792449
4459.87334614307,12793.27421369703
4459.89653979816,12977.395140701776
4459.91973357387,13153.743153683099
4459.942927470198,13301.805286986291
4459.966121487147,13306.37035821205
4459.989315624717,13064.249478678517
4460.0125098829085,12842.814975529605
4460.035704261722,12673.608355435132
4460.058898761158,12242.886266867305
4460.082093381218,11952.17059855503
4460.105288121902,11496.221922506902
4460.12848298321,11014.114510552918
4460.151677965145,10514.48182452512
4460.1748730677045,9909.908250526838
4460.198068290891,9439.39582081833
4460.221263634704,8806.211161928697
4460.244459099145,8369.816724548567
4460.267654684215,8120.547229013642
4460.290850389914,7944.26239053543
4460.314046216243,7975.6478232306445
4460.337242163202,8280.175902400055
4460.360438230791,8868.331228818177
4460.383634419013,9436.111878096403
4460.406830727867,10017.655190203357
4460.430027157354,10792.104214113271
4460.453223707474,11595.309543477562
4460.476420378228,12395.367145406915
4460.499617169617,13084.608562385898
4460.522814081641,13647.734168111207
4460.5460111143,14279.181246982702
4460.569208267598,14667.881432720786
4460.592405541532,14894.162121802425
4460.615602936104,15068.504141275493
4460.638800451314,15123.4098816577
4460.661998087163,15090.679984716318
4460.685195843652,15078.53598405135
4460.708393720782,15168.874953449653
4460.731591718552,15105.242394228178
4460.754789836965,14843.494129249846
4460.777988076019,14703.014188586203
4460.801186435716,14584.366415527464
4460.824384916057,14211.995961310937
4460.847583517042,13880.931794885226
4460.870782238671,13636.004371846044
4460.893981080947,13319.264434194205
4460.917180043868,12970.632439486079
4460.940379127435,12608.013738780108
4460.963578331651,12186.098651232887
4460.986777656513,11709.03761166453
4461.009977102025,11083.897986085514
4461.033176668186,10525.65246002662
4461.056376354995,9945.908874031034
4461.079576162457,9413.80054619326
4461.102776090568,8662.288831000418
4461.125976139332,7984.050191549474
4461.149176308748,7438.498116477525
4461.172376598816,6919.571634040722
4461.195577009538,6462.349663726255
4461.218777540915,6206.740427101761
4461.241978192946,6088.393622422333
4461.265178965633,6041.638136855604
4461.2883798589755,6031.554792739989
4461.311580872974,6004.176981084054
4461.3347820076315,5904.808650445751
4461.357983262946,6140.6933263839655
4461.381184638919,6223.392657169104
4461.404386135551,6093.293212733306
4461.4275877528435,5874.577978493021
4461.4507894907965,5822.003530646523
4461.4739913494095,5723.05018804556
4461.497193328685,5497.020401542944
4461.520395428623,5382.214930728454
4461.543597649224,5257.124768137605
4461.566799990488,5162.127372882641
4461.590002452416,5078.742355510404
4461.61320503501,5058.572273061923
4461.636407738269,4908.960247482088
4461.659610562193,4816.612549128907
4461.682813506784,4739.785281747943
4461.706016572044,4643.962350592969
4461.729219757971,4717.199882712234
4461.752423064566,4735.060123254409
4461.775626491831,4976.190639140956
4461.798830039766,5093.599760004543
4461.82203370837,5474.989316661756
4461.845237497647,5943.089007496372
4461.868441407595,6263.372269076967
4461.891645438215,6584.218772157298
4461.914849589509,6942.919517010361
4461.938053861475,7167.0918814417455
4461.961258254117,7346.447700023735
4461.984462767433,7367.676193327021
4462.007667401424,7245.250449967992
4462.030872156092,7165.211809334427
4462.0540770314365,7169.5939887430995
4462.077282027459,7289.164517142214
4462.100487144158,7607.847872138199
4462.123692381537,8007.168026921805
4462.146897739594,8317.277214809368
4462.170103218332,8831.620315919188
4462.19330881775,9384.368882293305
4462.21651453785,9760.087845207532
4462.239720378631,10102.101178701887
4462.262926340095,10321.788177094277
4462.286132422241,10423.229275088444
4462.309338625071,10320.11741116844
4462.3325449485865,10373.69069476102
4462.355751392785,10357.557806851592
4462.3789579576705,10315.6271663915
4462.402164643242,10073.131144761763
4462.4253714495,9963.869996311454
4462.448578376446,9707.060449596029
4462.471785424079,9532.952841921036
4462.494992592401,9569.63924221751
4462.518199881412,9760.102311767849
4462.541407291114,9905.33547845545
4462.564614821506,10385.399603402513
4462.587822472589,10977.631391726729
4462.611030244365,11544.463349401569
4462.634238136832,12010.41031344705
4462.657446149992,12478.767952572249
4462.680654283847,12751.636351030293
