wave,flux
4450.003811362098,2447.0953715013247
4450.026953690486,2251.017386603568
4450.050096139227,2187.924253214769
4450.073238708321,2424.6480066953227
4450.096381397769,2768.2877341622498
4450.119524207569,3172.825814881535
4450.142667137726,3667.172865576844
4450.165810188237,4215.365267127327
4450.188953359103,4669.631716968543
4450.212096650326,4930.668589026829
4450.2352400619075,5169.527480589921
4450.258383593846,5281.531308813507
4450.281527246142,5416.64047357437
4450.304671018797,5710.960677153259
4450.327814911813,6078.625848981412
4450.350958925188,6300.2848809568195
4450.374103058924,6620.163032837464
4450.3972473130225,6569.157935615995
4450.420391687483,6687.41379300909
4450.443536182305,6913.017741246157
4450.466680797492,7300.441936929888
4450.489825533042,7680.032385703674
4450.512970388957,8116.085836440071
4450.536115365237,8522.742161455502
4450.559260461882,8779.222627868176
4450.582405678895,8958.936721057918
4450.605551016274,9237.102457645435
4450.628696474022,9401.599166746868
4450.651842052138,9583.823657284083
4450.674987750623,9676.49160104725
4450.698133569476,9675.12284292569
4450.721279508702,9691.653900990284
4450.744425568297,9637.199237716184
4450.767571748264,9487.27873274009
4450.790718048604,9487.991640292148
4450.813864469315,9471.514652539126
4450.837011010401,9406.527680424782
4450.86015767186,9340.20842715771
4450.883304453694,9167.027305863485
4450.906451355903,8949.67427920685
4450.929598378489,8778.877959980466
4450.95274552145,8478.30684004574
4450.975892784789,7901.506191159418
4450.999040168505,7387.192253400228
4451.022187672601,6700.73131666063
4451.045335297074,5947.990448984395
4451.068483041929,5284.599427701287
4451.091630907163,4886.099408692867
4451.114778892777,4663.921329891683
4451.137926998774,4711.06094760085
4451.161075225153,4985.908964850759
4451.184223571914,5517.854768846629
4451.207372039059,5964.918523376498
4451.230520626587,6706.863532266537
4451.253669334501,7269.0072664442805
4451.2768181628,7751.8795988688835
4451.299967111485,8278.785203113346
4451.323116180556,8547.85394464004
4451.346265370014,8721.47254672628
4451.369414679861,8919.015737307254
4451.392564110095,8911.842644426937
4451.415713660719,8987.892098693184
4451.438863331732,8681.936668865987
4451.462013123136,8382.43491292066
4451.48516303493,8174.510017205778
4451.508313067117,8011.805822875683
4451.531463219695,7687.373279488541
4451.554613492666,7652.752849204355
4451.577763886031,7765.128654474214
4451.60091439979,7927.514179422789
4451.624065033943,8073.258809016906
4451.647215788492,8257.799514076658
4451.670366663436,8535.734434212041
4451.693517658777,8732.949282735734
4451.716668774516,9041.948736203785
4451.739820010652,9289.176424193505
4451.762971367186,9325.936120760254
4451.78612284412,9503.308198832527
4451.8092744414525,9612.15168310725
4451.832426159187,9645.448953867854
4451.855577997321,9740.627912962955
4451.878729955857,9704.778635954646
4451.901882034796,9830.632363443336
4451.925034234137,9794.72175585792
4451.948186553881,9689.796578102898
4451.97133899403,9588.17508858808
4451.994491554583,9534.585034565642
4452.017644235542,9440.667130181595
4452.040797036907,9182.921858626069
4452.063949958678,8947.862178156145
4452.087103000857,8661.071648195288
4452.1102561634425,8508.89287573723
4452.133409446437,8089.496910409243
4452.156562849841,7835.9868380574235
4452.179716373655,7676.208759336871
4452.202870017878,7742.620199983808
4452.226023782513,7502.224654042691
4452.24917766756,7224.851653685848
4452.272331673018,7108.744274499712
4452.29548579889,7341.658850336372
4452.318640045174,7519.061242164163
4452.341794411874,7766.300548557486
4452.364948898987,8026.135978076538
4452.388103506516,8190.531288396018
4452.4112582344615,8429.495362663667
4452.434413082823,8500.494968798264
4452.457568051602,8341.545423615376
4452.480723140799,8128.178964868158
4452.503878350413,7949.250673622723
4452.527033680448,7776.514450965136
4452.550189130902,7608.14839748818
4452.5733447017765,7653.5630504804985
4452.596500393071,7814.409049714066
4452.619656204789,8040.634432279079
4452.642812136928,8181.833364295888
4452.66596818949,8240.52550431714
4452.689124362475,8351.369581698138
4452.7122806558855,8286.871640295596
4452.735437069719,8062.648832046859
4452.7585936039795,7789.029920767845
4452.781750258665,7645.298632938268
4452.804907033777,7238.037972584418
4452.828063929317,6861.425565454778
4452.851220945285,6663.087919572388
4452.87437808168,6682.558772054957
4452.897535338506,6766.180479802407
4452.92069271576,7204.0819494157895
4452.943850213445,7597.375847351061
4452.967007831562,8026.654861538192
4452.99016557011,8443.87276031142
4453.01332342909,8672.74231007743
4453.036481408502,8951.787932776342
4453.059639508349,8975.785145023712
4453.08279772863,9079.775089764826
4453.105956069345,9170.307889745194
4453.129114530496,9144.851470982432
4453.152273112083,8911.572728681875
4453.175431814107,8815.949523046029
4453.198590636567,8540.955405940935
4453.221749579466,8465.47912778793
4453.244908642802,8283.793030753095
4453.268067826579,8145.042572168055
4453.291227130795,8444.799096056437
4453.314386555451,8444.142456039048
4453.337546100549,8603.113399759324
4453.360705766087,9002.120632212791
4453.3838655520685,9083.343480058202
4453.407025458493,9099.178132733135
4453.430185485361,9222.846940603213
4453.453345632673,9230.644158523046
4453.476505900429,9437.545278017997
4453.4996662886315,9521.360952953377
4453.52282679728,9525.469403389556
4453.545987426375,9572.217578426144
4453.569148175917,9542.965135606308
4453.592309045907,9457.33423716303
4453.615470036346,9510.094399053287
4453.638631147233,9435.893902308131
4453.661792378571,9245.502285292345
4453.684953730359,9275.441183144347
4453.708115202598,9055.042629513844
4453.731276795288,8691.972158878467
4453.754438508431,8496.118955311293
4453.777600342027,8082.492578408639
4453.800762296077,7571.876766666387
4453.82392437058,6989.492210088635
4453.847086565538,6331.168021539458
4453.870248880952,5663.8080554252465
4453.8934113168225,4965.503621367509
4453.916573873149,4545.691781635665
4453.939736549933,4373.723099866084
4453.962899347174,4578.133266365853
4453.986062264875,4878.152877694987
4454.009225303034,5204.847821977225
4454.032388461654,5622.582715224123
4454.055551740734,5888.9458909443865
4454.078715140275,6025.280992267445
4454.101878660277,5950.685296648811
4454.125042300742,5698.630524087065
4454.14820606167,5386.761919675095
4454.171369943061,4957.396586815241
4454.194533944917,4356.127338857879
4454.2176980672375,3989.912190503893
4454.240862310024,3451.370223235635
4454.264026673275,3122.770218210675
4454.287191156994,2781.0648527025946
4454.31035576118,2533.636583939549
4454.333520485834,2536.869012045633
4454.356685330957,2648.1808151122873
4454.379850296548,2956.4622679653603
4454.40301538261,3339.9862121643573
4454.426180589142,3784.322887408605
4454.449345916145,4116.48701880025
4454.4725113636205,4292.085751238234
4454.495676931568,4504.632964959168
4454.5188426199875,4616.341173176841
4454.542008428882,4543.359910052319
4454.565174358249,4754.4732317903645
4454.588340408092,5034.207398042666
4454.611506578411,5460.043624654217
4454.634672869205,5991.648879039725
4454.657839280476,6484.191504657714
4454.681005812225,6650.342312298485
4454.704172464451,6881.807431718381
4454.727339237156,6941.818789652131
4454.750506130341,6668.079523913728
4454.773673144005,6342.175038636456
4454.79684027815,5890.872533023094
4454.820007532776,5669.584307660441
4454.843174907884,5593.693320383437
4454.866342403473,5630.032413201215
4454.889510019546,5902.9257926620285
4454.912677756102,6432.428314686126
4454.935845613144,6891.801295211959
4454.959013590669,7341.233925542066
4454.982181688681,7909.160804838983
4455.005349907178,8329.947443986091
4455.028518246162,8513.318268803414
4455.051686705633,8677.730402033218
4455.074855285593,8794.549425820216
4455.098023986041,8723.257436974796
4455.121192806979,8587.87540426047
4455.144361748406,8417.194347728862
4455.167530810323,8259.632632610277
4455.190699992732,8075.539522954867
4455.213869295633,7806.77645764244
4455.237038719026,7413.511704873705
4455.260208262912,7022.128329750563
4455.283377927292,6683.397070645212
4455.306547712166,6022.004516838289
4455.329717617535,5340.963622864437
4455.352887643399,4756.131541993846
4455.37605778976,4210.957706870698
4455.399228056617,3853.8804234862378
4455.422398443972,3731.1833379637246
4455.445568951825,3820.3851785645747
4455.468739580177,4059.7376271167136
4455.491910329028,4558.47951876802
4455.515081198378,5218.045580500442
4455.538252188229,5825.209488144605
4455.561423298582,6463.337101486878
4455.584594529436,6945.49344439626
4455.607765880793,7470.6806229786835
4455.630937352652,7912.75952826133
4455.654108945016,8152.755787948509
4455.677280657883,8319.11157717784
4455.700452491255,8478.71747666541
4455.723624445134,8525.449270042061
4455.746796519518,8669.458242023558
4455.7699687144095,8194.79828196115
4455.793141029808,7980.60134879163
4455.816313465714,7538.823565745831
4455.83948602213,7002.541825654494
4455.862658699055,6655.658232464007
4455.885831496489,6416.305904668131
4455.909004414434,6152.907081345447
4455.932177452891,6205.4549865155695
4455.955350611858,6393.695283917816
4455.978523891339,6575.554825944078
4456.001697291333,6881.238420620003
4456.024870811841,6857.743160318991
4456.048044452862,6895.546625334691
4456.071218214399,6832.049123337783
4456.094392096451,6439.140070864986
4456.117566099019,6184.7939072437675
4456.140740222105,5765.257871554029
4456.163914465707,5599.888815024868
4456.187088829828,5531.812432399697
4456.210263314468,5675.291719711285
4456.233437919626,6061.3708875737175
4456.256612645306,6573.305590162659
4456.279787491505,7000.730378627838
4456.302962458226,7440.899808376515
4456.326137545469,7939.0564002545125
4456.349312753233,8191.65776787433
4456.372488081522,8519.768441767676
4456.395663530333,8653.693521018546
4456.41883909967,8657.458334945948
4456.442014789531,8703.938711781377
4456.465190599917,8648.437925209359
4456.488366530831,8600.232824856806
4456.5115425822705,8513.856586941834
4456.5347187542375,8294.955176336074
4456.557895046733,8002.696611630607
4456.581071459757,7942.578422011043
4456.604247993311,7972.8148625178965
4456.627424647395,8197.460548096611
4456.650601422009,8368.854767622708
4456.673778317154,8589.729989371413
4456.696955332832,8670.897839409365
4456.720132469041,8750.055333350918
4456.7433097257845,8825.615350661143
4456.766487103061,8713.942057544084
4456.789664600872,8639.48607978474
4456.8128422192185,8420.447401706126
4456.8360199581,8112.372926769508
4456.859197817518,7662.660289039752
4456.882375797473,7152.270425730987
4456.905553897966,6540.686361935415
4456.928732118997,5899.253054120015
4456.951910460566,5342.281060277534
4456.975088922674,4946.615231485214
4456.998267505323,4780.424713704466
4457.021446208513,4804.825609088384
4457.044625032244,4836.881962208953
4457.067803976516,5033.688134190903
4457.090983041332,5424.857023363407
4457.1141622266905,5951.529055426085
4457.1373415325925,6548.6043702109355
4457.160520959039,7090.839780423426
4457.183700506031,7731.03134001682
4457.206880173568,8114.641007607019
4457.230059961651,8356.760968576258
4457.2532398702815,8583.048882601719
4457.27641989946,8687.200940209214
4457.299600049186,8761.850466759632
4457.322780319461,8804.935706611928
4457.345960710286,8859.902248740109
4457.36914122166,8836.747158850065
4457.392321853586,8840.410145905598
4457.415502606062,8813.753112641301
4457.43868347909,8761.041715239966
4457.461864472672,8576.075507594682
4457.485045586805,8373.84850890075
4457.508226821494,8118.763727374921
4457.5314081767365,7574.070699649801
4457.554589652534,7105.678590644324
4457.577771248887,6710.661707734432
4457.600952965797,6227.101134609202
4457.624134803263,5982.510403848069
4457.647316761288,5816.065376994255
4457.67049883987,5762.61711329708
4457.693681039011,5893.8807286249275
4457.716863358712,5869.36052550496
4457.7400457989725,5758.86673124913
4457.763228359793,5679.469987098737
4457.7864110411765,5752.204743548919
4457.809593843121,5930.535299582769
4457.832776765628,6227.630770181764
4457.855959808699,6574.704506787203
4457.879142972333,6982.959690222324
4457.902326256532,7396.740201963389
4457.925509661296,7711.935135603597
4457.948693186626,7863.391839870312
4457.971876832522,7742.054301553324
4457.995060598985,7633.350532536659
4458.018244486016,7287.9554353283875
4458.041428493615,7017.4580447039
4458.0646126217825,7026.46811277053
4458.08779687052,7030.102760577161
4458.110981239827,7237.5283251739575
4458.134165729705,7562.553226041689
4458.157350340155,7889.655220826071
4458.180535071177,8239.46963471059
4458.203719922771,8479.38078997495
4458.226904894938,8708.373054240903
4458.2500899876795,8947.126026651173
4458.273275200995,8998.205998744383
4458.296460534886,9016.140504648301
4458.3196459893525,8857.294156756052
4458.342831564396,8706.24280202413
4458.366017260016,8551.079988079266
4458.389203076214,8527.104973043823
4458.4123890129895,8195.587324081302
4458.435575070344,7670.02776821679
4458.458761248279,7162.845217128807
4458.481947546794,6588.505204220009
4458.505133965889,5823.694776287922
4458.528320505566,5150.239581271443
4458.551507165825,4490.376352696645
4458.574693946666,3895.760356281421
4458.597880848091,3297.4773969723587
4458.6210678701,2868.651758628713
4458.644255012693,2751.910363476221
4458.6674422758715,2703.158831414718
4458.690629659636,2916.290988742209
4458.713817163986,3202.392110241711
4458.737004788924,3664.0390985016224
4458.76019253445,4089.0124919842438
4458.783380400563,4523.216267712283
4458.8065683872655,4851.073536979183
4458.829756494558,5048.54352963174
4458.85294472244,5272.279507462261
4458.876133070914,5324.8920617567255
4458.899321539979,5415.51349703879
4458.922510129635,5849.569784510554
4458.945698839884,6359.389019266919
4458.968887670727,6940.66710195993
4458.992076622164,7451.634672283438
4459.015265694195,7893.33553860702
4459.0384548868215,8258.129352770186
4459.061644200044,8613.673535772303
4459.084833633862,8945.192057614862
4459.108023188278,8999.492449581923
4459.131212863292,9099.423057673564
4459.154402658904,9099.60439452299
4459.177592575114,9054.304715467286
4459.200782611925,8917.173505297933
4459.223972769336,8709.806541651113
4459.247163047347,8309.08612996592
4459.27035344596,8152.880580920436
4459.293543965176,8124.245435847139
4459.316734604993,8102.846697247447
4459.339925365414,8258.696907936732
4459.363116246439,8465.447895627665
4459.386307248069,8601.42350422114
4459.409498370304,8760.530287521673
4459.432689613145,8884.375630754217
4459.455880976592,9090.992597746317
4459.479072460647,9028.13973629264
4459.502264065309,9184.533020948309
4459.52545579058,9120.333231878076
4459.5486476364595,8982.297645298453
4459.571839602949,8841.227929358329
4459.595031690048,8515.713232986473
4459.618223897759,8221.116502746305
4459.641416226081,7733.736768677285
4459.664608675014,7183.986825820989
4459.687801244561,6525.931372203252
4459.710993934721,5840.635279887804
4459.734186745496,5271.719070095112
4459.757379676885,4953.387344613545
4459.780572728889,4804.77050790991
4459.803765901509,4968.58850032272
4459.8269591947455,5126.629961548482
4459.850152608599,5466.188423828527
4459.87334614307,5942.803482050574
4459.89653979816,6401.499029012341
4459.91973357387,6940.560200577453
4459.942927470198,7463.30393179453
4459.966121487147,7946.151555253759
4459.989315624717,8334.285433240902
4460.0125098829085,8690.616260492061
4460.035704261722,9011.602401384282
4460.058898761158,9240.654087643694
4460.082093381218,9342.73713036943
4460.105288121902,9379.507584656258
4460.12848298321,9454.70166079726
4460.151677965145,9477.017703753101
4460.1748730677045,9523.947996928553
4460.198068290891,9509.338067541172
4460.221263634704,9547.232100537849
4460.244459099145,9439.184029610806
4460.267654684215,9254.061094119968
4460.290850389914,9280.024252389601
4460.314046216243,9175.34995731237
4460.337242163202,9180.385812575547
4460.360438230791,9187.013572694814
4460.383634419013,9123.239129469717
4460.406830727867,9151.019085305488
4460.430027157354,9113.024054420668
4460.453223707474,8892.520204280027
4460.476420378228,8678.137876924633
4460.499617169617,8435.843801545028
4460.522814081641,8108.2239559712925
4460.5460111143,7575.715126805572
4460.569208267598,7067.66364144347
4460.592405541532,6416.733917795695
4460.615602936104,5761.079341473197
4460.638800451314,5216.326313730183
4460.661998087163,4853.09901374851
4460.685195843652,4586.536392520965
4460.708393720782,4234.392079528544
4460.731591718552,4083.759087269454
4460.754789836965,3986.3929256327065
4460.777988076019,4126.775679027707
4460.801186435716,4433.903579688605
4460.824384916057,4622.200209478674
4460.847583517042,4797.694447734679
4460.870782238671,4842.500069554147
4460.893981080947,4639.423587721212
4460.917180043868,4346.836181246849
4460.940379127435,4110.420180710784
4460.963578331651,3934.7213749006046
4460.986777656513,3900.3317505095897
4461.009977102025,3855.151581675803
4461.033176668186,3974.5426011001255
4461.056376354995,4044.2332817117313
4461.079576162457,3958.594187393724
4461.102776090568,3749.5522110208726
4461.125976139332,3478.2936182314315
4461.149176308748,3199.234996817811
4461.172376598816,2996.902553763101
4461.195577009538,2980.3031722347455
4461.218777540915,3037.7156702065536
4461.241978192946,3220.859428071285
4461.265178965633,3585.33383671741
4461.2883798589755,4160.11080141936
4461.311580872974,4819.58183053776
4461.3347820076315,5327.036942324122
4461.357983262946,5805.716797640961
4461.381184638919,6138.406389858439
4461.404386135551,6162.883645093981
4461.4275877528435,6087.5780173475305
4461.4507894907965,5773.0442312356945
4461.4739913494095,5339.039916338848
4461.497193328685,4992.6139826570325
4461.520395428623,4611.69842370805
4461.543597649224,4452.692271258835
4461.566799990488,4461.412208085596
4461.590002452416,4895.052652247964
4461.61320503501,5362.273822609124
4461.636407738269,5882.8361854159975
4461.659610562193,6279.39637370648
4461.682813506784,6705.426784270056
4461.706016572044,7095.469867102618
4461.729219757971,7290.603001684709
4461.752423064566,7463.769112638556
4461.775626491831,7701.184143688364
4461.798830039766,7740.451469945234
4461.82203370837,7941.401626550305
4461.845237497647,7757.529119051026
4461.868441407595,7675.64970778534
4461.891645438215,7298.131332929678
4461.914849589509,6765.329893779112
4461.938053861475,6379.31794164535
4461.961258254117,6043.569166802677
4461.984462767433,5976.996844954564
4462.007667401424,5840.9548329771405
4462.030872156092,6181.800794177367
4462.0540770314365,6608.986942012274
4462.077282027459,7134.14907247028
4462.100487144158,7497.222058491092
4462.123692381537,8042.18709336136
4462.146897739594,8267.86439613189
4462.170103218332,8617.044129315807
4462.19330881775,8705.810295743457
4462.21651453785,8704.302266369341
4462.239720378631,8812.632331492418
4462.262926340095,8785.2527044968
4462.286132422241,8891.139749021662
4462.309338625071,8722.09072291809
4462.3325449485865,8753.756580671788
4462.355751392785,8776.140631196226
4462.3789579576705,8490.963904486407
4462.402164643242,8231.280198428363
4462.4253714495,8067.633723443031
4462.448578376446,7586.8368406854515
4462.471785424079,7023.630979385391
4462.494992592401,6595.697158894717
4462.518199881412,6248.858696195441
4462.541407291114,6136.599850799375
4462.564614821506,6295.399642512477
4462.587822472589,6497.885008642536
4462.611030244365,6761.845096567963
4462.634238136832,7106.120413133481
4462.657446149992,7477.166003173183
4462.680654283847,7728.636473054639
4462.703862538396,7913.454738036416
4462.727070913639,8197.742855709588
4462.750279409578,8340.087123315952
4462.773488026214,8386.326699373965
4462.796696763546,8473.085482059907
4462.819905621575,8401.525030023886
4462.843114600304,8196.918835961716
4462.86632369973,7925.998418141634
