wave,flux
4450.003811362098,3750.9255186412456
4450.026953690486,3633.2630350296354
4450.050096139227,3382.8009096022934
4450.073238708321,3130.562542151631
4450.096381397769,2865.9358277610563
4450.119524207569,2580.7288674119973
4450.142667137726,2235.8550811147943
4450.165810188237,1958.5867833548111
4450.188953359103,1798.1567229670593
4450.212096650326,1560.4066938845476
4450.2352400619075,1310.3371578639435
4450.258383593846,1174.5328916048259
4450.281527246142,1079.3472452803896
4450.304671018797,981.0111805871175
4450.327814911813,915.5509195652578
4450.350958925188,845.3870983205416
4450.374103058924,823.3992221607074
4450.3972473130225,889.5955038000992
4450.420391687483,983.6306138092226
4450.443536182305,1210.432325323089
4450.466680797492,1431.8646503546502
4450.489825533042,1601.4355461000168
4450.512970388957,1805.6120599142412
4450.536115365237,2005.039135948585
4450.559260461882,2114.787994122891
4450.582405678895,2190.5309977390775
4450.605551016274,2165.1574625680705
4450.628696474022,2193.060463211805
4450.651842052138,2240.7680874531193
4450.674987750623,2299.052036714733
4450.698133569476,2391.103508046848
4450.721279508702,2471.6921778066753
4450.744425568297,2482.696182869783
4450.767571748264,2670.4205770077547
4450.790718048604,2850.142197352039
4450.813864469315,3018.503000754431
4450.837011010401,3256.3610519292524
4450.86015767186,3522.8985554160035
4450.883304453694,3807.8525433230056
4450.906451355903,4075.859006156247
4450.929598378489,4273.538641894165
4450.95274552145,4372.735326154319
4450.975892784789,4448.317762640388
4450.999040168505,4575.511144124505
4451.022187672601,4600.427049154468
4451.045335297074,4596.973057214344
4451.068483041929,4643.814581668309
4451.091630907163,4523.86715697116
4451.114778892777,4445.6716280741
4451.137926998774,4403.624010038219
4451.161075225153,4378.895380846638
4451.184223571914,4201.3454130834025
4451.207372039059,4092.4439830209603
4451.230520626587,3972.5863353337995
4451.253669334501,3728.2915440457145
4451.2768181628,3463.88322210582
4451.299967111485,3263.8869773303263
4451.323116180556,3099.015926705136
4451.346265370014,2768.9638777999185
4451.369414679861,2451.3871096720422
4451.392564110095,2186.991956503716
4451.415713660719,1970.5621794857198
4451.438863331732,1744.2599691525663
4451.462013123136,1677.7798243705254
4451.48516303493,1770.0729097820208
4451.508313067117,1937.9783335495422
4451.531463219695,2265.9126931774886
4451.554613492666,2528.4567907119203
4451.577763886031,2901.109486803193
4451.60091439979,3380.998005256679
4451.624065033943,3588.103322876632
4451.647215788492,3778.8930095908827
4451.670366663436,3904.386151639095
4451.693517658777,3974.145662046943
4451.716668774516,3905.237992938564
4451.739820010652,3818.5944999719864
4451.762971367186,3661.3335316247503
4451.78612284412,3498.46964409727
4451.8092744414525,3309.5444873514516
4451.832426159187,3044.5483168695127
4451.855577997321,2872.4613249432855
4451.878729955857,2758.2379016546456
4451.901882034796,2815.755798628921
4451.925034234137,2971.3302933370214
4451.948186553881,3133.8924591748873
4451.97133899403,3342.511819255129
4451.994491554583,3697.2754879361673
4452.017644235542,3914.9434656809144
4452.040797036907,4040.3030163432027
4452.063949958678,4273.768799980271
4452.087103000857,4394.417000515229
4452.1102561634425,4540.754921830591
4452.133409446437,4563.658332819814
4452.156562849841,4547.584402463858
4452.179716373655,4629.6379939040735
4452.202870017878,4581.853268111576
4452.226023782513,4509.794319724109
4452.24917766756,4544.508513619882
4452.272331673018,4472.588763980032
4452.29548579889,4431.63652575595
4452.318640045174,4249.712972930819
4452.341794411874,4211.205190621111
4452.364948898987,4035.2776010143753
4452.388103506516,3806.1203739352986
4452.4112582344615,3641.637618921709
4452.434413082823,3469.3341893557154
4452.457568051602,3308.2453697500687
4452.480723140799,2987.1956796429117
4452.503878350413,2841.372571197818
4452.527033680448,2828.8818860728893
4452.550189130902,2742.4737966952493
4452.5733447017765,2678.8220208668977
4452.596500393071,2642.4179216458356
4452.619656204789,2734.6691349340913
4452.642812136928,2790.0575086080235
4452.66596818949,2934.8084743795102
4452.689124362475,3063.227992647392
4452.7122806558855,3234.319248234068
4452.735437069719,3388.7168617636266
4452.7585936039795,3371.5881981730563
4452.781750258665,3404.482881429831
4452.804907033777,3353.595343958509
4452.828063929317,3127.6908022815087
4452.851220945285,2997.558601405601
4452.87437808168,2936.0055906733774
4452.897535338506,2876.666263954992
4452.92069271576,2996.268072130684
4452.943850213445,3088.302613222115
4452.967007831562,3184.7515818057686
4452.99016557011,3251.70992790095
4453.01332342909,3281.422718172357
4453.036481408502,3346.6981554834706
4453.059639508349,3304.7140262131816
4453.08279772863,3119.300640048325
4453.105956069345,2968.8460568098726
4453.129114530496,2841.03745975267
4453.152273112083,2702.415749912655
4453.175431814107,2463.500493289619
4453.198590636567,2465.57188476132
4453.221749579466,2595.97252025586
4453.244908642802,2651.06606121132
4453.268067826579,3056.123860112982
4453.291227130795,3307.7066770118004
4453.314386555451,3586.6388537241505
4453.337546100549,3773.248898765269
4453.360705766087,4027.760067313577
4453.3838655520685,4004.3559897994364
4453.407025458493,3982.428036212408
4453.430185485361,4068.9484694101425
4453.453345632673,3996.686569068468
4453.476505900429,3772.197847575642
4453.4996662886315,3776.2259900010517
4453.52282679728,3545.6057829038105
4453.545987426375,3326.1294647891796
4453.569148175917,3266.233050428426
4453.592309045907,3168.8678770773686
4453.615470036346,3270.529166814483
4453.638631147233,3426.892447946326
4453.661792378571,3570.574172297931
4453.684953730359,3754.6234943967356
4453.708115202598,3971.3996616025547
4453.731276795288,4087.0077502447716
4453.754438508431,4171.655490731208
4453.777600342027,4322.684946005385
4453.800762296077,4454.129462542654
4453.82392437058,4464.188771773942
4453.847086565538,4477.922386657924
4453.870248880952,4438.048193476068
4453.8934113168225,4407.361602043886
4453.916573873149,4480.162509720188
4453.939736549933,4401.77770490294
4453.962899347174,4226.940251918307
4453.986062264875,4150.876297016945
4454.009225303034,4063.215099123672
4454.032388461654,3920.5240192566857
4454.055551740734,3788.1343822019608
4454.078715140275,3465.807681601856
4454.101878660277,3159.3422459697026
4454.125042300742,2993.866374740547
4454.14820606167,2712.6561959689543
4454.171369943061,2373.7091322478377
4454.194533944917,2050.910579430158
4454.2176980672375,1760.9916152366663
4454.240862310024,1593.8920811244245
4454.264026673275,1433.7006329590952
4454.287191156994,1461.4918120902048
4454.31035576118,1518.7348048114245
4454.333520485834,1666.1413520232568
4454.356685330957,1850.579848851612
4454.379850296548,2007.7105567004853
4454.40301538261,2160.424314036053
4454.426180589142,2191.9911147543844
4454.449345916145,2188.392294622489
4454.4725113636205,1992.977459230345
4454.495676931568,1861.528358922061
4454.5188426199875,1623.0444708137577
4454.542008428882,1399.88886269618
4454.565174358249,1178.3046568210802
4454.588340408092,1059.3897696982624
4454.611506578411,879.9542381973562
4454.634672869205,853.2008823688981
4454.657839280476,811.4306302667219
4454.681005812225,891.2682079880864
4454.704172464451,969.42783199164
4454.727339237156,1078.4348951661912
4454.750506130341,1233.7005431358625
4454.773673144005,1399.0302887644525
4454.79684027815,1605.7208733514815
4454.820007532776,1611.842566325092
4454.843174907884,1717.1142635320168
4454.866342403473,1763.7543334853094
4454.889510019546,1813.0284729483592
4454.912677756102,1799.7520731507254
4454.935845613144,1953.468483820858
4454.959013590669,2194.1132706653943
4454.982181688681,2410.9934177760642
4455.005349907178,2525.6030390421465
4455.028518246162,2693.6212309772636
4455.051686705633,2826.1882568307938
4455.074855285593,2697.098684089433
4455.098023986041,2592.481251813877
4455.121192806979,2444.640059071516
4455.144361748406,2275.2363606861786
4455.167530810323,2177.779066231394
4455.190699992732,2129.1199126555907
4455.213869295633,2169.8677534028525
4455.237038719026,2391.83563749354
4455.260208262912,2678.1606717098384
4455.283377927292,3015.964538800296
4455.306547712166,3313.6002499852707
4455.329717617535,3593.894069534095
4455.352887643399,3787.17209816367
4455.37605778976,3872.185794589082
4455.399228056617,3910.785187574087
4455.422398443972,3864.01880777783
4455.445568951825,3814.060643710271
4455.468739580177,3655.5007991339053
4455.491910329028,3474.809138996939
4455.515081198378,3288.2335933857344
4455.538252188229,3094.1630163651325
4455.561423298582,2780.9456889008384
4455.584594529436,2529.378928681026
4455.607765880793,2388.1994711634497
4455.630937352652,2205.4142162200064
4455.654108945016,1982.7975101499626
4455.677280657883,1714.3800622009626
4455.700452491255,1494.3285994174616
4455.723624445134,1412.8070506897948
4455.746796519518,1246.9790727691184
4455.7699687144095,1204.8319406597127
4455.793141029808,1351.3991355474705
4455.816313465714,1590.7729387175225
4455.83948602213,1893.8765738072666
4455.862658699055,2198.1550692287456
4455.885831496489,2527.493412676405
4455.909004414434,2888.853414054839
4455.932177452891,3166.0548108392077
4455.955350611858,3430.617617354704
4455.978523891339,3619.1707700008824
4456.001697291333,3696.562844513251
4456.024870811841,3691.333411617151
4456.048044452862,3771.0966774761755
4456.071218214399,3517.141030721834
4456.094392096451,3372.439922722903
4456.117566099019,3135.3000109428745
4456.140740222105,2917.4434874135077
4456.163914465707,2612.883401422691
4456.187088829828,2427.6743171275207
4456.210263314468,2302.665626033987
4456.233437919626,2113.865872546445
4456.256612645306,2060.5131005899743
4456.279787491505,2132.4452806935615
4456.302962458226,2224.962221812457
4456.326137545469,2340.1856854864254
4456.349312753233,2498.257566708609
4456.372488081522,2661.499415017714
4456.395663530333,2543.0429169731424
4456.41883909967,2641.896393678353
4456.442014789531,2408.760290525738
4456.465190599917,2384.4730144066975
4456.488366530831,2167.0428179921246
4456.5115425822705,2207.0176893705525
4456.5347187542375,2204.771084322092
4456.557895046733,2462.9199010385983
4456.581071459757,2690.00971452296
4456.604247993311,3041.6276418903626
4456.627424647395,3406.265836749124
4456.650601422009,3691.4574802150787
4456.673778317154,3849.7663999296255
4456.696955332832,3912.5746348995194
4456.720132469041,3977.254834849083
4456.7433097257845,3939.112617517292
4456.766487103061,3934.5895414308243
4456.789664600872,3774.099445041324
4456.8128422192185,3667.6765490877906
4456.8360199581,3510.187541803492
4456.859197817518,3454.927079871589
4456.882375797473,3383.380071546532
4456.905553897966,3200.2637007385174
4456.928732118997,3339.6269430413035
4456.951910460566,3273.5336267621205
4456.975088922674,3292.0611683078646
4456.998267505323,3512.352453896531
4457.021446208513,3703.47194742757
4457.044625032244,3763.526744601111
4457.067803976516,3732.5127418011507
4457.090983041332,3705.3951982925487
4457.1141622266905,3706.3626371884607
4457.1373415325925,3528.176523784091
4457.160520959039,3344.1931741075873
4457.183700506031,3188.3332049431524
4457.206880173568,2864.216351242087
4457.230059961651,2554.784793182161
4457.2532398702815,2284.676892944192
4457.27641989946,2007.9754214566387
4457.299600049186,1818.5212266691394
4457.322780319461,1645.696064767072
4457.345960710286,1551.136640788081
4457.36914122166,1617.9293632054855
4457.392321853586,1772.5467349251203
4457.415502606062,1873.4196734687134
4457.43868347909,2129.7844366350114
4457.461864472672,2489.444296737775
4457.485045586805,2807.8899297591124
4457.508226821494,3173.625670110106
4457.5314081767365,3464.788806576011
4457.554589652534,3700.0718950466935
4457.577771248887,3895.054529104801
4457.600952965797,3985.614154656409
4457.624134803263,4028.8370271616245
4457.647316761288,3897.5307549866525
4457.67049883987,3844.1412825378443
4457.693681039011,3821.836189570214
4457.716863358712,3756.7102470246205
4457.7400457989725,3754.1889969776885
4457.763228359793,3642.5258200868907
4457.7864110411765,3464.056678470277
4457.809593843121,3320.8947424600156
4457.832776765628,3134.194582842533
4457.855959808699,2953.3233046749588
4457.879142972333,2733.8349709845775
4457.902326256532,2553.20019746186
4457.925509661296,2330.2539153705075
4457.948693186626,2086.8445967190423
4457.971876832522,1984.6469288834376
4457.995060598985,1894.161579341202
4458.018244486016,1913.160030300555
4458.041428493615,2036.282591334192
4458.0646126217825,2090.0200318634697
4458.08779687052,2131.060922448213
4458.110981239827,2136.8092943719535
4458.134165729705,2133.2066716945765
4458.157350340155,2281.637923588715
4458.180535071177,2467.6932934673423
4458.203719922771,2656.151945910457
4458.226904894938,2915.272698288712
4458.2500899876795,3117.897116724668
4458.273275200995,3183.668964531772
4458.296460534886,3153.700505609845
4458.3196459893525,3080.4760772819777
4458.342831564396,2978.419476943339
4458.366017260016,2837.613145754466
4458.389203076214,2726.5669823342164
4458.4123890129895,2687.024305639212
4458.435575070344,2750.0388012136414
4458.458761248279,2963.7424904819654
4458.481947546794,3163.467559266856
4458.505133965889,3422.1677342082885
4458.528320505566,3730.4075114173247
4458.551507165825,3910.595933477322
4458.574693946666,4027.108182014615
4458.597880848091,4083.9960840229273
4458.6210678701,4138.030725515573
4458.644255012693,4061.45027129267
4458.6674422758715,3905.322458426378
4458.690629659636,3728.6238130035886
4458.713817163986,3536.4604824632374
4458.737004788924,3399.113451897547
4458.76019253445,3144.5024925574494
4458.783380400563,2833.7508059018555
4458.8065683872655,2567.631326308508
4458.829756494558,2252.8150290245835
4458.85294472244,1904.177682363609
4458.876133070914,1608.8824663790097
4458.899321539979,1319.0172603804688
4458.922510129635,1095.8268228016814
4458.945698839884,940.2384772858034
4458.968887670727,856.4142501459706
4458.992076622164,844.5735762902693
4459.015265694195,883.6189743561386
4459.0384548868215,975.9481463035717
4459.061644200044,1104.3514437843307
4459.084833633862,1255.551146678588
4459.108023188278,1460.6736384594092
4459.131212863292,1600.030495586211
4459.154402658904,1752.8165905199644
4459.177592575114,1972.6926358483365
4459.200782611925,2095.2469529567265
4459.223972769336,2114.4361647631436
4459.247163047347,2237.8735823966326
4459.27035344596,2476.1936651962187
4459.293543965176,2753.499946583806
4459.316734604993,3100.381640222937
4459.339925365414,3436.9323685698564
4459.363116246439,3635.581731575006
4459.386307248069,3887.594821524377
4459.409498370304,4047.344635863417
4459.432689613145,4077.044444564207
4459.455880976592,4039.809976697638
4459.479072460647,3933.7366629874814
4459.502264065309,3816.4212380438025
4459.52545579058,3616.23322959161
4459.5486476364595,3456.32016402305
4459.571839602949,3321.8088150048607
4459.595031690048,3145.230202181432
4459.618223897759,3017.572010009805
4459.641416226081,2995.8207676791435
4459.664608675014,3095.957442832933
4459.687801244561,3251.088675482683
4459.710993934721,3338.809826833128
4459.734186745496,3626.429502912074
4459.757379676885,3807.9786756995613
4459.780572728889,3967.229365891313
4459.803765901509,4064.297943107267
4459.8269591947455,4009.075523366984
4459.850152608599,3985.2115186923775
4459.87334614307,3880.630927545645
4459.89653979816,3833.1982532420016
4459.91973357387,3629.4705165268515
4459.942927470198,3333.983996228204
4459.966121487147,3180.4272267046103
4459.989315624717,2940.9406206428703
4460.0125098829085,2569.7478605081205
4460.035704261722,2259.490835928668
4460.058898761158,1975.9532970156943
4460.082093381218,1768.963510660158
4460.105288121902,1586.896860016223
4460.12848298321,1546.7850268236164
4460.151677965145,1604.485525374596
4460.1748730677045,1756.966762319497
4460.198068290891,1984.232520588636
4460.221263634704,2278.4350198331945
4460.244459099145,2575.451832094753
4460.267654684215,2914.7135876445664
4460.290850389914,3276.8949176951996
4460.314046216243,3481.020695429553
4460.337242163202,3833.8370658137483
4460.360438230791,4054.5976113378733
4460.383634419013,4170.3704478529835
4460.406830727867,4326.399760635948
4460.430027157354,4357.733402719888
4460.453223707474,4495.114443258382
4460.476420378228,4463.363516279058
4460.499617169617,4418.60339913216
4460.522814081641,4360.765908799767
4460.5460111143,4321.538117018475
4460.569208267598,4250.127088843232
4460.592405541532,4195.340020933433
4460.615602936104,4173.812500205053
4460.638800451314,4100.02739714324
4460.661998087163,4100.862400006493
4460.685195843652,4044.827899058738
4460.708393720782,3949.79567108862
4460.731591718552,3932.1228062194377
4460.754789836965,3981.5696200745188
4460.777988076019,3938.0122494323678
4460.801186435716,3766.1623535771046
4460.824384916057,3540.3547911717947
4460.847583517042,3350.131236427978
4460.870782238671,3109.085498825403
4460.893981080947,2774.9788936121445
4460.917180043868,2436.5331936609455
4460.940379127435,2168.809641769968
4460.963578331651,1918.7593746641942
4460.986777656513,1646.0480902749846
4461.009977102025,1381.3824757105851
4461.033176668186,1396.2327919585223
4461.056376354995,1402.3606989878983
4461.079576162457,1359.4575659073867
4461.102776090568,1418.918465092498
4461.125976139332,1538.4049693903194
4461.149176308748,1642.983103822936
4461.172376598816,1701.290897231901
4461.195577009538,1792.2697761860206
4461.218777540915,1806.3292761744879
4461.241978192946,1772.2357298349636
4461.265178965633,1686.0332203019748
4461.2883798589755,1605.7375309232411
4461.311580872974,1474.489849031674
4461.3347820076315,1494.9815849861573
4461.357983262946,1448.9398915523775
4461.381184638919,1381.7129120728043
4461.404386135551,1321.7028986595114
4461.4275877528435,1359.9053575847504
4461.4507894907965,1242.5796103606826
4461.4739913494095,1129.985549529662
4461.497193328685,993.3478146370833
4461.520395428623,962.0318570019308
4461.543597649224,911.1911088705107
4461.566799990488,910.3998851528628
4461.590002452416,980.3090976859156
4461.61320503501,1254.6879412697126
4461.636407738269,1525.6486592213253
4461.659610562193,1697.0571466460096
4461.682813506784,1939.3541782385037
4461.706016572044,2166.0258350715712
4461.729219757971,2209.6964024463673
4461.752423064566,2298.5520762069445
4461.775626491831,2150.286476700666
4461.798830039766,2065.3453021653017
4461.82203370837,1892.766538226377
4461.845237497647,1720.944232766504
4461.868441407595,1581.9867897250851
4461.891645438215,1563.1836907588747
4461.914849589509,1647.2448852714624
4461.938053861475,1801.4578924440038
4461.961258254117,2021.8661655988312
4461.984462767433,2277.51485673831
4462.007667401424,2543.6757982599647
4462.030872156092,2685.2216170719166
4462.0540770314365,2901.774752072707
4462.077282027459,2975.553185245638
4462.100487144158,3027.402915547152
4462.123692381537,3015.3412268681795
4462.146897739594,2953.1593091349905
4462.170103218332,2962.9159262035087
4462.19330881775,2837.996611741377
4462.21651453785,2673.7369277486923
4462.239720378631,2508.723873394902
4462.262926340095,2355.526763077359
4462.286132422241,2247.5335722084587
4462.309338625071,2052.1237766112736
4462.3325449485865,2064.0100500410194
4462.355751392785,2222.645164117289
4462.3789579576705,2409.598392648236
4462.402164643242,2701.1602408596837
4462.4253714495,3019.477354597726
4462.448578376446,3338.423163846655
4462.471785424079,3640.963337151025
4462.494992592401,3818.990359329942
4462.518199881412,3907.0461842955133
4462.541407291114,3909.267092189151
4462.564614821506,3815.7267386929016
4462.587822472589,3744.7860483720233
4462.611030244365,3717.4789594679132
4462.634238136832,3673.1009904234793
4462.657446149992,3553.848115827201
4462.680654283847,3574.9992789947723
