wave,flux
4450.003811362098,7748.261464050832
4450.026953690486,7739.194470096805
4450.050096139227,7850.7102034744175
4450.073238708321,7869.292756750638
4450.096381397769,7805.9560232390095
4450.119524207569,7551.906918434763
4450.142667137726,7193.785147286483
4450.165810188237,6964.084416471753
4450.188953359103,6687.658272407768
4450.212096650326,6265.60504849424
4450.2352400619075,5890.139811767062
4450.258383593846,5473.911625704849
4450.281527246142,4934.64586556369
4450.304671018797,4373.54993853156
4450.327814911813,3951.466504788822
4450.350958925188,3576.7406734391734
4450.374103058924,3161.503911968077
4450.3972473130225,2843.647564433496
4450.420391687483,2517.109646338333
4450.443536182305,2330.485341216538
4450.466680797492,2234.8861944385726
4450.489825533042,2093.08932310328
4450.512970388957,2112.439213381689
4450.536115365237,2184.247801410128
4450.559260461882,2250.5796417842816
4450.582405678895,2350.6477529544236
4450.605551016274,2644.920001325556
4450.628696474022,2929.4328291014276
4450.651842052138,3280.8649040172886
4450.674987750623,3547.9574289042603
4450.698133569476,3963.4468104401067
4450.721279508702,4215.480168775402
4450.744425568297,4445.059552546429
4450.767571748264,4588.9395418868335
4450.790718048604,4723.718560562166
4450.813864469315,4840.912996723468
4450.837011010401,5027.495025811474
4450.86015767186,5218.535922551997
4450.883304453694,5462.864005026917
4450.906451355903,5778.901647490568
4450.929598378489,6086.039005914599
4450.95274552145,6386.574034902252
4450.975892784789,6660.052427922671
4450.999040168505,7082.747768579811
4451.022187672601,7547.9697943430565
4451.045335297074,7925.698585881512
4451.068483041929,8356.76639232332
4451.091630907163,8703.254819090267
4451.114778892777,9063.554229684281
4451.137926998774,9250.027712721327
4451.161075225153,9228.274682314204
4451.184223571914,9331.55104963869
4451.207372039059,9243.2687531189
4451.230520626587,9261.984366933822
4451.253669334501,9092.916972488845
4451.2768181628,8844.417216990416
4451.299967111485,8649.751395016743
4451.323116180556,8359.641666920033
4451.346265370014,7995.28894275692
4451.369414679861,7771.389544037744
4451.392564110095,7429.120199171374
4451.415713660719,7014.975523449926
4451.438863331732,6471.0648786877755
4451.462013123136,6205.332749300202
4451.48516303493,5858.755927542275
4451.508313067117,5479.6545571275765
4451.531463219695,5041.397221833705
4451.554613492666,4741.405202217813
4451.577763886031,4479.13449817539
4451.60091439979,4424.139047543068
4451.624065033943,4275.018447189965
4451.647215788492,4361.102373054959
4451.670366663436,4582.245197035142
4451.693517658777,4996.450901928929
4451.716668774516,5427.309788327558
4451.739820010652,5935.387633654018
4451.762971367186,6435.874046855387
4451.78612284412,6846.881408709641
4451.8092744414525,7180.72922520362
4451.832426159187,7333.00034139057
4451.855577997321,7508.4957654858445
4451.878729955857,7521.025000127021
4451.901882034796,7417.480080441277
4451.925034234137,7440.883304017094
4451.948186553881,7306.769222818618
4451.97133899403,6999.145940790829
4451.994491554583,6829.483980337438
4452.017644235542,6727.800918720906
4452.040797036907,6621.932229135359
4452.063949958678,6677.220299458337
4452.087103000857,6835.132541846006
4452.1102561634425,7031.506655775207
4452.133409446437,7302.947438329238
4452.156562849841,7756.789909047294
4452.179716373655,8060.652217329289
4452.202870017878,8298.818928335524
4452.226023782513,8648.903265195662
4452.24917766756,8930.854614419837
4452.272331673018,9017.690632008447
4452.29548579889,9069.451035520347
4452.318640045174,9255.5434957078
4452.341794411874,9300.84810811367
4452.364948898987,9136.004309484792
4452.388103506516,9111.43225699337
4452.4112582344615,8952.310468902915
4452.434413082823,8803.507810322531
4452.457568051602,8482.256700665648
4452.480723140799,8309.206508870357
4452.503878350413,8271.260715106328
4452.527033680448,8029.770017470256
4452.550189130902,7657.253777310417
4452.5733447017765,7400.12740804481
4452.596500393071,7022.3872371738225
4452.619656204789,6766.924069722955
4452.642812136928,6448.517644439463
4452.66596818949,6372.865345588298
4452.689124362475,6095.3359370984335
4452.7122806558855,6042.340524119218
4452.735437069719,6011.911140541857
4452.7585936039795,5882.804250131573
4452.781750258665,5901.01676891742
4452.804907033777,5938.915469229881
4452.828063929317,6000.2359830206315
4452.851220945285,6222.19436123849
4452.87437808168,6399.6708467000435
4452.897535338506,6524.695449215815
4452.92069271576,6679.994659279349
4452.943850213445,6710.009112665248
4452.967007831562,6732.21601952182
4452.99016557011,6712.266468820395
4453.01332342909,6535.007768925102
4453.036481408502,6387.766768067075
4453.059639508349,6249.796955417
4453.08279772863,6147.2790090761855
4453.105956069345,6141.277319934907
4453.129114530496,6234.210497421407
4453.152273112083,6268.747462955967
4453.175431814107,6259.9452433614815
4453.198590636567,6351.566168301585
4453.221749579466,6370.71124872454
4453.244908642802,6286.502113717671
4453.268067826579,6224.531953490197
4453.291227130795,6147.403691074307
4453.314386555451,5939.89307004665
4453.337546100549,5787.6996469410815
4453.360705766087,5745.891078967175
4453.3838655520685,5814.836039449803
4453.407025458493,6054.063281187448
4453.430185485361,6523.875616217289
4453.453345632673,6664.574553905539
4453.476505900429,7014.334382856283
4453.4996662886315,7523.403402139166
4453.52282679728,7619.385382309822
4453.545987426375,7862.292296270496
4453.569148175917,7878.947608864237
4453.592309045907,8021.630486356365
4453.615470036346,7959.346709784563
4453.638631147233,7864.61042353668
4453.661792378571,7771.712748581693
4453.684953730359,7589.091362245168
4453.708115202598,7424.547743001773
4453.731276795288,7305.430305516376
4453.754438508431,7390.013058326189
4453.777600342027,7355.996903124145
4453.800762296077,7476.781520704574
4453.82392437058,7711.853940402573
4453.847086565538,7896.183351993259
4453.870248880952,8191.645720289522
4453.8934113168225,8423.468582303105
4453.916573873149,8685.203428538829
4453.939736549933,8833.428157122451
4453.962899347174,8913.356423207659
4453.986062264875,9130.36968554701
4454.009225303034,9065.991221724473
4454.032388461654,8898.439544053435
4454.055551740734,8907.239768882702
4454.078715140275,8685.606512584287
4454.101878660277,8423.109810572601
4454.125042300742,8256.934932403994
4454.14820606167,7940.847442669837
4454.171369943061,7563.511426556731
4454.194533944917,7265.732408843001
4454.2176980672375,6892.9437660666
4454.240862310024,6369.582751253789
4454.264026673275,5972.976290607289
4454.287191156994,5581.529652743676
4454.31035576118,5247.651199954437
4454.333520485834,4831.964255512088
4454.356685330957,4446.247760529756
4454.379850296548,4046.663824018249
4454.40301538261,3687.2199971595533
4454.426180589142,3413.7798635524655
4454.449345916145,3245.3624807854294
4454.4725113636205,3244.593019937537
4454.495676931568,3194.901423495835
4454.5188426199875,3412.1771100255605
4454.542008428882,3571.5373748370403
4454.565174358249,3686.3855445506097
4454.588340408092,3731.005418005988
4454.611506578411,3720.1904424944555
4454.634672869205,3677.520541821842
4454.657839280476,3520.3985081107
4454.681005812225,3195.261645348306
4454.704172464451,2968.6839616525353
4454.727339237156,2643.1123041163564
4454.750506130341,2457.3852171547487
4454.773673144005,2236.336084438118
4454.79684027815,2138.3871344706845
4454.820007532776,2089.854313065746
4454.843174907884,2048.931994605167
4454.866342403473,2156.06713964302
4454.889510019546,2283.3118242137484
4454.912677756102,2534.9456566374465
4454.935845613144,2796.668631446606
4454.959013590669,3128.6662434573254
4454.982181688681,3338.2360916518637
4455.005349907178,3638.6193294366763
4455.028518246162,3889.3679557227283
4455.051686705633,3903.158388632541
4455.074855285593,4095.1241327381026
4455.098023986041,4233.241147178007
4455.121192806979,4344.422136633441
4455.144361748406,4573.050670870391
4455.167530810323,4823.585741665242
4455.190699992732,4970.454072002475
4455.213869295633,5098.052231576621
4455.237038719026,5194.989534922655
4455.260208262912,5289.815811258449
4455.283377927292,5215.506390213
4455.306547712166,5208.86705833717
4455.329717617535,5078.737739830538
4455.352887643399,4992.201521093352
4455.37605778976,5216.926705007116
4455.399228056617,5393.301368997694
4455.422398443972,5733.27712578495
4455.445568951825,6154.264415450605
4455.468739580177,6419.994328477015
4455.491910329028,6772.629171553306
4455.515081198378,7112.17871659876
4455.538252188229,7200.873063977013
4455.561423298582,7168.561253705665
4455.584594529436,7286.074192452375
4455.607765880793,7136.664560075208
4455.630937352652,6792.523929315592
4455.654108945016,6522.261051078946
4455.677280657883,6158.722407519438
4455.700452491255,5723.297171860423
4455.723624445134,5333.35369795712
4455.746796519518,5004.756586051537
4455.7699687144095,4628.885194552872
4455.793141029808,4368.704873153035
4455.816313465714,4039.392649337132
4455.83948602213,3691.593002557879
4455.862658699055,3489.9667839719705
4455.885831496489,3436.5536805622232
4455.909004414434,3353.4857881706425
4455.932177452891,3372.595990332794
4455.955350611858,3581.97366435973
4455.978523891339,3847.3306925202537
4456.001697291333,4203.470382460039
4456.024870811841,4760.937647002419
4456.048044452862,5256.07214941618
4456.071218214399,5674.69798188052
4456.094392096451,6109.352431355623
4456.117566099019,6487.6588288718685
4456.140740222105,6812.447779102022
4456.163914465707,6907.132656875132
4456.187088829828,6874.547702030884
4456.210263314468,6901.976079475033
4456.233437919626,6708.782246417159
4456.256612645306,6566.606040536846
4456.279787491505,6332.25427676064
4456.302962458226,5881.10086505046
4456.326137545469,5675.230423465675
4456.349312753233,5260.683056648407
4456.372488081522,5001.138366538771
4456.395663530333,4764.459084716061
4456.41883909967,4607.179683126862
4456.442014789531,4539.883779708493
4456.465190599917,4577.496646893421
4456.488366530831,4691.234919568024
4456.5115425822705,4804.999162728862
4456.5347187542375,5034.498755347477
4456.557895046733,5218.0635643487185
4456.581071459757,5233.274933860196
4456.604247993311,5244.322969937705
4456.627424647395,5253.90377739253
4456.650601422009,5302.510220872456
4456.673778317154,5291.887106358076
4456.696955332832,5385.623119651116
4456.720132469041,5497.861556611814
4456.7433097257845,5910.959607104165
4456.766487103061,6362.227396778309
4456.789664600872,6632.46065388516
4456.8128422192185,7041.636353188499
4456.8360199581,7494.083564306342
4456.859197817518,7916.070440363945
4456.882375797473,7822.5402898591665
4456.905553897966,7681.289100612253
4456.928732118997,7833.497915160683
4456.951910460566,7646.357503099545
4456.975088922674,7630.965953610311
4456.998267505323,7452.673065887274
4457.021446208513,7348.885973492782
4457.044625032244,7350.064701398984
4457.067803976516,7209.124201172706
4457.090983041332,7099.8282686727225
4457.1141622266905,7010.60734583085
4457.1373415325925,7000.817563686223
4457.160520959039,7048.103471849381
4457.183700506031,7160.509661477878
4457.206880173568,7249.004310363636
4457.230059961651,7106.383365360005
4457.2532398702815,6983.588687294999
4457.27641989946,6795.962009272336
4457.299600049186,6468.761728228672
4457.322780319461,6220.669007674292
4457.345960710286,5909.286396199594
4457.36914122166,5591.024135607252
4457.392321853586,5283.840784031325
4457.415502606062,4901.813801175535
4457.43868347909,4522.790382278587
4457.461864472672,4206.459974718878
4457.485045586805,4115.795282211976
4457.508226821494,4021.3051689447534
4457.5314081767365,4064.009209813495
4457.554589652534,4403.738176028276
4457.577771248887,4638.589271601934
4457.600952965797,4989.827277817967
4457.624134803263,5417.212400139174
4457.647316761288,5959.258986926563
4457.67049883987,6410.936550103505
4457.693681039011,6846.980827537778
4457.716863358712,7113.779068098767
4457.7400457989725,7396.892096275015
4457.763228359793,7656.505262787121
4457.7864110411765,7682.276472345034
4457.809593843121,7587.321680098589
4457.832776765628,7488.953891800753
4457.855959808699,7529.029065667896
4457.879142972333,7369.913263215802
4457.902326256532,7162.654841824354
4457.925509661296,6930.0366391321995
4457.948693186626,6816.5166261584955
4457.971876832522,6527.825571182986
4457.995060598985,6148.308807457712
4458.018244486016,5811.055428715659
4458.041428493615,5464.726478977304
4458.0646126217825,5177.4914209154185
4458.08779687052,4873.80961046728
4458.110981239827,4614.440439100173
4458.134165729705,4356.26148810788
4458.157350340155,4215.412639393833
4458.180535071177,4255.5951623343135
4458.203719922771,4326.366903066864
4458.226904894938,4413.282785335073
4458.2500899876795,4557.444939714001
4458.273275200995,4656.223514333908
4458.296460534886,4784.2223632216765
4458.3196459893525,4882.291927887009
4458.342831564396,5037.890469058458
4458.366017260016,5345.4927081651795
4458.389203076214,5575.035854674163
4458.4123890129895,5758.7497213226725
4458.435575070344,6043.346183632025
4458.458761248279,6204.812884561629
4458.481947546794,6216.5063406231275
4458.505133965889,6232.791105505954
4458.528320505566,6229.838389934749
4458.551507165825,6183.619160043483
4458.574693946666,6184.83419724187
4458.597880848091,6289.813289387471
4458.6210678701,6523.952916089246
4458.644255012693,6753.778760282873
4458.6674422758715,7103.027702578945
4458.690629659636,7438.711777739912
4458.713817163986,7615.395309985588
4458.737004788924,7693.79516150332
4458.76019253445,7862.67096433804
4458.783380400563,7684.967789793126
4458.8065683872655,7494.012620647121
4458.829756494558,7228.541957992805
4458.85294472244,6871.675004624811
4458.876133070914,6547.571899277925
4458.899321539979,6053.980274245476
4458.922510129635,5641.9455919572065
4458.945698839884,5270.737336155704
4458.968887670727,4787.858638264021
4458.992076622164,4257.376926668825
4459.015265694195,3850.616188977203
4459.0384548868215,3421.8781216510242
4459.061644200044,3028.088748962117
4459.084833633862,2636.6619027477145
4459.108023188278,2361.2248475555234
4459.131212863292,2211.4639475356103
4459.154402658904,2126.5263642180203
4459.177592575114,2169.391410780203
4459.200782611925,2282.7896930036654
4459.223972769336,2542.8709640683746
4459.247163047347,2850.8480517645457
4459.27035344596,3080.3562122305625
4459.293543965176,3512.445210422011
4459.316734604993,3926.7996472329887
4459.339925365414,4264.598004584179
4459.363116246439,4621.269448618041
4459.386307248069,4914.37156827666
4459.409498370304,5232.168460159529
4459.432689613145,5638.157526130372
4459.455880976592,5908.528840111334
4459.479072460647,6305.9721388092885
4459.502264065309,6845.057730903154
4459.52545579058,7214.032938244977
4459.5486476364595,7514.205880876319
4459.571839602949,7675.584139195893
4459.595031690048,7733.025579615059
4459.618223897759,7783.708798297971
4459.641416226081,7753.39487965813
4459.664608675014,7649.967234632488
4459.687801244561,7478.038587270938
4459.710993934721,7292.160370463733
4459.734186745496,7155.4584859395045
4459.757379676885,6987.925738232433
4459.780572728889,6978.60062944716
4459.803765901509,6908.657361997268
4459.8269591947455,6848.810539015185
4459.850152608599,6949.631746752993
4459.87334614307,7142.505596516939
4459.89653979816,7450.252760167359
4459.91973357387,7649.144307090633
4459.942927470198,7813.274054420353
4459.966121487147,7757.926434458596
4459.989315624717,7615.42114599958
4460.0125098829085,7501.293192720888
4460.035704261722,7342.322832363173
4460.058898761158,7236.835942069243
4460.082093381218,6791.561936901563
4460.105288121902,6341.374208327641
4460.12848298321,5985.499166617637
4460.151677965145,5657.118860222041
4460.1748730677045,5291.694682732443
4460.198068290891,4895.798286890906
4460.221263634704,4530.175242555484
4460.244459099145,4230.190397098189
4460.267654684215,4046.5125167645747
4460.290850389914,4000.5506424885425
4460.314046216243,4072.017589698177
4460.337242163202,4354.808032951758
4460.360438230791,4729.968289668546
4460.383634419013,5155.27811125129
4460.406830727867,5783.494830616716
4460.430027157354,6316.758676645897
4460.453223707474,6872.430718653102
4460.476420378228,7350.38199468417
4460.499617169617,7734.943743434666
4460.522814081641,8227.383673397884
4460.5460111143,8629.67612708296
4460.569208267598,8825.768275168433
4460.592405541532,8894.051187418232
4460.615602936104,8991.923682213497
4460.638800451314,9062.237920126725
4460.661998087163,8988.44433911452
4460.685195843652,9060.253130268047
4460.708393720782,9039.73240269214
4460.731591718552,8952.781058650813
4460.754789836965,8893.815829835361
4460.777988076019,8694.52541581577
4460.801186435716,8495.526611511568
4460.824384916057,8279.3639690873
4460.847583517042,8138.477434399359
4460.870782238671,7972.082162597947
4460.893981080947,7715.929334782063
4460.917180043868,7560.4966632520645
4460.940379127435,7195.265135898053
4460.963578331651,7056.381423613503
4460.986777656513,6526.013266688014
4461.009977102025,6167.03061482462
4461.033176668186,5748.295562774179
4461.056376354995,5451.667263583956
4461.079576162457,4972.931221701285
4461.102776090568,4510.407762164711
4461.125976139332,4154.257192462544
4461.149176308748,3745.7565300888623
4461.172376598816,3505.0632419475987
4461.195577009538,3345.1782062368966
4461.218777540915,3129.7252838857266
4461.241978192946,3078.9071446016465
4461.265178965633,2978.9592173076035
4461.2883798589755,3103.167353309343
4461.311580872974,3225.70587634091
4461.3347820076315,3171.4272033724383
4461.357983262946,3322.6056115682763
4461.381184638919,3313.028449879015
4461.404386135551,3320.0185721992593
4461.4275877528435,3236.073930969694
4461.4507894907965,3125.34248636356
4461.4739913494095,3031.7695497566256
4461.497193328685,2908.5581495925317
4461.520395428623,2720.759546118846
4461.543597649224,2579.735436866246
4461.566799990488,2533.199841303768
4461.590002452416,2557.9332424735553
4461.61320503501,2565.9544764799216
4461.636407738269,2434.209119525561
4461.659610562193,2337.504934829015
4461.682813506784,2325.5206228699035
4461.706016572044,2295.5159858401735
4461.729219757971,2264.6722063488787
4461.752423064566,2452.3048783895424
4461.775626491831,2672.1351337787955
4461.798830039766,3008.851643572629
4461.82203370837,3357.226306119406
4461.845237497647,3616.4772844954546
4461.868441407595,3827.243274330625
4461.891645438215,4053.1637494557885
4461.914849589509,4197.974045932316
4461.938053861475,4159.276848099824
4461.961258254117,4163.148322552148
4461.984462767433,4109.840256493055
4462.007667401424,3915.281599223727
4462.030872156092,3807.1407886117945
4462.0540770314365,3805.3586639919054
4462.077282027459,3846.7651813882508
4462.100487144158,4038.4867898543575
4462.123692381537,4368.059701024316
4462.146897739594,4618.177531785408
4462.170103218332,5025.658450199725
4462.19330881775,5397.998140897245
4462.21651453785,5510.213771233021
4462.239720378631,5607.057285605277
4462.262926340095,5724.753435800761
4462.286132422241,5819.4551094145845
4462.309338625071,5759.526933739062
4462.3325449485865,5790.19611653843
4462.355751392785,5633.761670920485
4462.3789579576705,5428.070987563942
4462.402164643242,5276.881649376815
4462.4253714495,5197.589297539642
4462.448578376446,5146.906047579131
4462.471785424079,5080.810918298872
4462.494992592401,5068.523523393355
4462.518199881412,5226.690311468973
4462.541407291114,5451.145468165066
4462.564614821506,5832.942356352845
4462.587822472589,6306.311006766243
4462.611030244365,6737.775777423049
4462.634238136832,7113.376016899537
4462.657446149992,7518.442826323339
4462.680654283847,7603.9313458695415
4462.703862538396,7751.534425028993
4462.727070913639,7732.101279660875
4462.750279409578,7561.830754183859
4462.773488026214,7462.757922380912
4462.796696763546,7178.567904811914
4462.819905621575,7069.348224803619
