wave,flux
4450.003811362098,2245.123154972942
4450.026953690486,2290.385699135369
4450.050096139227,2358.120089899494
4450.073238708321,2630.3192061368045
4450.096381397769,2995.799682444702
4450.119524207569,3442.6730808449224
4450.142667137726,3846.6733815646385
4450.165810188237,4287.580476240976
4450.188953359103,4646.285017404902
4450.212096650326,4879.158461874685
4450.2352400619075,5127.526628887113
4450.258383593846,5308.1673067804595
4450.281527246142,5645.134800246347
4450.304671018797,5833.148461155971
4450.327814911813,6086.23330389713
4450.350958925188,6273.192206388835
4450.374103058924,6440.810415671511
4450.3972473130225,6551.274452221206
4450.420391687483,6792.92080897576
4450.443536182305,6987.568648024906
4450.466680797492,7402.8464352104365
4450.489825533042,7696.665275348209
4450.512970388957,7931.122831455013
4450.536115365237,8326.61581501722
4450.559260461882,8595.368289796563
4450.582405678895,8825.385835879166
4450.605551016274,9010.639045143915
4450.628696474022,9020.634980052955
4450.651842052138,9121.92217121787
4450.674987750623,9144.779558389813
4450.698133569476,9222.703168625803
4450.721279508702,9352.368179267229
4450.744425568297,9190.18029269588
4450.767571748264,9152.930016341023
4450.790718048604,9079.075803872074
4450.813864469315,9104.470973910094
4450.837011010401,8888.349454653793
4450.86015767186,8751.03504344511
4450.883304453694,8505.747924284835
4450.906451355903,8192.98172665713
4450.929598378489,7876.453801332866
4450.95274552145,7643.730231536162
4450.975892784789,7034.095214059431
4450.999040168505,6462.950381675782
4451.022187672601,5919.983162005247
4451.045335297074,5316.417487786709
4451.068483041929,4972.453225385117
4451.091630907163,4786.448456357135
4451.114778892777,4743.075048575548
4451.137926998774,4840.874104520895
4451.161075225153,5267.581563517883
4451.184223571914,5640.699653591014
4451.207372039059,6156.138159535881
4451.230520626587,6780.7940062897205
4451.253669334501,7252.30512861724
4451.2768181628,7684.336057641246
4451.299967111485,8108.200607095808
4451.323116180556,8303.789864173052
4451.346265370014,8372.571656028442
4451.369414679861,8480.95178538845
4451.392564110095,8565.728166141995
4451.415713660719,8428.285239275
4451.438863331732,8128.276240878973
4451.462013123136,7954.110579115551
4451.48516303493,7755.32184659864
4451.508313067117,7652.022245397498
4451.531463219695,7622.47069253539
4451.554613492666,7510.04495064958
4451.577763886031,7649.707244912537
4451.60091439979,7757.530593853296
4451.624065033943,7958.6868229694255
4451.647215788492,8107.494906372631
4451.670366663436,8284.391284782965
4451.693517658777,8637.484978939601
4451.716668774516,8858.575075743684
4451.739820010652,8955.971036914452
4451.762971367186,9035.54186316
4451.78612284412,9063.006731467487
4451.8092744414525,9143.099496734676
4451.832426159187,9224.454550072807
4451.855577997321,9296.251833459644
4451.878729955857,9169.666301438669
4451.901882034796,9153.901639426313
4451.925034234137,9219.065995727695
4451.948186553881,9071.840593116387
4451.97133899403,9033.06679204973
4451.994491554583,8927.191090713877
4452.017644235542,8767.194122937657
4452.040797036907,8571.35179623604
4452.063949958678,8393.554233705616
4452.087103000857,8090.8849150889055
4452.1102561634425,7944.63965407354
4452.133409446437,7793.745542192165
4452.156562849841,7503.858002069283
4452.179716373655,7449.621561419334
4452.202870017878,7382.665228113055
4452.226023782513,7198.782211747298
4452.24917766756,7134.700630911655
4452.272331673018,7200.008633287165
4452.29548579889,7369.439740021036
4452.318640045174,7574.0908255290515
4452.341794411874,7745.639664548431
4452.364948898987,7929.063005448278
4452.388103506516,7972.871651978367
4452.4112582344615,7981.406865919308
4452.434413082823,7955.980484458867
4452.457568051602,7719.958278490511
4452.480723140799,7663.63126197296
4452.503878350413,7626.564578251084
4452.527033680448,7472.164636254713
4452.550189130902,7579.205327736017
4452.5733447017765,7676.757278692083
4452.596500393071,7765.050075097531
4452.619656204789,7812.519151062047
4452.642812136928,7887.674264376708
4452.66596818949,7879.605828765038
4452.689124362475,7863.383416392755
4452.7122806558855,7677.964895999637
4452.735437069719,7579.734092978502
4452.7585936039795,7316.949581820498
4452.781750258665,7026.252879265311
4452.804907033777,6779.744376896667
4452.828063929317,6725.903422645538
4452.851220945285,6579.240333291564
4452.87437808168,6659.44178177546
4452.897535338506,7007.43878556919
4452.92069271576,7174.21162659946
4452.943850213445,7535.724396020862
4452.967007831562,7843.928293767308
4452.99016557011,8106.713244012194
4453.01332342909,8420.518191514362
4453.036481408502,8546.035552468797
4453.059639508349,8614.413963211138
4453.08279772863,8784.011885273376
4453.105956069345,8821.747665736619
4453.129114530496,8530.783218579838
4453.152273112083,8449.586403400604
4453.175431814107,8336.07040976208
4453.198590636567,8075.933309550404
4453.221749579466,7955.767609612612
4453.244908642802,7995.587563576319
4453.268067826579,8100.2659898473075
4453.291227130795,8158.405520487959
4453.314386555451,8243.798905634618
4453.337546100549,8381.962175737643
4453.360705766087,8578.932670317974
4453.3838655520685,8790.411812437836
4453.407025458493,8933.363135072828
4453.430185485361,8933.274699068033
4453.453345632673,8927.606798580102
4453.476505900429,9024.570557878747
4453.4996662886315,9105.290773328134
4453.52282679728,9143.891695010594
4453.545987426375,9170.904579506776
4453.569148175917,9131.51864447735
4453.592309045907,9017.239212401624
4453.615470036346,9000.359066750778
4453.638631147233,8885.292397385683
4453.661792378571,8813.89219189805
4453.684953730359,8697.488775558708
4453.708115202598,8366.871849064459
4453.731276795288,8092.474528328563
4453.754438508431,7769.059754960672
4453.777600342027,7358.231473648787
4453.800762296077,6916.982467666973
4453.82392437058,6108.087670995932
4453.847086565538,5486.458867940965
4453.870248880952,5105.677167218053
4453.8934113168225,4625.185399255112
4453.916573873149,4478.308107403134
4453.939736549933,4540.59029505914
4453.962899347174,4670.252505519683
4453.986062264875,5011.917331144156
4454.009225303034,5162.480720248556
4454.032388461654,5478.851246620863
4454.055551740734,5645.059374784838
4454.078715140275,5650.381919877675
4454.101878660277,5391.339397416302
4454.125042300742,5094.418578699293
4454.14820606167,4742.565772165621
4454.171369943061,4314.686927678942
4454.194533944917,3943.1970922258524
4454.2176980672375,3595.3205596648386
4454.240862310024,3104.066751286056
4454.264026673275,2786.884055521565
4454.287191156994,2604.0768976428776
4454.31035576118,2578.8050584957787
4454.333520485834,2680.0656914591896
4454.356685330957,2875.0510899868736
4454.379850296548,3205.108273950413
4454.40301538261,3513.3397810158867
4454.426180589142,3795.0412828860863
4454.449345916145,4013.967266736079
4454.4725113636205,4207.49783046178
4454.495676931568,4338.877227575861
4454.5188426199875,4396.791022954138
4454.542008428882,4606.71477254279
4454.565174358249,4963.542225743285
4454.588340408092,5407.894610679562
4454.611506578411,5788.925076744932
4454.634672869205,6080.257866395638
4454.657839280476,6349.926083332088
4454.681005812225,6508.265580673885
4454.704172464451,6492.005645512489
4454.727339237156,6310.704035611096
4454.750506130341,6023.33936606806
4454.773673144005,5825.667445126969
4454.79684027815,5588.292388209965
4454.820007532776,5396.490676412015
4454.843174907884,5520.894515357027
4454.866342403473,5805.1355572004395
4454.889510019546,6182.18086495392
4454.912677756102,6573.46596421272
4454.935845613144,6991.628662212326
4454.959013590669,7277.941033719075
4454.982181688681,7687.20344286067
4455.005349907178,8015.910284802564
4455.028518246162,8173.249065264055
4455.051686705633,8325.210303239692
4455.074855285593,8379.995184715088
4455.098023986041,8263.16685114067
4455.121192806979,8241.114628711202
4455.144361748406,8104.779089420038
4455.167530810323,7929.308147112174
4455.190699992732,7511.190653336683
4455.213869295633,7226.907330767424
4455.237038719026,6781.342098096108
4455.260208262912,6424.312024988395
4455.283377927292,5863.393887788154
4455.306547712166,5250.244777367951
4455.329717617535,4748.448726635904
4455.352887643399,4291.61836390041
4455.37605778976,3968.6398615833327
4455.399228056617,3746.8079729221636
4455.422398443972,3839.647822504344
4455.445568951825,3965.9446369011357
4455.468739580177,4464.0855466717985
4455.491910329028,4941.715693511874
4455.515081198378,5486.87679180845
4455.538252188229,6064.684820702587
4455.561423298582,6511.335705642142
4455.584594529436,7015.9099239372135
4455.607765880793,7309.1462121429
4455.630937352652,7643.879809937151
4455.654108945016,7892.733489172335
4455.677280657883,8116.653724578575
4455.700452491255,8091.916795648566
4455.723624445134,7983.313116371751
4455.746796519518,7931.671844752809
4455.7699687144095,7760.901128470056
4455.793141029808,7469.524252071801
4455.816313465714,6895.31583110263
4455.83948602213,6581.1994255628215
4455.862658699055,6443.483874903142
4455.885831496489,6204.47465344417
4455.909004414434,6139.185414144072
4455.932177452891,6143.036145165573
4455.955350611858,6468.5122236375555
4455.978523891339,6572.466923124195
4456.001697291333,6595.07902303004
4456.024870811841,6615.113698394088
4456.048044452862,6385.897256213777
4456.071218214399,6154.4952680107435
4456.094392096451,5848.478477669711
4456.117566099019,5719.2514933381735
4456.140740222105,5515.501375584695
4456.163914465707,5471.578104321412
4456.187088829828,5550.193401639759
4456.210263314468,5716.489340865994
4456.233437919626,6095.391720795368
4456.256612645306,6571.576521795395
4456.279787491505,6951.405450008867
4456.302962458226,7420.052127123942
4456.326137545469,7703.557819550004
4456.349312753233,7946.403321347441
4456.372488081522,8083.653226146915
4456.395663530333,8072.323275010232
4456.41883909967,8212.640223047005
4456.442014789531,8291.817539221363
4456.465190599917,8211.122468509504
4456.488366530831,8147.071476247751
4456.5115425822705,8054.790996203099
4456.5347187542375,7862.876645752144
4456.557895046733,7741.467327378832
4456.581071459757,7890.291018632895
4456.604247993311,7955.315200408597
4456.627424647395,7967.166159327786
4456.650601422009,8121.142727770828
4456.673778317154,8317.041725525676
4456.696955332832,8451.803929014328
4456.720132469041,8391.938926096944
4456.7433097257845,8323.460900363825
4456.766487103061,8224.364150621403
4456.789664600872,7931.039666004122
4456.8128422192185,7718.8602945247085
4456.8360199581,7526.757625257694
4456.859197817518,6954.057331022665
4456.882375797473,6346.875365943334
4456.905553897966,5838.325130080641
4456.928732118997,5347.868170452654
4456.951910460566,5046.961699317129
4456.975088922674,4841.133343163279
4456.998267505323,4728.550479166885
4457.021446208513,4804.383076786804
4457.044625032244,5016.486778156981
4457.067803976516,5316.502563475946
4457.090983041332,5779.8427111076935
4457.1141622266905,6217.911525353083
4457.1373415325925,6622.399435824717
4457.160520959039,7151.217812926299
4457.183700506031,7587.087460102028
4457.206880173568,7948.9029232712155
4457.230059961651,8020.245787623858
4457.2532398702815,8146.518882941939
4457.27641989946,8384.78910308599
4457.299600049186,8329.097342403942
4457.322780319461,8417.933223175894
4457.345960710286,8564.83253407818
4457.36914122166,8609.297875154534
4457.392321853586,8380.923257422679
4457.415502606062,8281.768846725736
4457.43868347909,8114.781630256476
4457.461864472672,8034.1336375934325
4457.485045586805,7690.971455824792
4457.508226821494,7383.892066424309
4457.5314081767365,6895.571946789894
4457.554589652534,6512.196392558865
4457.577771248887,6254.137740627085
4457.600952965797,5906.664667626211
4457.624134803263,5815.801035476767
4457.647316761288,5731.655452938639
4457.67049883987,5714.729575732466
4457.693681039011,5611.391822985885
4457.716863358712,5583.651656614071
4457.7400457989725,5517.749333775532
4457.763228359793,5615.707652221171
4457.7864110411765,5833.859542296262
4457.809593843121,6023.398991099249
4457.832776765628,6505.441366830693
4457.855959808699,6845.754412711272
4457.879142972333,7071.35041593502
4457.902326256532,7310.981509737088
4457.925509661296,7347.918085988304
4457.948693186626,7380.133489879242
4457.971876832522,7361.368738420759
4457.995060598985,7136.327667774416
4458.018244486016,7061.580447995792
4458.041428493615,6906.936431173739
4458.0646126217825,6922.386352265176
4458.08779687052,7081.888549714258
4458.110981239827,7291.5340158957415
4458.134165729705,7457.431543912264
4458.157350340155,7806.210563127489
4458.180535071177,8148.72682093538
4458.203719922771,8299.335811630077
4458.226904894938,8329.29632737738
4458.2500899876795,8426.035406236855
4458.273275200995,8433.31037632332
4458.296460534886,8499.807179260286
4458.3196459893525,8425.76503670271
4458.342831564396,8205.02656857028
4458.366017260016,8255.064573552932
4458.389203076214,7872.89187535754
4458.4123890129895,7293.75794288174
4458.435575070344,7011.397396867959
4458.458761248279,6351.81989375248
4458.481947546794,5760.765604441185
4458.505133965889,5158.9703305766225
4458.528320505566,4323.124103794303
4458.551507165825,3813.098245515041
4458.574693946666,3401.430102706197
4458.597880848091,3026.838411987238
4458.6210678701,2875.815305110884
4458.644255012693,2811.2514555959224
4458.6674422758715,2871.9766921419764
4458.690629659636,3083.9521050209946
4458.713817163986,3498.7090607282867
4458.737004788924,3865.7012193056644
4458.76019253445,4192.743914445856
4458.783380400563,4562.242890783062
4458.8065683872655,4821.186273778736
4458.829756494558,4981.194529469607
4458.85294472244,5168.899232150895
4458.876133070914,5347.382110244299
4458.899321539979,5663.248772927669
4458.922510129635,6062.485204435161
4458.945698839884,6610.880954933767
4458.968887670727,7011.904225072634
4458.992076622164,7577.1443161098205
4459.015265694195,7860.282400024129
4459.0384548868215,8188.290709057771
4459.061644200044,8344.85498546226
4459.084833633862,8497.882205993059
4459.108023188278,8512.527057985648
4459.131212863292,8543.979884273735
4459.154402658904,8517.456322467804
4459.177592575114,8487.321262708954
4459.200782611925,8229.289957652469
4459.223972769336,8027.979357714163
4459.247163047347,7968.978022448858
4459.27035344596,7878.179753276228
4459.293543965176,7923.818294826512
4459.316734604993,7929.770447711046
4459.339925365414,8113.928435817219
4459.363116246439,8260.891824860231
4459.386307248069,8447.574489618975
4459.409498370304,8645.150157953665
4459.432689613145,8646.593814590757
4459.455880976592,8572.896568657945
4459.479072460647,8666.689504456053
4459.502264065309,8752.142946803908
4459.52545579058,8650.5498746212
4459.5486476364595,8412.34467541937
4459.571839602949,8274.920787645267
4459.595031690048,7911.865253762284
4459.618223897759,7447.217763099293
4459.641416226081,6959.0776808291685
4459.664608675014,6429.17648692041
4459.687801244561,5822.842833478463
4459.710993934721,5327.414606163021
4459.734186745496,5000.686891500415
4459.757379676885,4940.8190046764485
4459.780572728889,4917.056534250975
4459.803765901509,5157.02847119968
4459.8269591947455,5529.305912462866
4459.850152608599,5843.374808827572
4459.87334614307,6288.1697472820715
4459.89653979816,6732.567813832392
4459.91973357387,7177.894441499275
4459.942927470198,7593.9769600234295
4459.966121487147,7969.08913050679
4459.989315624717,8154.664820387101
4460.0125098829085,8470.92295454821
4460.035704261722,8757.508766414167
4460.058898761158,8845.43600954498
4460.082093381218,8848.419951154498
4460.105288121902,8982.987175176177
4460.12848298321,9133.243326145268
4460.151677965145,9127.54483383817
4460.1748730677045,9006.508720720822
4460.198068290891,9017.998906089431
4460.221263634704,8923.885153738138
4460.244459099145,8952.180456590024
4460.267654684215,8843.26545997008
4460.290850389914,8792.94268025834
4460.314046216243,8795.028939111988
4460.337242163202,8781.714548381762
4460.360438230791,8765.681273115179
4460.383634419013,8797.87167069497
4460.406830727867,8647.940627018206
4460.430027157354,8538.628861459514
4460.453223707474,8351.889199858851
4460.476420378228,8156.522578790498
4460.499617169617,7836.535234198526
4460.522814081641,7356.472883404624
4460.5460111143,6933.772496203002
4460.569208267598,6477.72168663632
4460.592405541532,5782.306081975174
4460.615602936104,5310.696559604723
4460.638800451314,4905.699092058977
4460.661998087163,4525.0996087508765
4460.685195843652,4190.4367776308945
4460.708393720782,4103.268780797549
4460.731591718552,4102.668029346592
4460.754789836965,4245.275351146873
4460.777988076019,4333.359362560436
4460.801186435716,4383.471038141324
4460.824384916057,4440.45766233041
4460.847583517042,4470.010691157687
4460.870782238671,4385.7500235135285
4460.893981080947,4204.348111294663
4460.917180043868,3996.6052792244054
4460.940379127435,3904.8477816256664
4460.963578331651,3854.1090365834416
4460.986777656513,3867.765791863358
4461.009977102025,3872.9327729251145
4461.033176668186,3822.981899080759
4461.056376354995,3740.4880853150094
4461.079576162457,3633.4277506943977
4461.102776090568,3345.6134954683976
4461.125976139332,3113.3569510467905
4461.149176308748,3046.3903599854307
4461.172376598816,2978.0235816802397
4461.195577009538,2989.543730331288
4461.218777540915,3190.9984123940694
4461.241978192946,3523.831645962462
4461.265178965633,3948.4273532287016
4461.2883798589755,4490.638982598325
4461.311580872974,5035.33175151556
4461.3347820076315,5394.196234308019
4461.357983262946,5647.210942923237
4461.381184638919,5751.700482290596
4461.404386135551,5751.186297849617
4461.4275877528435,5560.9846958270155
4461.4507894907965,5195.683661244978
4461.4739913494095,4821.236379264187
4461.497193328685,4650.069563224692
4461.520395428623,4534.800975907317
4461.543597649224,4617.84240968292
4461.566799990488,4849.040707522757
4461.590002452416,5155.937259739117
4461.61320503501,5571.048470038786
4461.636407738269,5957.621905943377
4461.659610562193,6301.939677260358
4461.682813506784,6654.395998036255
4461.706016572044,6973.777188060695
4461.729219757971,7196.371117073704
4461.752423064566,7379.9630375620745
4461.775626491831,7520.801959957419
4461.798830039766,7534.751401566363
4461.82203370837,7525.283665740554
4461.845237497647,7350.061248366703
4461.868441407595,7051.541084793536
4461.891645438215,6504.2961612532645
4461.914849589509,6374.616888255444
4461.938053861475,5861.22711755705
4461.961258254117,5823.488271204239
4461.984462767433,5869.04844718063
4462.007667401424,6033.195677852576
4462.030872156092,6372.2823830638135
4462.0540770314365,6885.850611722624
4462.077282027459,7320.722788258925
4462.100487144158,7503.130816442858
4462.123692381537,7824.120624905101
4462.146897739594,8057.231918494131
4462.170103218332,8114.407417485241
4462.19330881775,8349.914568546457
4462.21651453785,8495.397488979244
4462.239720378631,8349.899666983592
4462.262926340095,8368.893086589014
4462.286132422241,8453.90724670451
4462.309338625071,8511.712711361448
4462.3325449485865,8302.378416747168
4462.355751392785,8154.066675132062
4462.3789579576705,8050.469366932249
4462.402164643242,7692.643961329784
4462.4253714495,7286.446129596833
4462.448578376446,6917.642612615269
4462.471785424079,6533.15421727566
4462.494992592401,6342.32879646806
4462.518199881412,6277.516695890119
4462.541407291114,6197.74991256735
4462.564614821506,6393.674615286801
4462.587822472589,6646.385714448213
4462.611030244365,6915.060724357563
4462.634238136832,7052.716444392203
4462.657446149992,7384.265008093512
4462.680654283847,7627.522544770775
4462.703862538396,7744.955136845993
4462.727070913639,7980.9386140991855
4462.750279409578,8130.922096522022
4462.773488026214,8130.571939775975
4462.796696763546,7913.242718972933
4462.819905621575,7822.83183368937
4462.843114600304,7661.321809804491
