wave,flux
4450.003811362098,17497.85161521175
4450.026953690486,16843.764368338798
4450.050096139227,15992.590374463645
4450.073238708321,15033.37288659588
4450.096381397769,13831.145942828422
4450.119524207569,12708.292472301066
4450.142667137726,11249.835871932682
4450.165810188237,10045.436246612902
4450.188953359103,8747.172733089184
4450.212096650326,7595.638846634618
4450.2352400619075,6725.30718852761
4450.258383593846,5884.578029537839
4450.281527246142,5364.128817299451
4450.304671018797,4821.398049834566
4450.327814911813,4608.949820404216
4450.350958925188,4345.707048184654
4450.374103058924,4167.140083475532
4450.3972473130225,4216.767451062676
4450.420391687483,4622.197219277548
4450.443536182305,5270.448549357827
4450.466680797492,5967.4215616327165
4450.489825533042,6939.948960254442
4450.512970388957,8009.5568117365165
4450.536115365237,8893.322257185157
4450.559260461882,9551.560236588706
4450.582405678895,10055.033709123032
4450.605551016274,10213.108864292857
4450.628696474022,10146.334399527952
4450.651842052138,10156.951651065252
4450.674987750623,10323.190654131267
4450.698133569476,10780.33163850897
4450.721279508702,11301.106626665889
4450.744425568297,11747.48546755189
4450.767571748264,12307.17759462706
4450.790718048604,12948.502671864186
4450.813864469315,13839.262247484123
4450.837011010401,14836.984277410054
4450.86015767186,15997.15632560262
4450.883304453694,17375.199951090748
4450.906451355903,18652.773365943343
4450.929598378489,19798.025915847717
4450.95274552145,20521.754018103773
4450.975892784789,21007.975233696798
4450.999040168505,21215.967080133076
4451.022187672601,21585.381399221238
4451.045335297074,21417.012906677235
4451.068483041929,21585.72699971998
4451.091630907163,21385.042451569494
4451.114778892777,21368.37920853944
4451.137926998774,20801.77312561881
4451.161075225153,20398.986701195245
4451.184223571914,19804.17834663455
4451.207372039059,19235.150505857913
4451.230520626587,18541.787788734644
4451.253669334501,17689.1053153975
4451.2768181628,16763.438218188847
4451.299967111485,15697.484523158084
4451.323116180556,14608.94765852698
4451.346265370014,13431.652824897932
4451.369414679861,12148.466228061612
4451.392564110095,10733.212991474617
4451.415713660719,9622.408214325003
4451.438863331732,8808.501622438387
4451.462013123136,8237.085509033417
4451.48516303493,8222.097320583678
4451.508313067117,8698.631732693384
4451.531463219695,9748.564006314049
4451.554613492666,11181.08352629692
4451.577763886031,12900.033419287973
4451.60091439979,14667.196809818242
4451.624065033943,15917.446723902045
4451.647215788492,17034.912293508107
4451.670366663436,17713.361495580975
4451.693517658777,18037.26416573778
4451.716668774516,18299.55957776251
4451.739820010652,17964.40803569877
4451.762971367186,17393.484258256052
4451.78612284412,16626.653356839164
4451.8092744414525,15672.623094088833
4451.832426159187,15008.048190991223
4451.855577997321,13919.631344060803
4451.878729955857,13643.687070698676
4451.901882034796,13495.701453689608
4451.925034234137,13896.948766340807
4451.948186553881,14474.554341229728
4451.97133899403,15427.019621177278
4451.994491554583,16527.892196384568
4452.017644235542,17684.7147850395
4452.040797036907,18677.86126921218
4452.063949958678,19668.478908258654
4452.087103000857,20335.061493436584
4452.1102561634425,20978.32574963884
4452.133409446437,21099.96203571726
4452.156562849841,21303.03436823397
4452.179716373655,21387.779689497045
4452.202870017878,21497.600568437927
4452.226023782513,21394.11271770046
4452.24917766756,21097.640403991176
4452.272331673018,20810.954640508015
4452.29548579889,20551.97202948692
4452.318640045174,20072.969307777203
4452.341794411874,19549.85707478748
4452.364948898987,19086.9155324897
4452.388103506516,18244.219372893956
4452.4112582344615,17348.7317513341
4452.434413082823,16488.024726081687
4452.457568051602,15504.589688646069
4452.480723140799,14769.907460942171
4452.503878350413,14070.111690393693
4452.527033680448,13464.030086183157
4452.550189130902,13092.402110596207
4452.5733447017765,12755.03110992496
4452.596500393071,12671.828960444911
4452.619656204789,12629.076209219245
4452.642812136928,12871.789933217718
4452.66596818949,13257.478582004402
4452.689124362475,13865.596931838863
4452.7122806558855,14659.793632443641
4452.735437069719,15211.899964142132
4452.7585936039795,15707.97108374345
4452.781750258665,15675.0149761866
4452.804907033777,15511.3984130432
4452.828063929317,15020.241325793873
4452.851220945285,14314.650194025426
4452.87437808168,14186.738192059625
4452.897535338506,13910.265967254227
4452.92069271576,13536.978534150432
4452.943850213445,13989.539995777292
4452.967007831562,14445.324412698554
4452.99016557011,14890.988219963854
4453.01332342909,15344.772147627553
4453.036481408502,15241.880789512295
4453.059639508349,15054.482145125907
4453.08279772863,14629.648897435169
4453.105956069345,14024.10680074835
4453.129114530496,13285.318485414391
4453.152273112083,12610.910632445706
4453.175431814107,12077.206811000065
4453.198590636567,11836.15393165259
4453.221749579466,11951.156807861098
4453.244908642802,12286.855930023376
4453.268067826579,13274.484606222737
4453.291227130795,14642.35796874293
4453.314386555451,15928.967578122918
4453.337546100549,17130.885596414362
4453.360705766087,18031.85158798851
4453.3838655520685,18550.458851811232
4453.407025458493,18747.84069149489
4453.430185485361,18663.27587929096
4453.453345632673,18469.37598149635
4453.476505900429,18039.204572832143
4453.4996662886315,17446.402744510553
4453.52282679728,16893.39687100565
4453.545987426375,16249.904482467642
4453.569148175917,15846.373074612484
4453.592309045907,15568.519523949764
4453.615470036346,15393.749901974012
4453.638631147233,15644.626685383268
4453.661792378571,16269.240956140566
4453.684953730359,17292.784365284548
4453.708115202598,18308.733101656573
4453.731276795288,19155.847755982923
4453.754438508431,19776.11487643778
4453.777600342027,20125.434539073158
4453.800762296077,20655.537629440965
4453.82392437058,20967.78523457837
4453.847086565538,21081.93637053697
4453.870248880952,21107.524197220522
4453.8934113168225,21033.215144894624
4453.916573873149,20963.742330832574
4453.939736549933,20702.700753762045
4453.962899347174,20379.184622998782
4453.986062264875,19981.679819816647
4454.009225303034,19309.796816672137
4454.032388461654,18569.303999984488
4454.055551740734,17519.424981331522
4454.078715140275,16639.662111499016
4454.101878660277,15409.685913723657
4454.125042300742,14099.737669331425
4454.14820606167,13052.908796138141
4454.171369943061,11684.851078720065
4454.194533944917,10254.666278996829
4454.2176980672375,8978.068610338114
4454.240862310024,8038.058934192456
4454.264026673275,7178.121595916983
4454.287191156994,6948.829579905279
4454.31035576118,7142.6007567359175
4454.333520485834,7509.141319074233
4454.356685330957,8239.777934653961
4454.379850296548,9121.871874056167
4454.40301538261,9646.451114347967
4454.426180589142,10066.138061636799
4454.449345916145,10045.700041768016
4454.4725113636205,9595.774446817564
4454.495676931568,8970.539104019172
4454.5188426199875,7965.929060844588
4454.542008428882,6939.792835639464
4454.565174358249,6000.935835790338
4454.588340408092,5280.486241516871
4454.611506578411,4770.2501853513295
4454.634672869205,4261.2491008891175
4454.657839280476,3997.709122731106
4454.681005812225,4087.7111829194487
4454.704172464451,4304.112189319993
4454.727339237156,4645.86920301467
4454.750506130341,5366.208613840846
4454.773673144005,6109.620792320827
4454.79684027815,6731.637846776733
4454.820007532776,7357.219370264074
4454.843174907884,7774.457115121993
4454.866342403473,8108.233638025901
4454.889510019546,8342.000026636262
4454.912677756102,8691.417536690466
4454.935845613144,9081.869505328605
4454.959013590669,9753.462654089104
4454.982181688681,10601.076256424774
4455.005349907178,11491.927601904024
4455.028518246162,12086.688896505033
4455.051686705633,12425.874386430836
4455.074855285593,12610.914684764919
4455.098023986041,12405.556142730984
4455.121192806979,11902.502927998608
4455.144361748406,11154.583357609084
4455.167530810323,10663.109605143123
4455.190699992732,10282.607488492613
4455.213869295633,10410.051305673802
4455.237038719026,10984.85011104161
4455.260208262912,11925.545775841754
4455.283377927292,13227.794921114308
4455.306547712166,14662.266023626977
4455.329717617535,16045.014402674928
4455.352887643399,16998.93741148064
4455.37605778976,17647.882122315412
4455.399228056617,18024.87146373534
4455.422398443972,18166.81036468788
4455.445568951825,17918.89778146149
4455.468739580177,17336.689258249626
4455.491910329028,16624.554595101064
4455.515081198378,15521.752608390922
4455.538252188229,14375.536013842286
4455.561423298582,13635.30293285585
4455.584594529436,12417.44609256414
4455.607765880793,11542.002748080884
4455.630937352652,10682.12292460701
4455.654108945016,9602.673609539086
4455.677280657883,8551.191738141462
4455.700452491255,7741.013620242571
4455.723624445134,6809.62948268249
4455.746796519518,6092.338205981651
4455.7699687144095,6009.964994597211
4455.793141029808,6304.843949316774
4455.816313465714,7158.264023591436
4455.83948602213,8306.791522926469
4455.862658699055,9718.220201870896
4455.885831496489,11345.219286400286
4455.909004414434,12946.615199021406
4455.932177452891,14447.898682599274
4455.955350611858,15639.906950934132
4455.978523891339,16493.17899794915
4456.001697291333,16979.54499384773
4456.024870811841,17205.516570512536
4456.048044452862,16936.179401026828
4456.071218214399,16330.89407611533
4456.094392096451,15686.988631640363
4456.117566099019,14910.233033220573
4456.140740222105,14018.329715709311
4456.163914465707,13113.82789792226
4456.187088829828,11982.051020231844
4456.210263314468,11010.83944279783
4456.233437919626,10245.900039201992
4456.256612645306,9783.805288318155
4456.279787491505,9832.474856910188
4456.302962458226,10056.802389241098
4456.326137545469,10346.814129730696
4456.349312753233,11056.384843708072
4456.372488081522,11628.006513988279
4456.395663530333,11853.425943099639
4456.41883909967,11871.76440352474
4456.442014789531,11580.918234137021
4456.465190599917,11154.181425247616
4456.488366530831,10736.121491132115
4456.5115425822705,10595.793540336937
4456.5347187542375,10797.492874464817
4456.557895046733,11192.947141878389
4456.581071459757,12041.944810325016
4456.604247993311,13479.850658059728
4456.627424647395,15061.146060724213
4456.650601422009,16356.579656589389
4456.673778317154,17426.6182896971
4456.696955332832,18179.423570255007
4456.720132469041,18498.464274832633
4456.7433097257845,18567.8168372991
4456.766487103061,18349.412059957707
4456.789664600872,18081.79067624226
4456.8128422192185,17578.679306648388
4456.8360199581,16968.729394139722
4456.859197817518,16661.420407608643
4456.882375797473,16190.983323968167
4456.905553897966,15774.633804038976
4456.928732118997,15529.281266660053
4456.951910460566,15580.976430319946
4456.975088922674,15813.034367098764
4456.998267505323,16275.943260527632
4457.021446208513,16811.37826440134
4457.044625032244,17402.258614643546
4457.067803976516,17512.80194693966
4457.090983041332,17398.64942950021
4457.1141622266905,17170.010202458867
4457.1373415325925,16545.569012104683
4457.160520959039,15840.667402099962
4457.183700506031,14994.680944037971
4457.206880173568,13811.81896252943
4457.230059961651,12691.989008910354
4457.2532398702815,11396.72938770943
4457.27641989946,10171.27964345744
4457.299600049186,8994.821364782332
4457.322780319461,8220.941054174295
4457.345960710286,7847.968907619218
4457.36914122166,7899.6776282532255
4457.392321853586,8123.167835047275
4457.415502606062,8743.695134904865
4457.43868347909,9875.21308214489
4457.461864472672,11223.415712426218
4457.485045586805,12503.145087101435
4457.508226821494,14035.267821519983
4457.5314081767365,15457.274826405179
4457.554589652534,16807.932920024075
4457.577771248887,17584.950646216308
4457.600952965797,17941.139916912973
4457.624134803263,18402.258558007918
4457.647316761288,18430.29430518749
4457.67049883987,18293.299157425456
4457.693681039011,17973.567456236924
4457.716863358712,17888.580496782673
4457.7400457989725,17470.171163842788
4457.763228359793,17078.818661622157
4457.7864110411765,16695.253697337113
4457.809593843121,15922.083057076448
4457.832776765628,15172.239827749008
4457.855959808699,14288.664796440986
4457.879142972333,13151.70755249203
4457.902326256532,12192.280225837494
4457.925509661296,11073.277739532788
4457.948693186626,10526.165718605393
4457.971876832522,9650.99495552166
4457.995060598985,9240.619476094449
4458.018244486016,9048.110746790931
4458.041428493615,9117.122646997646
4458.0646126217825,9340.699938184549
4458.08779687052,9722.274999622332
4458.110981239827,10136.09620362175
4458.134165729705,10216.789917986594
4458.157350340155,10591.802470981158
4458.180535071177,11085.880766470491
4458.203719922771,12057.213435792535
4458.226904894938,12911.326014312146
4458.2500899876795,13603.254925516221
4458.273275200995,14391.166141710728
4458.296460534886,14521.034075636595
4458.3196459893525,14393.324718393098
4458.342831564396,14073.250001124108
4458.366017260016,13602.119504835073
4458.389203076214,13208.34163059176
4458.4123890129895,13159.391095826288
4458.435575070344,12871.618314697855
4458.458761248279,13579.4751433435
4458.481947546794,14548.303471148041
4458.505133965889,15675.16179277345
4458.528320505566,16980.567453752697
4458.551507165825,17896.441054379426
4458.574693946666,18762.10995090293
4458.597880848091,18985.93082976741
4458.6210678701,19090.04631814781
4458.644255012693,19071.322659438225
4458.6674422758715,18770.177217581462
4458.690629659636,17841.964142329707
4458.713817163986,16989.9942339354
4458.737004788924,15827.107563364747
4458.76019253445,14966.151298462655
4458.783380400563,13602.809477801015
4458.8065683872655,12385.452575781708
4458.829756494558,11079.43057104314
4458.85294472244,9710.342803432271
4458.876133070914,8287.928090897827
4458.899321539979,6882.318166976269
4458.922510129635,5822.321782305807
4458.945698839884,4969.463522495382
4458.968887670727,4293.416136852325
4458.992076622164,4105.2747626848395
4459.015265694195,4060.6104266277284
4459.0384548868215,4335.657698156589
4459.061644200044,4764.740614636498
4459.084833633862,5492.940956834152
4459.108023188278,6313.851831646603
4459.131212863292,7191.836747954639
4459.154402658904,7921.483187683314
4459.177592575114,8633.779690806972
4459.200782611925,9310.126822892787
4459.223972769336,9996.973956310705
4459.247163047347,10561.327673525044
4459.27035344596,11278.666749789281
4459.293543965176,12441.59600279088
4459.316734604993,13735.252654356893
4459.339925365414,15227.608967461005
4459.363116246439,16642.187968852093
4459.386307248069,17786.91587867588
4459.409498370304,18337.32036122368
4459.432689613145,19038.862057911043
4459.455880976592,18808.006599054534
4459.479072460647,18569.124415794326
4459.502264065309,18225.676622411913
4459.52545579058,17444.796151631723
4459.5486476364595,16643.9114148097
4459.571839602949,16194.814907874115
4459.595031690048,15041.09816542744
4459.618223897759,14523.396066340552
4459.641416226081,14284.176973954844
4459.664608675014,14313.6918021416
4459.687801244561,14879.39090352858
4459.710993934721,15790.286024186797
4459.734186745496,16558.59443979332
4459.757379676885,17571.7672717104
4459.780572728889,18485.393078607874
4459.803765901509,19038.741777029052
4459.8269591947455,19258.56093397092
4459.850152608599,18830.050275880083
4459.87334614307,18330.97631113031
4459.89653979816,17964.949085961634
4459.91973357387,17208.49927118305
4459.942927470198,16055.844268593872
4459.966121487147,14896.140499483463
4459.989315624717,13916.01136944688
4460.0125098829085,12546.230230252564
4460.035704261722,11280.258846824074
4460.058898761158,9998.377676951808
4460.082093381218,8901.307683091907
4460.105288121902,7946.287878531931
4460.12848298321,7587.248855454432
4460.151677965145,7663.636916125791
4460.1748730677045,8164.303506704882
4460.198068290891,8836.325682421
4460.221263634704,10045.06416442252
4460.244459099145,11287.198977025568
4460.267654684215,12862.028388648498
4460.290850389914,14389.238095149221
4460.314046216243,15903.493856185287
4460.337242163202,17360.443679194883
4460.360438230791,18478.21396916044
4460.383634419013,19521.530008222675
4460.406830727867,20172.63043517997
4460.430027157354,20483.98074295107
4460.453223707474,20898.75937338066
4460.476420378228,20870.059146518026
4460.499617169617,20842.073949098776
4460.522814081641,20912.577875775696
4460.5460111143,20747.092385146832
4460.569208267598,20619.677329950733
4460.592405541532,20215.81664614368
4460.615602936104,19896.713042004223
4460.638800451314,19880.123836226685
4460.661998087163,19555.898464162412
4460.685195843652,19074.753850474248
4460.708393720782,18900.830186791474
4460.731591718552,18780.513232223777
4460.754789836965,18675.610622256863
4460.777988076019,18246.744740601225
4460.801186435716,17625.590733774086
4460.824384916057,17020.942958688254
4460.847583517042,15924.45178734136
4460.870782238671,14878.928034703375
4460.893981080947,13556.696311625681
4460.917180043868,12257.917528701248
4460.940379127435,10926.293554858164
4460.963578331651,9541.580232793804
4460.986777656513,8453.168238210228
4461.009977102025,7636.991337130314
4461.033176668186,6996.95807444912
4461.056376354995,6601.136156926217
4461.079576162457,6607.079724221231
4461.102776090568,6737.5209147449
4461.125976139332,7027.854338478013
4461.149176308748,7401.279764548165
4461.172376598816,7781.89460562404
4461.195577009538,8150.658127784942
4461.218777540915,8348.163151844927
4461.241978192946,8350.514670544062
4461.265178965633,8097.868353617569
4461.2883798589755,7646.693296942216
4461.311580872974,7261.265633466088
4461.3347820076315,6961.902373460417
4461.357983262946,6626.787052194318
4461.381184638919,6435.274342069848
4461.404386135551,6525.743147305405
4461.4275877528435,6284.901047186181
4461.4507894907965,5915.67378260985
4461.4739913494095,5544.983641776461
4461.497193328685,5081.838524665612
4461.520395428623,4697.573803187098
4461.543597649224,4393.92754857594
4461.566799990488,4435.626848980834
4461.590002452416,4799.179454662962
4461.61320503501,5544.567907331355
4461.636407738269,6402.984914997314
4461.659610562193,7360.0912264310155
4461.682813506784,8611.722908492018
4461.706016572044,9450.73945038427
4461.729219757971,10012.404123392645
4461.752423064566,10337.199972942995
4461.775626491831,10269.650554983838
4461.798830039766,9832.200127247077
4461.82203370837,9185.396080926375
4461.845237497647,8420.243915782605
4461.868441407595,7854.578115356631
4461.891645438215,7470.672380939849
4461.914849589509,7561.718503088471
4461.938053861475,8185.025545030814
4461.961258254117,9089.376513502239
4461.984462767433,10031.434210355652
4462.007667401424,11286.140069289437
4462.030872156092,12263.44617890148
4462.0540770314365,12984.386915308505
4462.077282027459,13441.183128422159
4462.100487144158,13740.738713074694
4462.123692381537,13971.973476157436
4462.146897739594,13781.603211426702
4462.170103218332,13664.234522969164
4462.19330881775,13300.86668553045
4462.21651453785,12803.291973799795
4462.239720378631,12080.371985636815
4462.262926340095,11359.100222571084
4462.286132422241,10795.091965053256
4462.309338625071,10176.870793629196
4462.3325449485865,10041.058620600277
4462.355751392785,10195.918628909492
4462.3789579576705,11151.481861748216
4462.402164643242,12182.685492633298
4462.4253714495,13709.6781311287
4462.448578376446,15122.663542617915
4462.471785424079,16535.50661910121
4462.494992592401,17522.929630980485
4462.518199881412,18061.896729183194
4462.541407291114,18253.420470599893
4462.564614821506,18217.91988772231
4462.587822472589,17984.52087584693
4462.611030244365,17665.958678054332
4462.634238136832,17384.01388103275
4462.657446149992,17039.425542324363
