wave,flux
4450.003811362098,16618.314870614464
4450.026953690486,15285.886323235614
4450.050096139227,13844.984973770768
4450.073238708321,12301.356700678727
4450.096381397769,10717.21087205655
4450.119524207569,9314.933750210153
4450.142667137726,8048.051146566407
4450.165810188237,6930.581976569022
4450.188953359103,6201.6646094144535
4450.212096650326,5727.098676970228
4450.2352400619075,5207.055792487778
4450.258383593846,4697.6952672155
4450.281527246142,4400.15061843748
4450.304671018797,4227.42121325707
4450.327814911813,4260.178818430995
4450.350958925188,4792.098818553151
4450.374103058924,5708.225696086128
4450.3972473130225,6903.796798618799
4450.420391687483,8125.859514176091
4450.443536182305,9271.376772845151
4450.466680797492,10385.225654750173
4450.489825533042,10890.103416398773
4450.512970388957,11046.500595030175
4450.536115365237,11087.723440642141
4450.559260461882,10775.496001499057
4450.582405678895,10885.23845901838
4450.605551016274,11259.871103698553
4450.628696474022,11791.779770690617
4450.651842052138,12223.217876271327
4450.674987750623,12653.522444862263
4450.698133569476,12960.457705559096
4450.721279508702,13543.983259306127
4450.744425568297,14427.209031999158
4450.767571748264,15780.362991614085
4450.790718048604,17321.805009222684
4450.813864469315,18928.430962801736
4450.837011010401,20267.726611739214
4450.86015767186,21339.03699900325
4450.883304453694,21946.14259107669
4450.906451355903,22328.72829508241
4450.929598378489,22526.099809749918
4450.95274552145,22794.686270903672
4450.975892784789,22802.233154005375
4450.999040168505,22688.147318292482
4451.022187672601,22567.779805158687
4451.045335297074,22294.982951244194
4451.068483041929,22123.80662314817
4451.091630907163,21704.530080558412
4451.114778892777,21193.61545850483
4451.137926998774,20859.796994769404
4451.161075225153,20173.4424885608
4451.184223571914,19296.836790474623
4451.207372039059,18351.6391373624
4451.230520626587,17377.708330529465
4451.253669334501,16178.753703970608
4451.2768181628,14744.604073554196
4451.299967111485,13181.431901997885
4451.323116180556,11346.993379803342
4451.346265370014,9893.572619002154
4451.369414679861,8414.132419222273
4451.392564110095,7888.612342596363
4451.415713660719,7874.5417508581
4451.438863331732,8914.57049313704
4451.462013123136,10358.236890907661
4451.48516303493,12137.106533907383
4451.508313067117,14270.235462679957
4451.531463219695,16390.83886231741
4451.554613492666,18071.96089210071
4451.577763886031,19235.27696491269
4451.60091439979,20132.020123408383
4451.624065033943,20354.343325653444
4451.647215788492,20142.59905077135
4451.670366663436,19801.13662118098
4451.693517658777,19097.957447378376
4451.716668774516,18084.543423347437
4451.739820010652,16749.291953363452
4451.762971367186,15502.455712634393
4451.78612284412,14466.250283521716
4451.8092744414525,13669.263069260393
4451.832426159187,13530.282036675457
4451.855577997321,14177.452744649834
4451.878729955857,15073.02813819742
4451.901882034796,16219.905517892797
4451.925034234137,17632.162922353786
4451.948186553881,18731.621427073147
4451.97133899403,19718.63349408844
4451.994491554583,20788.98441625637
4452.017644235542,21560.96712861026
4452.040797036907,22061.892621355444
4452.063949958678,22337.553303391196
4452.087103000857,22411.915074109038
4452.1102561634425,22617.526930240612
4452.133409446437,22694.10816078794
4452.156562849841,22642.592122290964
4452.179716373655,22258.818403994217
4452.202870017878,22343.38607596755
4452.226023782513,21934.298931159912
4452.24917766756,21316.284660205976
4452.272331673018,20854.511028944315
4452.29548579889,20227.43782023273
4452.318640045174,19519.758059766915
4452.341794411874,18508.923291131927
4452.364948898987,17587.09144830963
4452.388103506516,16581.501482297645
4452.4112582344615,15657.3757012328
4452.434413082823,14763.941441657178
4452.457568051602,14147.189774606974
4452.480723140799,13627.6680890576
4452.503878350413,13422.993388374403
4452.527033680448,13050.670686528805
4452.550189130902,13206.760679143988
4452.5733447017765,13462.170148980318
4452.596500393071,14264.047672738065
4452.619656204789,15546.846061619526
4452.642812136928,16506.22054510917
4452.66596818949,17266.488664446086
4452.689124362475,17714.176342507355
4452.7122806558855,17637.853359846198
4452.735437069719,17092.678735564557
4452.7585936039795,16349.549076905534
4452.781750258665,15473.702573108958
4452.804907033777,14545.343059558314
4452.828063929317,14074.727160438199
4452.851220945285,14383.622546894165
4452.87437808168,15159.41496850678
4452.897535338506,16129.581248796998
4452.92069271576,16957.550195352134
4452.943850213445,17433.453408572208
4452.967007831562,17436.50422649288
4452.99016557011,17046.30533392255
4453.01332342909,16538.02289592815
4453.036481408502,15510.687525165707
4453.059639508349,14569.035718923818
4453.08279772863,13415.833070499328
4453.105956069345,12328.883383666614
4453.129114530496,11771.430999956845
4453.152273112083,11759.659943594597
4453.175431814107,12655.408988503275
4453.198590636567,14286.137680179125
4453.221749579466,16107.323880687123
4453.244908642802,17880.27431998329
4453.268067826579,19201.641736801408
4453.291227130795,20144.676259642507
4453.314386555451,20433.60752817337
4453.337546100549,20490.774466258474
4453.360705766087,20507.67041253124
4453.3838655520685,20172.848779601132
4453.407025458493,19605.455721681064
4453.430185485361,18823.093271206213
4453.453345632673,17887.002240019327
4453.476505900429,16884.241819137373
4453.4996662886315,16069.0427576528
4453.52282679728,15590.590632873664
4453.545987426375,15546.481007450728
4453.569148175917,16332.124849129359
4453.592309045907,17600.987556282515
4453.615470036346,18725.92659633284
4453.638631147233,19743.790271727637
4453.661792378571,20327.804129768014
4453.684953730359,20970.10145615034
4453.708115202598,21282.98456407389
4453.731276795288,21501.795146515065
4453.754438508431,21831.032548620897
4453.777600342027,21854.913217639318
4453.800762296077,22118.79083109211
4453.82392437058,22166.612836736105
4453.847086565538,21931.29942860413
4453.870248880952,21916.389016416124
4453.8934113168225,21601.888390009848
4453.916573873149,21165.413167701725
4453.939736549933,20699.441757668043
4453.962899347174,20145.358657633067
4453.986062264875,19450.76889508263
4454.009225303034,18515.54032851291
4454.032388461654,17371.818185409382
4454.055551740734,16105.772819328382
4454.078715140275,14672.364822468107
4454.101878660277,12906.571709096906
4454.125042300742,11117.712507951157
4454.14820606167,9471.40706571475
4454.171369943061,8123.82405411052
4454.194533944917,7202.199008383238
4454.2176980672375,6926.139958696747
4454.240862310024,7364.2082488776905
4454.264026673275,8436.315248883211
4454.287191156994,9789.500861589675
4454.31035576118,11126.469874736806
4454.333520485834,12136.345851314543
4454.356685330957,12420.020964312762
4454.379850296548,12030.544046894445
4454.40301538261,11212.845405641821
4454.426180589142,10095.130257158577
4454.449345916145,8899.93373877965
4454.4725113636205,7482.049137579171
4454.495676931568,6293.95601398891
4454.5188426199875,5411.6426318586455
4454.542008428882,4808.916891860661
4454.565174358249,4261.455136389136
4454.588340408092,3977.373512077427
4454.611506578411,4194.076654251967
4454.634672869205,4491.480174042585
4454.657839280476,5324.954542189139
4454.681005812225,6341.927575501085
4454.704172464451,7230.26506256947
4454.727339237156,8340.438950052221
4454.750506130341,8866.527770070883
4454.773673144005,9146.259396822235
4454.79684027815,9086.131033544392
4454.820007532776,9056.96408856915
4454.843174907884,9086.074944187689
4454.866342403473,9613.851199531076
4454.889510019546,10699.016769432252
4454.912677756102,12086.569762575213
4454.935845613144,13525.44759675745
4454.959013590669,14545.293220693991
4454.982181688681,14958.21712717405
4455.005349907178,14830.544734766874
4455.028518246162,14057.47224549735
4455.051686705633,13032.365213815448
4455.074855285593,11743.170528494958
4455.098023986041,10749.440174665462
4455.121192806979,10175.225633380747
4455.144361748406,10248.955606072746
4455.167530810323,11139.644379861369
4455.190699992732,12677.000617873091
4455.213869295633,14516.23223797042
4455.237038719026,16310.222224399076
4455.260208262912,17882.365360540607
4455.283377927292,18933.021583959428
4455.306547712166,19564.553104044113
4455.329717617535,19932.58198776131
4455.352887643399,19957.709485945972
4455.37605778976,19593.22100736434
4455.399228056617,18705.186952167263
4455.422398443972,17659.28152686753
4455.445568951825,16524.035694279493
4455.468739580177,15415.335440211516
4455.491910329028,14710.17634557947
4455.515081198378,13900.0004596194
4455.538252188229,12891.824406767266
4455.561423298582,11803.006355699132
4455.584594529436,10504.22813249957
4455.607765880793,9135.624226315202
4455.630937352652,7743.789589719984
4455.654108945016,6612.23644413888
4455.677280657883,5951.139460583007
4455.700452491255,5777.707692985245
4455.723624445134,6149.408770218449
4455.746796519518,7227.673013151652
4455.7699687144095,8935.04287436205
4455.793141029808,10911.714674995941
4455.816313465714,12866.347387090844
4455.83948602213,14756.729380795046
4455.862658699055,16395.557760241794
4455.885831496489,17566.57568850537
4455.909004414434,18386.822235366024
4455.932177452891,18861.879502992786
4455.955350611858,18885.449910681018
4455.978523891339,18622.018099300814
4456.001697291333,18306.373109226966
4456.024870811841,17854.880406615244
4456.048044452862,16710.741051585228
4456.071218214399,15417.057670534923
4456.094392096451,14069.335791420765
4456.117566099019,12418.812302104856
4456.140740222105,11054.11886803849
4456.163914465707,10268.744154951451
4456.187088829828,9959.704827098793
4456.210263314468,10379.253426395207
4456.233437919626,10987.631218290719
4456.256612645306,12113.145799558324
4456.279787491505,13016.79798711996
4456.302962458226,13878.523869151379
4456.326137545469,13865.21241229882
4456.349312753233,13830.001420608116
4456.372488081522,13051.607422859259
4456.395663530333,11808.413893244016
4456.41883909967,11013.674921395435
4456.442014789531,10280.937469202267
4456.465190599917,10437.869071183331
4456.488366530831,11431.116935851273
4456.5115425822705,12859.32207859726
4456.5347187542375,14677.814910658737
4456.557895046733,16545.977063004237
4456.581071459757,18178.673633024628
4456.604247993311,19193.226145245233
4456.627424647395,19868.078526430592
4456.650601422009,20172.903239901
4456.673778317154,20187.73321987746
4456.696955332832,19958.570377751683
4456.720132469041,19255.756148258202
4456.7433097257845,18992.581747752854
4456.766487103061,18094.21456950907
4456.789664600872,17521.78133392884
4456.8128422192185,16816.531957835912
4456.8360199581,15973.641517412563
4456.859197817518,15519.175787845688
4456.882375797473,15967.726895619488
4456.905553897966,16548.616543887983
4456.928732118997,17558.61839808028
4456.951910460566,18441.710884677057
4456.975088922674,19418.737209061048
4456.998267505323,19474.533994920403
4457.021446208513,19301.96205825684
4457.044625032244,18860.99568755829
4457.067803976516,18544.03301159755
4457.090983041332,17903.497304446082
4457.1141622266905,16733.772526169472
4457.1373415325925,15448.376780111772
4457.160520959039,13754.063486899453
4457.183700506031,12063.974406940244
4457.206880173568,10570.780636826727
4457.230059961651,9149.424294294851
4457.2532398702815,8219.53465386423
4457.27641989946,7657.267374059853
4457.299600049186,7635.839831637646
4457.322780319461,8280.193128742925
4457.345960710286,9057.718016180652
4457.36914122166,10229.293274920123
4457.392321853586,11890.469751306407
4457.415502606062,13776.647643183263
4457.43868347909,15545.52602479198
4457.461864472672,17174.295075502458
4457.485045586805,18424.03004291924
4457.508226821494,19519.119663435427
4457.5314081767365,19665.11102422991
4457.554589652534,19479.685997062887
4457.577771248887,19380.299342152346
4457.600952965797,19274.19837264454
4457.624134803263,19104.40249437171
4457.647316761288,19079.557564698312
4457.67049883987,19077.462218854485
4457.693681039011,18901.121506064224
4457.716863358712,18479.43427736032
4457.7400457989725,17670.103709962634
4457.763228359793,16752.183345154543
4457.7864110411765,15586.976832422548
4457.809593843121,14466.043272607858
4457.832776765628,13332.165701271724
4457.855959808699,12031.245117934504
4457.879142972333,10944.157354416864
4457.902326256532,10105.463378655108
4457.925509661296,9762.20145022853
4457.948693186626,9895.86489993849
4457.971876832522,10329.757589851657
4457.995060598985,10666.989335321983
4458.018244486016,10862.907341765165
4458.041428493615,10750.839227333161
4458.0646126217825,10672.899988983458
4458.08779687052,11058.09538474463
4458.110981239827,12083.93973664317
4458.134165729705,13347.767395722938
4458.157350340155,14882.092831073744
4458.180535071177,16063.056976727106
4458.203719922771,16633.13846322791
4458.226904894938,16782.778922278816
4458.2500899876795,16293.745634726882
4458.273275200995,15408.345437912747
4458.296460534886,14264.606182859845
4458.3196459893525,13388.567286029807
4458.342831564396,12811.165156847857
4458.366017260016,13134.841086234792
4458.389203076214,14047.669244771367
4458.4123890129895,15358.737023995094
4458.435575070344,16938.75072560446
4458.458761248279,18282.857513088977
4458.481947546794,19437.955257147558
4458.505133965889,20279.88734778304
4458.528320505566,20548.80003835044
4458.551507165825,20487.463875951198
4458.574693946666,20554.186811628762
4458.597880848091,20059.071007106086
4458.6210678701,19255.510787091152
4458.644255012693,18704.201386196433
4458.6674422758715,17678.796195840467
4458.690629659636,16376.545471316891
4458.713817163986,15185.146648781229
4458.737004788924,13787.055199905308
4458.76019253445,12085.304559726039
4458.783380400563,10343.881131480272
4458.8065683872655,8769.957882944116
4458.829756494558,7241.172414535751
4458.85294472244,5832.675353302079
4458.876133070914,4796.647258895523
4458.899321539979,4217.696836223158
4458.922510129635,4087.0200308465332
4458.945698839884,4174.584554175834
4458.968887670727,4554.4228422582755
4458.992076622164,5327.464706367212
4459.015265694195,6399.917909342153
4459.0384548868215,7653.194396631097
4459.061644200044,8726.22496841291
4459.084833633862,9653.204220531832
4459.108023188278,10091.242785256432
4459.131212863292,10327.371714540921
4459.154402658904,10432.345110638713
4459.177592575114,10895.701890457613
4459.200782611925,11877.560974979871
4459.223972769336,13278.165662316194
4459.247163047347,15191.726126629399
4459.27035344596,16834.586718881645
4459.293543965176,18450.736020740555
4459.316734604993,19695.438155913325
4459.339925365414,20307.362433941285
4459.363116246439,20818.298880517865
4459.386307248069,20750.744245521648
4459.409498370304,20396.06186238166
4459.432689613145,19907.38918568261
4459.455880976592,19145.541169468015
4459.479072460647,18031.071256571453
4459.502264065309,16938.18401113598
4459.52545579058,15973.570518388387
4459.5486476364595,14898.829190590737
4459.571839602949,14393.764959455439
4459.595031690048,14761.931355596545
4459.618223897759,15480.421839820061
4459.641416226081,16676.654793548933
4459.664608675014,18031.002846615786
4459.687801244561,19223.50841690602
4459.710993934721,20106.3365973559
4459.734186745496,20470.130994438692
4459.757379676885,20663.30446319082
4459.780572728889,20758.388399662734
4459.803765901509,20287.30099048405
4459.8269591947455,19672.477652435646
4459.850152608599,19064.728505618266
4459.87334614307,17943.414816555254
4459.89653979816,16604.568322144707
4459.91973357387,15248.919760237122
4459.942927470198,13673.148992747761
4459.966121487147,11839.30929759161
4459.989315624717,10147.74720017042
4460.0125098829085,8780.11969568568
4460.035704261722,7901.187468805691
4460.058898761158,7512.307359372614
4460.082093381218,7632.471017229786
4460.105288121902,8300.75782693163
4460.12848298321,9263.095373945973
4460.151677965145,10524.555191375035
4460.1748730677045,12146.921232416991
4460.198068290891,14043.304133221292
4460.221263634704,15753.217735012284
4460.244459099145,17359.292636281378
4460.267654684215,18850.047041933813
4460.290850389914,20255.094377166493
4460.314046216243,20960.400748431406
4460.337242163202,21302.328752112357
4460.360438230791,21614.01572071608
4460.383634419013,21966.45063354542
4460.406830727867,21927.52740374695
4460.430027157354,21926.64075222798
4460.453223707474,22042.38650719931
4460.476420378228,21921.229639051267
4460.499617169617,21548.61087190369
4460.522814081641,21156.447275490198
4460.5460111143,20780.876828318756
4460.569208267598,20538.631345826816
4460.592405541532,20174.58845032772
4460.615602936104,20161.1262301782
4460.638800451314,20109.80186456578
4460.661998087163,20097.401109027025
4460.685195843652,20066.280795699313
4460.708393720782,20116.379757715058
4460.731591718552,19439.02436777089
4460.754789836965,18725.685856316246
4460.777988076019,17845.483770948787
4460.801186435716,16589.99564201653
4460.824384916057,15052.933409300942
4460.847583517042,13222.359333127199
4460.870782238671,11571.411245923526
4460.893981080947,9894.753506632713
4460.917180043868,8483.465386664438
4460.940379127435,7474.388161519709
4460.963578331651,6901.054395722862
4460.986777656513,6825.907529355086
4461.009977102025,6849.616403905496
4461.033176668186,7152.790977524533
4461.056376354995,7699.565253155103
4461.079576162457,8337.082668953017
4461.102776090568,9266.5605157255
4461.125976139332,9611.262042970657
4461.149176308748,9680.944403203554
4461.172376598816,9350.805902749335
4461.195577009538,8700.149733671224
4461.218777540915,8036.136554405162
4461.241978192946,7553.482380828995
4461.265178965633,7231.388811579941
4461.2883798589755,7338.891974336964
4461.311580872974,7488.992369642146
4461.3347820076315,7563.306074899185
4461.357983262946,7452.1784171175805
4461.381184638919,7011.1738080411205
4461.404386135551,6348.213752152895
4461.4275877528435,5662.44895108982
4461.4507894907965,4946.782597107663
4461.4739913494095,4493.070075163422
4461.497193328685,4636.067588413749
4461.520395428623,5197.679337780609
4461.543597649224,6253.367254287644
4461.566799990488,7609.96306918406
4461.590002452416,9130.933963931971
4461.61320503501,10651.45731579004
4461.636407738269,11910.623697856357
4461.659610562193,12640.81407827231
4461.682813506784,12627.611396318096
4461.706016572044,12237.674794986679
4461.729219757971,11342.910766602927
4461.752423064566,9999.163428271451
4461.775626491831,8621.633529191926
4461.798830039766,7680.634965379388
4461.82203370837,7414.36311893466
4461.845237497647,7787.0231176700545
4461.868441407595,8794.500437165885
4461.891645438215,10151.739659554412
4461.914849589509,11607.432245496055
4461.938053861475,12942.166501491074
4461.961258254117,13954.425968646243
4461.984462767433,14591.673404527397
4462.007667401424,15004.10311145698
4462.030872156092,15305.08112823282
4462.0540770314365,15364.069856383156
4462.077282027459,15429.050095606617
4462.100487144158,15653.053022402537
4462.123692381537,15250.552203219968
4462.146897739594,14392.733897335414
4462.170103218332,13458.881568437313
4462.19330881775,11903.93231395078
4462.21651453785,10667.580709198559
4462.239720378631,9997.257544435122
4462.262926340095,9859.353204931795
4462.286132422241,10364.604904915966
4462.309338625071,11431.947143013042
4462.3325449485865,13169.643394264576
4462.355751392785,15328.944271578808
4462.3789579576705,17257.506885073297
4462.402164643242,18621.141424649748
4462.4253714495,19358.503910345236
4462.448578376446,19716.54074301063
4462.471785424079,19594.606112236906
4462.494992592401,19241.694597057493
4462.518199881412,19046.686069471754
4462.541407291114,18791.001035973903
4462.564614821506,18541.268764489916
4462.587822472589,18448.40514540188
4462.611030244365,18266.711472896703
4462.634238136832,17993.11706715978
4462.657446149992,17582.39183885737
