wave,flux
4450.003811362098,22233.85491960034
4450.026953690486,20968.235585485214
4450.050096139227,19246.566714714907
4450.073238708321,17631.5661462915
4450.096381397769,16088.986095308921
4450.119524207569,14567.476290632998
4450.142667137726,13275.518845682565
4450.165810188237,12069.53947053535
4450.188953359103,10917.539354938317
4450.212096650326,9988.496427288277
4450.2352400619075,9375.329857907891
4450.258383593846,8953.26228912971
4450.281527246142,8573.711148370972
4450.304671018797,8577.236839989075
4450.327814911813,9078.379133102308
4450.350958925188,9650.736479456986
4450.374103058924,10330.09665444283
4450.3972473130225,11318.858575496666
4450.420391687483,12514.312154681062
4450.443536182305,13547.947662301462
4450.466680797492,14694.015747827107
4450.489825533042,15894.373176169704
4450.512970388957,16981.472416612436
4450.536115365237,17911.945403912276
4450.559260461882,18828.218006625517
4450.582405678895,19691.474310203586
4450.605551016274,20726.888384786293
4450.628696474022,21398.07978340777
4450.651842052138,22141.398519729006
4450.674987750623,22765.350704451736
4450.698133569476,23784.265176727793
4450.721279508702,24472.449873876656
4450.744425568297,25212.012951128178
4450.767571748264,25976.41533737484
4450.790718048604,27002.621910981026
4450.813864469315,27728.506481014025
4450.837011010401,28735.352562621432
4450.86015767186,29376.052527332835
4450.883304453694,29836.198129915025
4450.906451355903,30257.062841819497
4450.929598378489,30413.446381264526
4450.95274552145,30623.69702203601
4450.975892784789,30568.506017730946
4450.999040168505,30207.256285472962
4451.022187672601,29967.12507179489
4451.045335297074,29581.44098864259
4451.068483041929,29255.276056484374
4451.091630907163,28811.935208713872
4451.114778892777,27973.382605537983
4451.137926998774,27295.782956528954
4451.161075225153,26301.746631602524
4451.184223571914,25317.605824749084
4451.207372039059,24259.440669534284
4451.230520626587,23156.601342726586
4451.253669334501,21871.23985815541
4451.2768181628,20461.327910899396
4451.299967111485,19284.980120459193
4451.323116180556,18588.216778313166
4451.346265370014,17659.608740459746
4451.369414679861,17170.72284117565
4451.392564110095,17131.68300818052
4451.415713660719,17735.197599369134
4451.438863331732,18668.006520651346
4451.462013123136,19977.885398074228
4451.48516303493,21125.05651078225
4451.508313067117,22309.775791922308
4451.531463219695,23684.75458230589
4451.554613492666,24972.616062008932
4451.577763886031,25795.204720064852
4451.60091439979,26340.902724654534
4451.624065033943,27060.4763130552
4451.647215788492,27428.366042045865
4451.670366663436,27824.383884663665
4451.693517658777,27719.24662212779
4451.716668774516,27454.215484571258
4451.739820010652,27414.951345957576
4451.762971367186,27019.550782805414
4451.78612284412,27092.822782014227
4451.8092744414525,27414.99368442972
4451.832426159187,27350.442333355026
4451.855577997321,27516.062873914092
4451.878729955857,28117.141665916668
4451.901882034796,28547.24098107012
4451.925034234137,28850.949912580912
4451.948186553881,29388.892802914186
4451.97133899403,29743.92944742336
4451.994491554583,30130.464134808226
4452.017644235542,30589.35863981086
4452.040797036907,30597.429091595364
4452.063949958678,30568.472147309738
4452.087103000857,30831.154899536632
4452.1102561634425,30995.539334134588
4452.133409446437,31050.961456904206
4452.156562849841,30782.387348048593
4452.179716373655,30674.740781410463
4452.202870017878,30391.592444673548
4452.226023782513,29947.97473555708
4452.24917766756,29843.013112575776
4452.272331673018,29533.8285933978
4452.29548579889,28946.349749917943
4452.318640045174,28689.16912311925
4452.341794411874,28418.666098764363
4452.364948898987,27573.621239083972
4452.388103506516,26943.383635398306
4452.4112582344615,26570.962800214256
4452.434413082823,25902.718372707408
4452.457568051602,25975.28809570553
4452.480723140799,25574.813409115573
4452.503878350413,25862.80994643875
4452.527033680448,25776.10336772888
4452.550189130902,26101.660992646222
4452.5733447017765,26082.954883620387
4452.596500393071,26001.36592069407
4452.619656204789,26347.576710868314
4452.642812136928,26420.25557201998
4452.66596818949,26528.294242507774
4452.689124362475,26525.28205468374
4452.7122806558855,26428.391204794058
4452.735437069719,26055.582758465658
4452.7585936039795,25961.40807510359
4452.781750258665,25821.628972088998
4452.804907033777,25377.611705177802
4452.828063929317,25465.619279194598
4452.851220945285,25656.377819549376
4452.87437808168,25626.436989937014
4452.897535338506,25731.373799161953
4452.92069271576,25876.189951890046
4452.943850213445,25954.83544316051
4452.967007831562,25720.838295040037
4452.99016557011,25301.170046604588
4453.01332342909,25061.7898651354
4453.036481408502,24625.734569594006
4453.059639508349,24087.930810156224
4453.08279772863,23817.123430483498
4453.105956069345,23511.413251480906
4453.129114530496,23402.759836835223
4453.152273112083,23801.0338493901
4453.175431814107,24476.96814467248
4453.198590636567,25175.479438960072
4453.221749579466,25957.30195028947
4453.244908642802,26915.724618923912
4453.268067826579,27467.003619368425
4453.291227130795,27793.771821055314
4453.314386555451,28058.273557574023
4453.337546100549,28496.460326776385
4453.360705766087,28488.10333907641
4453.3838655520685,28358.3396490114
4453.407025458493,28039.90385569563
4453.430185485361,28121.913563700513
4453.453345632673,28048.673895145617
4453.476505900429,27870.17033025628
4453.4996662886315,27873.81603263507
4453.52282679728,27671.829283894847
4453.545987426375,27827.060292952872
4453.569148175917,28267.477186844637
4453.592309045907,28625.109857669613
4453.615470036346,28886.080364732756
4453.638631147233,29435.58994003183
4453.661792378571,29864.30932247433
4453.684953730359,29920.722885459574
4453.708115202598,30316.997135933656
4453.731276795288,30523.98488607293
4453.754438508431,30725.388141790845
4453.777600342027,30564.053890055915
4453.800762296077,30372.215117858625
4453.82392437058,30275.125672786744
4453.847086565538,29896.995274406643
4453.870248880952,29389.23412803237
4453.8934113168225,28827.07697645664
4453.916573873149,27994.525261044437
4453.939736549933,27225.67019050173
4453.962899347174,26253.706273974884
4453.986062264875,25189.983010368847
4454.009225303034,24218.35846884487
4454.032388461654,22880.366676689773
4454.055551740734,21448.608670045352
4454.078715140275,19946.72244908529
4454.101878660277,18548.457293578536
4454.125042300742,17343.2002355488
4454.14820606167,16189.652626676092
4454.171369943061,15266.731517115595
4454.194533944917,14690.5507807105
4454.2176980672375,14700.61244174813
4454.240862310024,14657.807355771018
4454.264026673275,14991.686077713433
4454.287191156994,15392.955551232595
4454.31035576118,15568.68035965111
4454.333520485834,15621.570196423974
4454.356685330957,15436.250342129431
4454.379850296548,15031.911498565158
4454.40301538261,14371.261105899552
4454.426180589142,13553.429013464707
4454.449345916145,12634.266408176822
4454.4725113636205,11755.185126235405
4454.495676931568,10686.062572337434
4454.5188426199875,9990.857843130501
4454.542008428882,9288.916680985321
4454.565174358249,8794.966988994249
4454.588340408092,8771.529215008231
4454.611506578411,8792.81379835408
4454.634672869205,9247.41383006831
4454.657839280476,10069.515465992405
4454.681005812225,10704.216549019598
4454.704172464451,11458.273086075646
4454.727339237156,12264.102112072565
4454.750506130341,13153.833098536634
4454.773673144005,14025.653911285215
4454.79684027815,14567.342984041814
4454.820007532776,15531.187051721678
4454.843174907884,16529.975914433762
4454.866342403473,17326.81223596487
4454.889510019546,18060.152636052215
4454.912677756102,18826.59451695057
4454.935845613144,19371.90252232984
4454.959013590669,20071.926212335646
4454.982181688681,20166.47619170686
4455.005349907178,20242.047688268303
4455.028518246162,20256.927714715
4455.051686705633,20051.03398134155
4455.074855285593,19897.471492820332
4455.098023986041,19984.26832707298
4455.121192806979,20265.26552603645
4455.144361748406,20970.626920396277
4455.167530810323,21843.861677494486
4455.190699992732,22693.832299575122
4455.213869295633,23703.235276309722
4455.237038719026,24645.31601890963
4455.260208262912,25482.31667672052
4455.283377927292,26142.970596020637
4455.306547712166,26533.253502794374
4455.329717617535,26665.327262306157
4455.352887643399,26625.089146941154
4455.37605778976,26196.057096121916
4455.399228056617,25567.052988831634
4455.422398443972,24946.63203962081
4455.445568951825,24226.473050227934
4455.468739580177,23150.269098409903
4455.491910329028,21760.084891482198
4455.515081198378,20482.763008060825
4455.538252188229,19174.877416947715
4455.561423298582,17757.601955388393
4455.584594529436,16456.143015004553
4455.607765880793,15213.849717149868
4455.630937352652,14259.777398264381
4455.654108945016,13717.683736268002
4455.677280657883,13420.00049426361
4455.700452491255,13676.800801398855
4455.723624445134,14276.522659129247
4455.746796519518,15078.743426138244
4455.7699687144095,16333.562115450773
4455.793141029808,17757.359342017142
4455.816313465714,19222.613874593666
4455.83948602213,20817.518727721657
4455.862658699055,22172.812776110422
4455.885831496489,23104.98004598873
4455.909004414434,23856.783161155097
4455.932177452891,24682.29599611083
4455.955350611858,25233.198823258754
4455.978523891339,25349.67224901174
4456.001697291333,25136.174033310384
4456.024870811841,25048.308518378068
4456.048044452862,24629.652166025593
4456.071218214399,23905.36701397661
4456.094392096451,23257.922539432107
4456.117566099019,22607.634610824425
4456.140740222105,22091.635350700326
4456.163914465707,21735.07858770096
4456.187088829828,21528.741576347315
4456.210263314468,21594.92895706561
4456.233437919626,21585.74361095929
4456.256612645306,21678.845920449123
4456.279787491505,21580.938514758844
4456.302962458226,21432.244229903044
4456.326137545469,21375.70212530934
4456.349312753233,20812.096342166307
4456.372488081522,20584.84940811117
4456.395663530333,20070.564745102674
4456.41883909967,19852.252130437384
4456.442014789531,20160.368222050274
4456.465190599917,20536.757133371113
4456.488366530831,21413.386826170088
4456.5115425822705,22320.900407365996
4456.5347187542375,23259.61169690313
4456.557895046733,24129.26012710206
4456.581071459757,25202.432333334134
4456.604247993311,25810.82120429028
4456.627424647395,26637.30525901501
4456.650601422009,27374.685630517164
4456.673778317154,27757.127984147803
4456.696955332832,27513.822866080744
4456.720132469041,27891.971409240483
4456.7433097257845,27748.339248570373
4456.766487103061,27647.32832499868
4456.789664600872,27460.35588356288
4456.8128422192185,27203.508771222732
4456.8360199581,27085.297119540097
4456.859197817518,26917.848856730867
4456.882375797473,27215.97516412778
4456.905553897966,27455.533630326536
4456.928732118997,27205.85599857558
4456.951910460566,27164.069491705468
4456.975088922674,27340.16955774773
4456.998267505323,26829.089848670603
4457.021446208513,26360.97807207879
4457.044625032244,25747.672795459937
4457.067803976516,25042.063536908852
4457.090983041332,24001.744942106725
4457.1141622266905,23039.726574090393
4457.1373415325925,22046.361136150437
4457.160520959039,20658.422905150856
4457.183700506031,19597.30310060236
4457.206880173568,18612.342980402776
4457.230059961651,17917.217949828002
4457.2532398702815,17755.486872313686
4457.27641989946,17889.27908040286
4457.299600049186,18235.423361839497
4457.322780319461,18936.295933456702
4457.345960710286,19829.315326820604
4457.36914122166,20834.898917170238
4457.392321853586,21914.095588082706
4457.415502606062,23162.318134638543
4457.43868347909,24382.062874292067
4457.461864472672,25554.631333422152
4457.485045586805,26360.952710553018
4457.508226821494,26857.655010681476
4457.5314081767365,27186.242117165166
4457.554589652534,27508.999112061094
4457.577771248887,27830.644868618125
4457.600952965797,27741.13153866916
4457.624134803263,27619.591410007466
4457.647316761288,27628.85805784473
4457.67049883987,27343.10501856165
4457.693681039011,26785.059881923382
4457.716863358712,26031.94569171759
4457.7400457989725,25001.955336101837
4457.763228359793,24170.842890579144
4457.7864110411765,23377.529683923833
4457.809593843121,22399.268020144347
4457.832776765628,21482.647076625733
4457.855959808699,20487.895942300867
4457.879142972333,19795.283389372253
4457.902326256532,19421.356058092468
4457.925509661296,19291.138142813503
4457.948693186626,19135.091439565207
4457.971876832522,19193.656601246228
4457.995060598985,19373.891969650547
4458.018244486016,19546.79999496659
4458.041428493615,19887.896488493196
4458.0646126217825,20452.192806257444
4458.08779687052,21131.455213056815
4458.110981239827,21894.199964256193
4458.134165729705,22545.874300563115
4458.157350340155,23153.579008527893
4458.180535071177,23789.38863485599
4458.203719922771,24084.730861999484
4458.226904894938,24382.419071119606
4458.2500899876795,24524.632363030763
4458.273275200995,24675.39053642367
4458.296460534886,24737.839095789484
4458.3196459893525,24666.307317090745
4458.342831564396,24701.918555639284
4458.366017260016,25180.052888671853
4458.389203076214,25744.16877229032
4458.4123890129895,26197.143249558747
4458.435575070344,26711.288955126358
4458.458761248279,27186.07683175578
4458.481947546794,27383.783889124054
4458.505133965889,27445.868990455474
4458.528320505566,27577.02083391435
4458.551507165825,27276.963894487802
4458.574693946666,26808.568322682713
4458.597880848091,26163.161710922283
4458.6210678701,25141.55236146194
4458.644255012693,23998.587442906137
4458.6674422758715,22763.383971710315
4458.690629659636,21552.71038075979
4458.713817163986,19972.981992628705
4458.737004788924,18352.375880412776
4458.76019253445,16989.021444482325
4458.783380400563,15348.791869569577
4458.8065683872655,13693.454945800408
4458.829756494558,12419.301475997143
4458.85294472244,11309.460321614497
4458.876133070914,10534.93953735679
4458.899321539979,10253.236896019114
4458.922510129635,10244.325799007689
4458.945698839884,10423.10081722875
4458.968887670727,10822.235846502055
4458.992076622164,11642.712460644949
4459.015265694195,12512.89187328772
4459.0384548868215,13388.57070465811
4459.061644200044,14403.019983697806
4459.084833633862,15526.04894446459
4459.108023188278,16561.478973744677
4459.131212863292,17498.62675142456
4459.154402658904,18579.93933469034
4459.177592575114,19751.037625362245
4459.200782611925,21038.452281978887
4459.223972769336,22374.649228035003
4459.247163047347,23673.81046900958
4459.27035344596,24863.061560832106
4459.293543965176,25919.59847830604
4459.316734604993,26815.034625119904
4459.339925365414,27509.56952884653
4459.363116246439,28082.802720944117
4459.386307248069,28279.23762673219
4459.409498370304,28125.51517880366
4459.432689613145,28082.35926345832
4459.455880976592,28133.431912579155
4459.479072460647,27872.56192495705
4459.502264065309,27494.43431413232
4459.52545579058,27488.197764401357
4459.5486476364595,27343.921632324964
4459.571839602949,27168.63125372277
4459.595031690048,27543.64812002752
4459.618223897759,27882.1958563866
4459.641416226081,28156.68623690169
4459.664608675014,28485.20241172698
4459.687801244561,28800.070570381427
4459.710993934721,28739.101281925366
4459.734186745496,28517.217595646347
4459.757379676885,28255.457516466373
4459.780572728889,27733.17595205106
4459.803765901509,27220.3208417885
4459.8269591947455,26680.74968613223
4459.850152608599,25923.05435731238
4459.87334614307,24911.48873709023
4459.89653979816,23822.402800630454
4459.91973357387,22615.146644226523
4459.942927470198,21628.568542841054
4459.966121487147,20608.628618355706
4459.989315624717,19592.797401682943
4460.0125098829085,18971.480372254147
4460.035704261722,18557.942230036126
4460.058898761158,18795.83369845723
4460.082093381218,19207.969499403018
4460.105288121902,19992.34811603969
4460.12848298321,21039.78768378271
4460.151677965145,22247.460009995826
4460.1748730677045,23571.05448671489
4460.198068290891,24583.13286830891
4460.221263634704,25721.315164801264
4460.244459099145,26858.62705019093
4460.267654684215,27666.17440840561
4460.290850389914,28525.84136526994
4460.314046216243,28996.45666720518
4460.337242163202,29524.39418098232
4460.360438230791,29997.35312209616
4460.383634419013,30259.893987707925
4460.406830727867,30126.378793141954
4460.430027157354,30242.04662931857
4460.453223707474,30435.909257072028
4460.476420378228,30461.611383568546
4460.499617169617,30352.44566664613
4460.522814081641,30092.26432127432
4460.5460111143,30106.627263177714
4460.569208267598,29654.68939638889
4460.592405541532,29258.18091326882
4460.615602936104,29229.865369654253
4460.638800451314,28738.301754136068
4460.661998087163,28350.083281548308
4460.685195843652,27701.63353189164
4460.708393720782,27262.296551835636
4460.731591718552,26428.390228055974
4460.754789836965,25510.600420352606
4460.777988076019,24457.092119445384
4460.801186435716,23054.99388381796
4460.824384916057,21799.02621044683
4460.847583517042,20762.74221873296
4460.870782238671,19314.778903760405
4460.893981080947,18144.747870365878
4460.917180043868,17276.300013444772
4460.940379127435,16480.280285199377
4460.963578331651,15778.780596098033
4460.986777656513,15325.999149835858
4461.009977102025,15422.914786743975
4461.033176668186,15336.649808205286
4461.056376354995,15103.163508590758
4461.079576162457,15116.588902814932
4461.102776090568,15439.53147893217
4461.125976139332,15115.40219479851
4461.149176308748,14893.81394977958
4461.172376598816,14412.799224093458
4461.195577009538,13987.747368559783
4461.218777540915,13544.42925232753
4461.241978192946,13268.39240778087
4461.265178965633,13022.541947861278
4461.2883798589755,12806.720455256978
4461.311580872974,12477.886973013552
4461.3347820076315,12229.788220188275
4461.357983262946,11979.335675425129
4461.381184638919,11405.391896875099
4461.404386135551,11241.887315389244
4461.4275877528435,10976.271334322928
4461.4507894907965,10878.31386925726
4461.4739913494095,11044.316183085191
4461.497193328685,11391.150307421227
4461.520395428623,12030.220065100944
4461.543597649224,12909.682376909901
4461.566799990488,13612.427502623013
4461.590002452416,14699.539358587614
4461.61320503501,15349.010343383834
4461.636407738269,15852.388736531379
4461.659610562193,16382.279911730104
4461.682813506784,16430.32640593448
4461.706016572044,16267.437073714222
4461.729219757971,15973.106540622768
4461.752423064566,15817.295387985985
4461.775626491831,15794.749446977414
4461.798830039766,15812.88955978662
4461.82203370837,16081.119386303599
4461.845237497647,16778.951321324163
4461.868441407595,17914.220316197046
4461.891645438215,18872.757035432882
4461.914849589509,20143.76022280247
4461.938053861475,21158.692698349565
4461.961258254117,21785.821219109675
4461.984462767433,22579.53902998506
4462.007667401424,23299.12896796902
4462.030872156092,23576.745852300486
4462.0540770314365,23643.17189134514
4462.077282027459,23567.586814880244
4462.100487144158,23506.390351397895
4462.123692381537,23392.55512879843
4462.146897739594,22911.122923738327
4462.170103218332,22328.037428631458
4462.19330881775,21742.37639338815
4462.21651453785,21330.28944769596
4462.239720378631,21160.36721376238
4462.262926340095,21490.908640238846
4462.286132422241,21938.590510573587
4462.309338625071,22597.73432880257
4462.3325449485865,23643.591881363267
4462.355751392785,24448.750431440152
4462.3789579576705,25415.21497985685
4462.402164643242,26332.47771268487
4462.4253714495,26880.789985249983
4462.448578376446,27391.007941702166
4462.471785424079,27567.033590370283
4462.494992592401,27548.476256502185
4462.518199881412,27553.85941652357
4462.541407291114,27640.578300449266
4462.564614821506,27425.96378216403
4462.587822472589,27211.75543945088
4462.611030244365,26967.609743717363
