wave,flux
5000.025812696027,42496.1416115776
5000.051815424163,41223.447449598505
5000.0778182875265,40523.81823695221
5000.103821286119,39445.67999864604
5000.12982441994,38877.38417661112
5000.155827688991,38809.74881900415
5000.181831093272,39015.70140603904
5000.207834632784,39480.41503944207
5000.2338383075285,40360.19816540378
5000.259842117506,40907.55684870206
5000.285846062716,41457.95559963487
5000.311850143161,42499.86370828761
5000.33785435884,43240.7464555203
5000.363858709754,43831.327604221624
5000.389863195905,44720.239740074154
5000.415867817292,45439.31057136632
5000.441872573917,45872.87750112847
5000.4678774657805,46755.22706699242
5000.493882492882,47174.68836910011
5000.519887655224,47602.93680306762
5000.545892952806,47779.42779658767
5000.571898385629,47863.24304121189
5000.597903953694,47702.24383659788
5000.623909657001,47522.36660925066
5000.649915495552,47381.005928427534
5000.675921469346,46773.59516201037
5000.701927578384,45883.814598055025
5000.727933822669,44978.117980658186
5000.7539402021985,43653.02199491255
5000.779946716975,42073.181591365115
5000.805953366999,40278.25178553681
5000.831960152272,38649.36585305217
5000.857967072792,37533.24906344443
5000.883974128563,36851.20717962294
5000.9099813195835,36650.55838991931
5000.935988645855,37306.13867818021
5000.961996107378,37882.83610297651
5000.988003704153,38429.6749324106
5001.014011436181,38717.73075464443
5001.040019303464,38944.847726817774
5001.066027306,38577.13702436934
5001.092035443791,37509.33078231033
5001.118043716839,36221.54386169669
5001.1440521251425,34327.301485719814
5001.170060668704,32040.06661066936
5001.196069347523,30110.359670881866
5001.222078161601,28193.786963742914
5001.248087110937,26846.61937522066
5001.274096195534,26174.52744948107
5001.300105415392,26686.006882694102
5001.326114770512,27689.12680616309
5001.352124260892,29536.586876248984
5001.3781338865365,31751.257728954406
5001.4041436474445,34303.36970342915
5001.430153543616,36783.342111414946
5001.456163575053,38927.39632758042
5001.482173741756,40985.97949253291
5001.508184043724,43086.96930500034
5001.534194480961,44852.860459281386
5001.560205053464,46079.671302556475
5001.586215761236,47046.683360518386
5001.612226604278,47887.10434028321
5001.638237582589,48802.56548377112
5001.664248696171,49036.05324571556
5001.690259945024,49543.173668012394
5001.716271329149,49971.639954614
5001.742282848547,49918.65608474988
5001.768294503218,49906.982039019145
5001.794306293164,49629.99514617398
5001.820318218383,49377.208663505065
5001.84633027888,49294.135227384504
5001.872342474651,49182.000378455756
5001.8983548056995,48873.24797117027
5001.924367272026,48596.92839358406
5001.9503798736305,48271.264464095846
5001.976392610514,47576.18189791482
5002.002405482678,46957.020523950436
5002.028418490122,46332.97766379341
5002.054431632847,44844.326001284724
5002.080444910854,43396.67545680283
5002.106458324142,41697.246809736476
5002.1324718727155,39929.0961513583
5002.158485556572,39041.99543082376
5002.184499375713,38413.414848622655
5002.210513330139,38254.13407403608
5002.236527419852,38834.41251651735
5002.262541644852,39919.76363355859
5002.288556005138,41141.24148231085
5002.314570500714,42380.23214222848
5002.340585131577,43815.13913873032
5002.36659989773,45123.43701531303
5002.392614799174,46080.86747428118
5002.418629835909,47181.95618387287
5002.444645007936,48220.50327174357
5002.4706603152545,48842.71086034182
5002.496675757866,49293.27514113186
5002.522691335772,49673.030313816875
5002.548707048972,49836.56808898715
5002.574722897468,50313.96713711418
5002.600738881259,50581.48011999171
5002.626755000347,50354.290503395714
5002.652771254732,50313.124118660715
5002.678787644415,50233.72157096956
5002.704804169397,50096.60656394258
5002.730820829678,49945.5072179618
5002.75683762526,49781.11611227349
5002.782854556142,49931.30440118745
5002.8088716223265,50153.3972194411
5002.834888823812,49944.60812481767
5002.860906160601,49839.38967858229
5002.886923632695,50092.56536077921
5002.912941240092,50001.8042301202
5002.938958982793,49781.17595429802
5002.9649768608015,50057.249336652945
5002.990994874116,49827.75989835474
5003.017013022737,49442.93957159577
5003.043031306666,49056.034298292936
5003.069049725905,48702.118307352925
5003.095068280452,48389.68236953445
5003.121086970309,47988.03002064255
5003.147105795477,47921.03429981608
5003.173124755956,47805.68324298417
5003.199143851748,47501.346399030685
5003.225163082852,47536.23772189704
5003.251182449269,47630.87371617202
5003.277201951001,47300.06626016543
5003.3032215880485,46753.968674784504
5003.32924136041,46060.46259572231
5003.35526126809,45393.65668268621
5003.381281311085,44876.499505537235
5003.407301489398,44165.39010939198
5003.433321803031,43547.41152382547
5003.459342251982,43324.83602858954
5003.4853628362525,43319.212085667095
5003.511383555844,43574.82850288966
5003.537404410757,43653.51767106267
5003.563425400991,44133.87168881937
5003.589446526548,44645.59291796802
5003.615467787429,45211.020454932856
5003.641489183634,45865.31810687611
5003.667510715163,46275.34754626912
5003.693532382018,46712.07362627208
5003.719554184199,47188.73826296854
5003.745576121707,47559.51801944159
5003.771598194542,48196.028196321124
5003.797620402706,48500.08308566918
5003.823642746199,48812.50022610634
5003.849665225021,49107.310094493994
5003.875687839174,49237.61555229304
5003.901710588658,49586.490394209126
5003.927733473473,49599.65296032032
5003.953756493622,50054.93476096432
5003.979779649103,50070.883659958236
5004.005802939919,50206.44271529635
5004.031826366068,50396.37107933119
5004.057849927553,50438.76757250807
5004.083873624375,50330.26246426507
5004.109897456533,50416.2722518044
5004.135921424028,50277.65025751761
5004.161945526862,49849.49541253899
5004.187969765035,49725.72856455846
5004.213994138547,49735.02219147236
5004.240018647399,49625.88737075846
5004.266043291592,48907.76830460878
5004.292068071127,48631.28542515922
5004.318092986004,48106.79789079371
5004.344118036223,47665.076763495505
5004.370143221788,46884.614812660446
5004.396168542696,45436.74152047015
5004.422193998949,43700.025602511436
5004.448219590549,42006.54891177081
5004.474245317495,40071.033608104524
5004.500271179789,38079.15238539169
5004.52629717743,36466.83304499791
5004.5523233104195,35205.962085487576
5004.578349578759,34707.827195288526
5004.604375982449,35211.58652725506
5004.630402521489,36208.043939804134
5004.656429195881,37533.12674989945
5004.682456005625,39150.165650024064
5004.708482950721,40623.40115386469
5004.734510031172,41930.975531114935
5004.760537246977,43171.96804726974
5004.7865645981365,44569.42186332914
5004.812592084652,44901.95790827655
5004.838619706525,44940.84973285974
5004.8646474637535,44889.07634999502
5004.890675356341,44017.790074395925
5004.916703384286,43017.56426464906
5004.942731547591,41432.97639032484
5004.968759846256,39298.864691203744
5004.994788280281,36825.07213960377
5005.020816849668,34432.96677870883
5005.046845554417,31993.051054943757
5005.072874394528,29857.046779558368
5005.098903370003,28409.89310893195
5005.124932480842,27849.676423914105
5005.150961727047,28186.083696426136
5005.176991108617,28951.13952597053
5005.203020625552,30228.253495252615
5005.229050277856,31459.795902753485
5005.255080065526,32688.769217435543
5005.281109988566,33319.151497460254
5005.3071400469735,33506.28467984351
5005.333170240751,32957.77942805333
5005.3592005699,32146.978050165206
5005.38523103442,30729.210826715364
5005.411261634312,29023.23600632956
5005.4372923695755,27063.904670082014
5005.463323240213,25336.658323912703
5005.489354246225,24190.756952745487
5005.515385387611,23881.908328515394
5005.541416664373,24196.514342316917
5005.567448076511,25360.69557299519
5005.593479624025,27406.326656994355
5005.619511306918,29768.972268673304
5005.645543125189,32353.321528851506
5005.671575078838,34869.82624417063
5005.697607167867,37105.87041091802
5005.723639392277,39649.079725451214
5005.749671752068,41701.358719045136
5005.77570424724,43509.20181631708
5005.8017368777955,45084.501550742156
5005.8277696437335,46016.84919180918
5005.853802545055,47104.25115909886
5005.879835581762,48000.129271166275
5005.905868753854,48877.09923799532
5005.931902061331,49165.5700801376
5005.957935504196,49443.59270627482
5005.983969082448,49448.81052468898
5006.010002796088,49401.40773049662
5006.036036645117,49357.93657483273
5006.062070629536,49297.58170304843
5006.088104749344,49337.04699977536
5006.114139004544,49286.07939181057
5006.140173395135,48999.13985867397
5006.166207921118,48813.6474555873
5006.192242582495,48925.68194608218
5006.218277379266,48887.75804727741
5006.244312311431,48653.25322989994
5006.270347378991,48461.525420240025
5006.296382581946,47926.84304733351
5006.322417920299,47739.92759934744
5006.348453394048,47479.215946249635
5006.374489003196,46581.295211567915
5006.400524747743,45824.361782795444
5006.426560627688,44518.56880018653
5006.452596643034,43028.085746453035
5006.47863279378,40923.21086342656
5006.504669079928,38467.39122367507
5006.530705501478,35935.4514068415
5006.556742058431,33241.02752532186
5006.582778750788,30675.303578148814
5006.608815578549,28734.45699156997
5006.634852541715,27341.996845136906
5006.660889640287,26842.42343194491
5006.686926874265,27520.320193771215
5006.71296424365,28739.808509976152
5006.739001748444,30676.24321454261
5006.765039388645,33080.059566856755
5006.791077164256,35277.319710870615
5006.817115075277,37753.225162200084
5006.843153121708,39963.08807149944
5006.869191303552,42195.396947105924
5006.895229620806,43797.90926824848
5006.921268073474,45181.44563720549
5006.947306661555,46300.806964641015
5006.97334538505,47122.0768658245
5006.999384243961,47647.09616976423
5007.025423238286,47904.360882337045
5007.051462368028,47840.06700293349
5007.077501633187,47904.30400701404
5007.103541033764,47802.73898081038
5007.129580569759,47691.65493869129
5007.155620241173,47983.78979643446
5007.181660048007,48126.62255079309
5007.207699990262,48391.15156322171
5007.233740067937,48846.958734237654
5007.259780281035,49018.51441146008
5007.285820629555,49823.56310580709
5007.311861113499,50098.359460492844
5007.337901732866,50161.5765493193
5007.363942487658,50654.97314442915
5007.389983377876,50378.417694119904
5007.41602440352,50723.92696241916
5007.442065564591,50769.88132157286
5007.468106861089,50862.406611899656
5007.494148293015,50861.03627930142
5007.520189860371,51108.57349765035
5007.546231563156,51172.66018233812
5007.572273401372,51057.162920139854
5007.598315375018,50911.94362461887
5007.624357484096,50930.99053370983
5007.650399728607,51131.64911507161
5007.676442108551,51310.20664307907
5007.702484623929,51276.62449322398
5007.728527274741,51321.92757237473
5007.754570060989,51588.200918135095
5007.780612982673,51507.59106118141
5007.806656039793,51200.154549548824
5007.832699232351,51314.55949092518
5007.858742560347,51307.60836112597
5007.884786023782,51011.38219658863
5007.910829622656,51012.23217031989
5007.936873356971,50705.85178589959
5007.962917226726,50504.33590002331
5007.988961231923,50535.871355312476
5008.015005372563,49975.84713561111
5008.041049648646,50168.0624842432
5008.067094060171,49926.654574727545
5008.0931386071425,50093.83947056128
5008.119183289558,50344.576164364065
5008.14522810742,50154.04209944964
5008.171273060728,50155.18539260651
5008.197318149483,50461.18175461471
5008.223363373687,50839.75553755072
5008.249408733339,50759.550146399255
5008.27545422844,50708.38458990769
5008.301499858992,50783.14941556398
5008.327545624995,50719.61047790803
5008.353591526448,50651.17495807016
5008.379637563355,50665.72712028229
5008.405683735714,50962.31990060932
5008.431730043527,50922.46490696738
5008.457776486794,50973.110651079376
5008.483823065515,51134.99464930819
5008.509869779693,51179.74768831409
5008.535916629327,51042.71332286148
5008.561963614418,51170.71846621828
5008.588010734968,50981.18716667258
5008.614057990975,51218.95435641564
5008.640105382442,51332.783993431156
5008.666152909369,51532.095559778965
5008.692200571756,51466.5325968238
5008.718248369605,51245.146974518706
5008.744296302916,51112.90836117324
5008.77034437169,51043.77761578978
5008.796392575927,51102.82947229587
5008.822440915628,51102.86638887942
5008.848489390794,50807.31604682931
5008.874538001426,50746.00294908484
5008.900586747524,50832.01055347645
5008.926635629089,50691.76909007325
5008.952684646122,50612.19298385006
5008.978733798623,50501.550388532916
5009.004783086593,50379.20517042008
5009.030832510033,50271.01597832887
5009.056882068944,49903.72433996695
5009.082931763326,50121.04606031716
5009.108981593179,50308.65825244364
5009.135031558506,50058.18136333692
5009.161081659306,49839.64882893814
5009.187131895579,49514.513892880226
5009.213182267327,49664.01851821554
5009.239232774552,49527.066275372286
5009.265283417251,49079.32574328423
5009.291334195428,48416.389393780635
5009.317385109083,47941.480109284814
5009.343436158216,46924.03649335146
5009.369487342828,45926.552503596184
5009.395538662919,44745.90220862694
5009.421590118491,43492.51351415289
5009.447641709544,42273.43196835135
5009.473693436078,40835.354671315
5009.499745298095,39051.72977519094
5009.525797295596,37160.778489662516
5009.55184942858,35593.31695277097
5009.577901697049,34501.01121153573
5009.603954101003,33892.30264275152
5009.630006640443,34103.00540293153
5009.65605931537,35173.71618195521
5009.682112125784,36531.73159942542
5009.708165071686,38035.11495324388
5009.7342181530785,39674.74784970768
5009.760271369959,41691.78614989541
5009.78632472233,43429.76273543542
5009.812378210192,45076.504219020935
5009.838431833546,46222.251811176524
5009.864485592391,47357.99709250415
5009.890539486731,48397.131361181186
5009.916593516564,49285.14584296856
5009.942647681891,49947.87577710318
5009.968701982713,50337.49548156389
5009.994756419032,50616.33934692796
5010.020810990847,50940.592281653124
5010.046865698159,50923.02241504418
5010.072920540969,50780.62269403156
5010.098975519279,50870.62782654338
5010.125030633087,50600.8191473527
5010.151085882395,50103.01484975564
5010.177141267204,49558.41769272069
5010.2031967875155,48696.91563976875
5010.229252443328,47704.39111984524
5010.255308234644,46764.111100771166
5010.281364161464,45840.847343834284
5010.307420223788,44951.08520506612
5010.333476421617,44484.75714046144
5010.359532754951,44519.079721827016
5010.3855892237925,44835.69516658456
5010.4116458281405,45664.31528823387
5010.437702567997,46315.01782266561
5010.463759443362,47306.34255313907
5010.489816454236,48071.62157540833
5010.51587360062,48685.17667811093
5010.541930882514,48965.72481738286
5010.56798829992,49991.9472874956
5010.5940458528385,50080.099756422525
5010.62010354127,50523.67024912699
5010.646161365214,50573.20056336562
5010.672219324672,50776.25277706633
5010.698277419646,51142.82324765243
5010.724335650135,51313.250774595275
5010.7503940161405,51223.411046313195
5010.7764525176635,51345.2073908505
5010.802511154703,51334.38497545684
5010.828569927262,51200.33014079123
5010.85462883534,51242.89507921197
5010.880687878937,51229.062731329446
5010.906747058056,51152.14008906988
5010.932806372695,50863.888424611025
5010.958865822856,50558.66887683413
5010.98492540854,50505.63264575547
5011.0109851297475,50060.03205506958
5011.0370449864795,49500.44162141598
5011.063104978735,48904.01824428654
5011.089165106517,48352.70166731808
5011.115225369825,47589.812936549286
5011.14128576866,47197.45887911779
5011.167346303022,46358.0404025367
5011.193406972913,45300.30123204784
5011.219467778333,44724.77904590018
5011.2455287192815,43122.93115771552
5011.271589795761,41530.633820530085
5011.297651007772,39331.06043619534
5011.323712355315,37031.47193584491
5011.34977383839,34435.77710497538
5011.375835456999,31570.242775450377
5011.401897211142,28922.741457274875
5011.427959100819,26572.440247946513
5011.454021126031,24870.294425061515
5011.4800832867795,24033.721476627514
5011.506145583065,23921.15679446429
5011.532208014888,24746.840677929256
5011.558270582248,26229.894270345914
5011.584333285148,28340.455170166715
5011.610396123588,30849.33735383022
5011.636459097567,33117.16508305502
5011.662522207088,34947.57706598028
5011.68858545215,36537.769912896496
5011.714648832754,37880.874408816024
5011.740712348902,38433.704420865935
5011.766776000594,38708.79122419355
5011.79283978783,39030.01994732864
5011.818903710611,39134.10098396929
5011.844967768939,39490.48643393913
5011.871031962813,40192.71417371541
5011.897096292234,41399.462899929145
5011.923160757203,42016.354072613074
5011.949225357721,42619.34056889967
5011.975290093788,43197.457846534475
5012.001354965406,43794.29696241965
5012.027419972574,43896.24164071632
5012.053485115294,44272.1182925211
5012.079550393566,44357.6801679268
5012.105615807392,44896.5517875553
5012.13168135677,45671.362463094956
5012.157747041703,46187.42498736742
5012.183812862192,46665.439112456625
5012.209878818236,47404.907421557844
5012.235944909837,48121.47146686375
5012.262011136994,48573.21291356728
5012.28807749971,49003.87198224235
5012.3141439979845,49233.15854632707
5012.340210631818,49536.88636974724
5012.366277401212,49834.22409111283
5012.392344306166,49899.53333197635
5012.418411346682,49909.08796413288
5012.44447852276,49876.153048059496
5012.470545834401,49633.66385561104
5012.496613281605,49204.89182292142
5012.522680864374,48806.059402706174
5012.548748582707,48024.10383401222
5012.574816436606,47072.100881966326
5012.600884426071,45676.48562645262
5012.626952551104,44000.823597019036
5012.653020811705,42758.61537112042
5012.679089207873,41207.44223675631
5012.705157739611,40204.30161241752
5012.73122640692,39862.33665343401
5012.757295209798,39668.80801189524
5012.7833641482475,39809.53235083654
5012.80943322227,40010.63632915429
5012.835502431864,40212.277489517386
5012.861571777033,39941.8121970007
5012.887641257775,39225.4572424883
5012.9137108740915,38354.086730073956
5012.939780625984,36886.41838287413
5012.965850513452,35129.882768085605
5012.991920536498,32866.52296595483
5013.017990695121,30740.612025084676
5013.044060989323,28956.23865465286
5013.070131419104,27640.13620109886
5013.096201984464,27253.691070511388
5013.122272685405,27931.212689135024
5013.148343521927,29408.985439503893
5013.17441449403,31240.03331467627
5013.200485601717,33185.369152871375
5013.226556844987,35322.53585037938
5013.2526282238405,37363.90609425249
5013.278699738279,39058.90096843846
5013.304771388303,40747.228674029204
5013.330843173913,42456.72811608152
5013.35691509511,43648.770561560734
5013.382987151894,44229.40754994012
5013.409059344267,44482.260206299536
5013.435131672228,44336.12136092715
5013.46120413578,43880.874293056244
5013.487276734921,42499.32679994639
5013.513349469653,41039.432690362766
5013.539422339977,39280.41763745529
5013.565495345894,37100.7458344036
5013.5915684874035,35091.67674468081
5013.617641764507,33734.11089037562
5013.643715177206,32755.55951222417
5013.6697887254995,32860.845115676326
5013.695862409389,33631.84764122262
5013.721936228875,34637.21411140408
5013.748010183958,36643.30994388419
5013.77408427464,38555.7141359243
5013.800158500921,40206.41592265219
5013.826232862801,42083.762314339656
5013.852307360281,43609.59554813906
5013.8783819933615,44871.07419498646
5013.904456762045,45897.75286344875
5013.930531666329,46758.47869104558
5013.956606706218,47407.9071682903
5013.982681881709,47790.91959341233
5014.008757192805,47946.86709733128
5014.034832639507,47712.19493326862
5014.060908221814,47165.47517114437
5014.086983939728,46665.92543394269
5014.113059793249,45895.294038510576
5014.139135782378,44826.08762703301
5014.165211907116,43091.53835573142
5014.1912881674625,40941.09194038121
5014.21736456342,38780.95149912904
5014.243441094988,36357.186264771604
5014.269517762167,34071.94168437835
5014.295594564959,31833.148689830563
5014.321671503363,30396.22544302823
5014.347748577381,29900.50926053277
