wave,flux
4450.003811362098,15831.230910237304
4450.026953690486,17759.212666608444
4450.050096139227,20276.181215616107
4450.073238708321,22647.7802049167
4450.096381397769,25097.64214986822
4450.119524207569,27214.257824876855
4450.142667137726,28845.365118537637
4450.165810188237,30506.83409614818
4450.188953359103,32023.56043746424
4450.212096650326,33718.679370126054
4450.2352400619075,35277.90956924835
4450.258383593846,36303.08174560423
4450.281527246142,37346.05149346156
4450.304671018797,38244.98691575266
4450.327814911813,39184.10605626188
4450.350958925188,40208.04026158599
4450.374103058924,41357.847152293114
4450.3972473130225,42665.478233816975
4450.420391687483,44129.058727731404
4450.443536182305,45661.44869384152
4450.466680797492,47066.57577236907
4450.489825533042,48176.05392269016
4450.512970388957,48872.813625555544
4450.536115365237,49569.63549905236
4450.559260461882,50453.50854378017
4450.582405678895,51026.89537053259
4450.605551016274,51073.274250548755
4450.628696474022,51397.28220942994
4450.651842052138,51624.35033141901
4450.674987750623,51629.14151406106
4450.698133569476,51446.40935828977
4450.721279508702,51206.23524934743
4450.744425568297,50385.89276650233
4450.767571748264,49998.47075172104
4450.790718048604,49171.91884132371
4450.813864469315,48207.5232451505
4450.837011010401,47044.02441394372
4450.86015767186,45477.09943631374
4450.883304453694,43596.301763076444
4450.906451355903,41144.52109852345
4450.929598378489,38825.935809651804
4450.95274552145,35790.08240701396
4450.975892784789,32824.56715420192
4450.999040168505,30866.37692859392
4451.022187672601,29566.90964481222
4451.045335297074,29246.489081426836
4451.068483041929,30143.298274674242
4451.091630907163,31606.78837048405
4451.114778892777,33603.086290987914
4451.137926998774,35898.900544250806
4451.161075225153,38260.78390899592
4451.184223571914,40539.84855161812
4451.207372039059,42544.80208574009
4451.230520626587,44497.59677985418
4451.253669334501,46065.23220587039
4451.2768181628,47058.57698605592
4451.299967111485,47775.27019284641
4451.323116180556,48010.35629565698
4451.346265370014,47947.170568227666
4451.369414679861,47650.811555468936
4451.392564110095,47243.13953175711
4451.415713660719,46723.50280456166
4451.438863331732,45797.77340175978
4451.462013123136,45909.41960582318
4451.48516303493,45713.742300547165
4451.508313067117,45759.4068227372
4451.531463219695,46288.81137350834
4451.554613492666,46575.463602337055
4451.577763886031,47476.82622769289
4451.60091439979,48199.98728552928
4451.624065033943,48440.40065471775
4451.647215788492,49436.07597269899
4451.670366663436,49723.99832233459
4451.693517658777,50301.68256195662
4451.716668774516,51141.15730588943
4451.739820010652,51378.499430997734
4451.762971367186,51558.63773505828
4451.78612284412,52079.35107792835
4451.8092744414525,52097.5022803157
4451.832426159187,51769.29140065663
4451.855577997321,51831.56635578964
4451.878729955857,51603.654374516336
4451.901882034796,51280.91933937628
4451.925034234137,50709.61722238848
4451.948186553881,50208.47744468335
4451.97133899403,49333.633931824625
4451.994491554583,48597.582164279265
4452.017644235542,48011.671658310464
4452.040797036907,47162.04048794384
4452.063949958678,46257.847361899825
4452.087103000857,45501.749448168026
4452.1102561634425,44849.103184552594
4452.133409446437,44190.81315837225
4452.156562849841,43512.57546657801
4452.179716373655,43084.21027779362
4452.202870017878,43191.485742049925
4452.226023782513,43710.088682699396
4452.24917766756,44568.496106648374
4452.272331673018,45208.263554399324
4452.29548579889,45620.14178673223
4452.318640045174,46006.15620581698
4452.341794411874,46297.181898166666
4452.364948898987,46059.77596816086
4452.388103506516,45726.20513492321
4452.4112582344615,44877.84897486223
4452.434413082823,44028.748819774904
4452.457568051602,44195.01873416024
4452.480723140799,44287.448585652826
4452.503878350413,44434.1701971835
4452.527033680448,44999.630831427676
4452.550189130902,45378.75073508824
4452.5733447017765,45303.188397871774
4452.596500393071,45472.17041382194
4452.619656204789,45550.04175625489
4452.642812136928,44924.906646671705
4452.66596818949,44131.839093805575
4452.689124362475,42924.93572217673
4452.7122806558855,41961.76548407114
4452.735437069719,40581.24915567522
4452.7585936039795,40082.08769551599
4452.781750258665,39988.754646546506
4452.804907033777,40420.814248026094
4452.828063929317,40947.806401309645
4452.851220945285,42092.01282016933
4452.87437808168,43316.25567525544
4452.897535338506,44665.00908522537
4452.92069271576,45855.946910471284
4452.943850213445,47104.175715595906
4452.967007831562,48113.582378475156
4452.99016557011,48278.17058999692
4453.01332342909,48409.785861800985
4453.036481408502,48702.038397241
4453.059639508349,48792.66533928053
4453.08279772863,48411.19518047609
4453.105956069345,47887.73589815794
4453.129114530496,47423.7982323767
4453.152273112083,46995.297781972324
4453.175431814107,47115.71877641489
4453.198590636567,47321.48110227047
4453.221749579466,47435.46894543588
4453.244908642802,47978.1129779144
4453.268067826579,48472.64534040463
4453.291227130795,48790.69675217938
4453.314386555451,49525.5256754736
4453.337546100549,49845.64448073421
4453.360705766087,50077.902884987074
4453.3838655520685,50659.407988495186
4453.407025458493,50710.365263889675
4453.430185485361,50926.29477592503
4453.453345632673,51235.90795125773
4453.476505900429,51231.35707024609
4453.4996662886315,51269.36827271186
4453.52282679728,51085.16057413448
4453.545987426375,50933.42160960028
4453.569148175917,50216.952885243525
4453.592309045907,49676.30809756751
4453.615470036346,49152.46629522518
4453.638631147233,47917.74024924015
4453.661792378571,46558.66577575089
4453.684953730359,44819.21332703894
4453.708115202598,42953.55759088874
4453.731276795288,40138.38595318945
4453.754438508431,37640.05599924651
4453.777600342027,34359.009444541254
4453.800762296077,31954.660025540685
4453.82392437058,29850.13918488734
4453.847086565538,28626.118248151353
4453.870248880952,28615.947748795286
4453.8934113168225,28996.424439420625
4453.916573873149,30099.972689064027
4453.939736549933,31443.608184299716
4453.962899347174,32428.42448703239
4453.986062264875,32578.193150496558
4454.009225303034,32564.23747618705
4454.032388461654,32026.01278772588
4454.055551740734,31015.633667803133
4454.078715140275,29281.517346729015
4454.101878660277,27173.7370764985
4454.125042300742,24994.16683942695
4454.14820606167,22460.456605016523
4454.171369943061,20148.3633975533
4454.194533944917,18455.13412155635
4454.2176980672375,17202.26790656984
4454.240862310024,16564.986044157697
4454.264026673275,16785.273835358075
4454.287191156994,17821.041983584935
4454.31035576118,19294.853086421397
4454.333520485834,20993.887925672356
4454.356685330957,22843.136141711613
4454.379850296548,24306.14232793504
4454.40301538261,25337.1647611661
4454.426180589142,26193.09816559721
4454.449345916145,26888.687062732526
4454.4725113636205,28048.510019925074
4454.495676931568,29524.393550229233
4454.5188426199875,31046.660963234415
4454.542008428882,33102.27697893336
4454.565174358249,34743.51338805432
4454.588340408092,35962.68198096766
4454.611506578411,36962.86221209603
4454.634672869205,36763.041528868904
4454.657839280476,36103.08482073081
4454.681005812225,35155.73319024837
4454.704172464451,34193.42991426306
4454.727339237156,33355.3055474545
4454.750506130341,33088.774882584046
4454.773673144005,33367.81520659054
4454.79684027815,34531.72764351833
4454.820007532776,35915.558439634864
4454.843174907884,37827.907898310914
4454.866342403473,39658.72300792181
4454.889510019546,41312.08137322506
4454.912677756102,43089.29796618446
4454.935845613144,44245.749419532156
4454.959013590669,45358.126221682585
4454.982181688681,46952.745477036915
4455.005349907178,47317.86320345728
4455.028518246162,47333.37330162211
4455.051686705633,46636.99785877674
4455.074855285593,46094.237202188335
4455.098023986041,45155.50644206683
4455.121192806979,44540.21177705576
4455.144361748406,42646.86386992578
4455.167530810323,41035.939397404756
4455.190699992732,38939.24956920818
4455.213869295633,36109.22928948612
4455.237038719026,33161.432986334694
4455.260208262912,30325.07423579962
4455.283377927292,27859.600670561045
4455.306547712166,25659.361011763325
4455.329717617535,24371.34151407152
4455.352887643399,23881.914923622557
4455.37605778976,25008.09897494708
4455.399228056617,26526.676747938494
4455.422398443972,28691.44030971991
4455.445568951825,31389.49189746052
4455.468739580177,33961.829896740055
4455.491910329028,36551.6276030525
4455.515081198378,38873.79259901164
4455.538252188229,40778.168709405734
4455.561423298582,42409.26065731741
4455.584594529436,43991.68308567591
4455.607765880793,45217.70825492559
4455.630937352652,45907.722750575966
4455.654108945016,45989.045748982186
4455.677280657883,45488.22526260565
4455.700452491255,44799.13387364282
4455.723624445134,43747.058237923025
4455.746796519518,42189.778573112024
4455.7699687144095,40926.886317675475
4455.793141029808,39967.01891842209
4455.816313465714,39204.984434198894
4455.83948602213,38833.697754955676
4455.862658699055,38972.72691486561
4455.885831496489,39414.474133996
4455.909004414434,39609.37036548054
4455.932177452891,39666.7515103719
4455.955350611858,39537.311224368146
4455.978523891339,38682.0472613463
4456.001697291333,37360.30769997623
4456.024870811841,35987.60836213082
4456.048044452862,34648.13730156374
4456.071218214399,33571.706964031975
4456.094392096451,32999.167147373824
4456.117566099019,33222.23147996119
4456.140740222105,34129.63445547093
4456.163914465707,35500.21469802811
4456.187088829828,37430.39441010669
4456.210263314468,39295.39921476319
4456.233437919626,40842.43936846511
4456.256612645306,42696.87666767961
4456.279787491505,43975.66319245041
4456.302962458226,44743.48682655474
4456.326137545469,45528.9897956937
4456.349312753233,46165.26596765746
4456.372488081522,46683.85396529107
4456.395663530333,46438.50997737921
4456.41883909967,46662.76287034505
4456.442014789531,46345.15224952936
4456.465190599917,46087.624232529924
4456.488366530831,45755.96600641776
4456.5115425822705,45677.78469899662
4456.5347187542375,46172.75650748007
4456.557895046733,46649.15148333917
4456.581071459757,46906.96388202641
4456.604247993311,47429.28098873434
4456.627424647395,47758.071846395505
4456.650601422009,47765.71318693199
4456.673778317154,47694.83497334449
4456.696955332832,47055.96606290216
4456.720132469041,46231.17989771321
4456.7433097257845,44851.76935198522
4456.766487103061,43293.12283863995
4456.789664600872,41163.368992623895
4456.8128422192185,38505.602496868705
4456.8360199581,36171.221581686055
4456.859197817518,33895.03692321594
4456.882375797473,32178.042519075363
4456.905553897966,31232.638382560064
4456.928732118997,30756.737086318237
4456.951910460566,30787.11749557841
4456.975088922674,31299.35837613997
4456.998267505323,32465.475597962297
4457.021446208513,34010.80003620797
4457.044625032244,36303.27132972685
4457.067803976516,38361.99248959744
4457.090983041332,40423.90341385465
4457.1141622266905,42773.2290554415
4457.1373415325925,43995.96910356803
4457.160520959039,45526.42692306189
4457.183700506031,46183.64628813652
4457.206880173568,47055.84291698042
4457.230059961651,47389.323639218164
4457.2532398702815,47810.55231039877
4457.27641989946,48477.81755165847
4457.299600049186,48542.25380330736
4457.322780319461,48140.11829172107
4457.345960710286,47847.349795971626
4457.36914122166,47330.790986613174
4457.392321853586,46499.12020727251
4457.415502606062,45431.09968933551
4457.43868347909,43980.54059892999
4457.461864472672,41885.542394066666
4457.485045586805,40030.82459708563
4457.508226821494,38432.666194197845
4457.5314081767365,36985.4149073126
4457.554589652534,35872.17673004426
4457.577771248887,35725.85832265621
4457.600952965797,35082.338924291915
4457.624134803263,34941.95498118434
4457.647316761288,34580.319244243066
4457.67049883987,34343.24690183155
4457.693681039011,34545.33485756657
4457.716863358712,34986.423197036595
4457.7400457989725,35777.932322445835
4457.763228359793,37368.69126427072
4457.7864110411765,39389.729016943485
4457.809593843121,40593.26981142435
4457.832776765628,41873.77523350551
4457.855959808699,42270.189059048775
4457.879142972333,42443.06806386645
4457.902326256532,42569.07764380684
4457.925509661296,41936.80665379868
4457.948693186626,41752.037126594165
4457.971876832522,41789.360134692564
4457.995060598985,41813.767284097055
4458.018244486016,42257.85344504073
4458.041428493615,42942.35199147171
4458.0646126217825,44259.595685868975
4458.08779687052,45195.20011867592
4458.110981239827,45887.00936909731
4458.134165729705,47157.83748372903
4458.157350340155,47781.45458730243
4458.180535071177,48011.43755324937
4458.203719922771,48310.98843581931
4458.226904894938,48244.694085906536
4458.2500899876795,47905.704656182024
4458.273275200995,47026.14686947677
4458.296460534886,46169.08736938274
4458.3196459893525,44942.31943960696
4458.342831564396,42762.72098236183
4458.366017260016,40357.72016598007
4458.389203076214,37928.17006355139
4458.4123890129895,35034.897701667425
4458.435575070344,31706.403650727498
4458.458761248279,28446.092381310355
4458.481947546794,25143.01970957055
4458.505133965889,22106.73986236127
4458.528320505566,20163.134491538112
4458.551507165825,18734.227806812294
4458.574693946666,18270.504747318384
4458.597880848091,18533.119701701664
4458.6210678701,19699.971414692467
4458.644255012693,21700.30701059017
4458.6674422758715,23560.79918771587
4458.690629659636,25602.167397802117
4458.713817163986,27175.209699723564
4458.737004788924,28462.912192955635
4458.76019253445,29525.900214311718
4458.783380400563,30627.218934888533
4458.8065683872655,31970.17900530286
4458.829756494558,33404.61085838975
4458.85294472244,35356.59957184768
4458.876133070914,37531.65974046912
4458.899321539979,39626.511971851214
4458.922510129635,41907.45145114641
4458.945698839884,43886.06331218629
4458.968887670727,45270.14012983935
4458.992076622164,46448.98267876905
4459.015265694195,47442.22506215878
4459.0384548868215,47938.10035301712
4459.061644200044,48555.00839923917
4459.084833633862,48524.03011193396
4459.108023188278,48519.474429485046
4459.131212863292,47800.88144039412
4459.154402658904,47388.55099043865
4459.177592575114,47186.42920085747
4459.200782611925,46788.58975697315
4459.223972769336,46341.54603727762
4459.247163047347,46864.98981002755
4459.27035344596,47323.927280743104
4459.293543965176,47676.14525536603
4459.316734604993,48031.728754516436
4459.339925365414,48360.64882433753
4459.363116246439,48917.04978818159
4459.386307248069,49140.91176316951
4459.409498370304,49237.132773572164
4459.432689613145,49469.45110283632
4459.455880976592,49093.39039171486
4459.479072460647,48270.93935443655
4459.502264065309,47615.37002548002
4459.52545579058,45930.00165812749
4459.5486476364595,44040.685789960226
4459.571839602949,41850.598842626656
4459.595031690048,39498.288767648104
4459.618223897759,36694.46225578493
4459.641416226081,34476.25154413414
4459.664608675014,32968.793224673514
4459.687801244561,32362.091916290963
4459.710993934721,32364.025764554266
4459.734186745496,33041.0658641582
4459.757379676885,34360.936385849855
4459.780572728889,35428.35495405503
4459.803765901509,37520.33234890029
4459.8269591947455,39261.47333412953
4459.850152608599,41599.105281673976
4459.87334614307,43212.11114380078
4459.89653979816,45398.98040719317
4459.91973357387,46209.592111564125
4459.942927470198,47779.091819817586
4459.966121487147,48697.47108809376
4459.989315624717,49408.782350847956
4460.0125098829085,50401.024055008726
4460.035704261722,50987.55758999321
4460.058898761158,51030.891601937496
4460.082093381218,51024.65656918968
4460.105288121902,50954.907865557536
4460.12848298321,51063.81903844995
4460.151677965145,50727.59670761544
4460.1748730677045,50750.49453809481
4460.198068290891,50710.81365522089
4460.221263634704,50363.61589521947
4460.244459099145,50223.656496074625
4460.267654684215,49747.91880615849
4460.290850389914,50009.02014094091
4460.314046216243,49606.734283373815
4460.337242163202,49165.17143101303
4460.360438230791,48689.50181308211
4460.383634419013,48271.5870036624
4460.406830727867,47095.7296362336
4460.430027157354,45313.82518250258
4460.453223707474,43340.55265783126
4460.476420378228,41477.404804389575
4460.499617169617,38702.74589942633
4460.522814081641,36796.50397653958
4460.5460111143,34551.04019881876
4460.569208267598,32062.816790329955
4460.592405541532,30118.213611126128
4460.615602936104,28551.695530954723
4460.638800451314,27055.207049294888
4460.661998087163,26336.273536002336
4460.685195843652,26264.257832163585
4460.708393720782,26649.849729168604
4460.731591718552,27067.390574706274
4460.754789836965,27469.875810435988
4460.777988076019,27178.175512722577
4460.801186435716,26479.2692078111
4460.824384916057,25763.273367430014
4460.847583517042,24796.49479001758
4460.870782238671,24109.353683357596
4460.893981080947,23533.603486688182
4460.917180043868,23483.654260142488
4460.940379127435,23376.91585427266
4460.963578331651,23280.37993227647
4460.986777656513,22748.561857248642
4461.009977102025,22290.83288626473
4461.033176668186,21245.11179689621
4461.056376354995,20123.66833397267
4461.079576162457,19259.584595080774
4461.102776090568,18674.134629680055
4461.125976139332,18871.0071874214
4461.149176308748,20100.002556859337
4461.172376598816,21675.11174224312
4461.195577009538,24046.754535950076
4461.218777540915,26531.738417327568
4461.241978192946,28816.580986324778
4461.265178965633,30638.652762756956
4461.2883798589755,32523.75663377356
4461.311580872974,33115.841822626775
4461.3347820076315,33126.76459924224
4461.357983262946,32405.840373931056
4461.381184638919,31332.24632919588
4461.404386135551,29936.480330106777
4461.4275877528435,28789.17675407521
4461.4507894907965,28216.962270553595
4461.4739913494095,28556.360489971357
4461.497193328685,29577.88119506615
4461.520395428623,31012.24623861674
4461.543597649224,33109.52146311143
4461.566799990488,34996.54000105204
4461.590002452416,36865.2835589056
4461.61320503501,38663.51611198375
4461.636407738269,39983.670701815194
4461.659610562193,41271.04836297686
4461.682813506784,42340.04441640024
4461.706016572044,43133.949377139324
4461.729219757971,43439.203984465676
4461.752423064566,42942.60418661226
4461.775626491831,42413.00350512021
4461.798830039766,41763.383715351796
4461.82203370837,40619.28028048595
4461.845237497647,39096.44373865486
4461.868441407595,37459.92034381138
4461.891645438215,36759.097699955426
4461.914849589509,36807.00168647296
4461.938053861475,37248.25526534712
4461.961258254117,38501.16036117791
4461.984462767433,39947.28185304065
4462.007667401424,41347.91995098049
4462.030872156092,43099.57843421783
4462.0540770314365,44599.756132124676
4462.077282027459,45264.1326849931
4462.100487144158,46308.03478894845
4462.123692381537,47039.43355303615
4462.146897739594,47328.56544540665
4462.170103218332,47680.788909716015
4462.19330881775,47782.25812122461
4462.21651453785,47972.58926376035
4462.239720378631,48080.205044407136
4462.262926340095,47926.779016720044
4462.286132422241,47320.16775419912
4462.309338625071,46596.52070991336
4462.3325449485865,45536.205176766256
4462.355751392785,43784.24800642884
4462.3789579576705,42250.359771189804
4462.402164643242,40888.72409596844
4462.4253714495,39551.48491342746
4462.448578376446,39023.36420701636
4462.471785424079,39341.56759101084
4462.494992592401,39334.35496507506
4462.518199881412,40288.11639613426
4462.541407291114,41222.16057388893
4462.564614821506,42323.422585607164
4462.587822472589,43253.81488563267
4462.611030244365,44104.44749587354
4462.634238136832,45121.20183412547
4462.657446149992,45549.332933228325
4462.680654283847,45935.65792561908
4462.703862538396,46458.76684581129
4462.727070913639,46104.48028689018
