wave,flux
4450.003811362098,8332.191555073232
4450.026953690486,7265.576629156809
4450.050096139227,6500.284797202692
4450.073238708321,5978.52911867005
4450.096381397769,5962.2434262486
4450.119524207569,6360.022524265134
4450.142667137726,7283.329498501333
4450.165810188237,8633.291814261136
4450.188953359103,10428.54324615643
4450.212096650326,12075.967754331972
4450.2352400619075,13478.498214437885
4450.258383593846,14537.377095063954
4450.281527246142,14799.24887442661
4450.304671018797,14858.844412273398
4450.327814911813,15045.153363923386
4450.350958925188,15484.678950261683
4450.374103058924,16309.496569019915
4450.3972473130225,16928.06999970174
4450.420391687483,17456.346544421118
4450.443536182305,17869.105578824867
4450.466680797492,18021.315148919242
4450.489825533042,18456.48586862509
4450.512970388957,19118.455469765868
4450.536115365237,20423.400692965435
4450.559260461882,22225.338365706644
4450.582405678895,23782.537394859835
4450.605551016274,25368.01763716375
4450.628696474022,26408.14621405707
4450.651842052138,27232.36985232008
4450.674987750623,27970.602398315914
4450.698133569476,28249.449274604434
4450.721279508702,28503.02131674388
4450.744425568297,28654.486091217885
4450.767571748264,28832.988547309473
4450.790718048604,28707.136114278914
4450.813864469315,28436.55637902868
4450.837011010401,28109.981113641377
4450.86015767186,28108.689449327358
4450.883304453694,27799.413766683454
4450.906451355903,27350.778797153504
4450.929598378489,27203.492847678295
4450.95274552145,26708.85781370146
4450.975892784789,26172.437668086684
4450.999040168505,25338.579463221293
4451.022187672601,24127.31704340587
4451.045335297074,22751.943430500138
4451.068483041929,20293.070523036306
4451.091630907163,17979.03146343396
4451.114778892777,15772.83798531215
4451.137926998774,13644.044109557492
4451.161075225153,12249.74975274449
4451.184223571914,11673.30999007781
4451.207372039059,12171.65190678652
4451.230520626587,13417.39780314632
4451.253669334501,15485.537449194366
4451.2768181628,17916.8925979689
4451.299967111485,20241.319661971964
4451.323116180556,22054.396940669
4451.346265370014,23944.86402516239
4451.369414679861,25156.30572129439
4451.392564110095,25978.074459464053
4451.415713660719,26677.194575235535
4451.438863331732,26771.996500483645
4451.462013123136,26515.119760398433
4451.48516303493,25911.986118361725
4451.508313067117,24723.699104752246
4451.531463219695,23164.311403658063
4451.554613492666,21767.374718260384
4451.577763886031,20858.59074142523
4451.60091439979,20322.1344339666
4451.624065033943,20244.19239292052
4451.647215788492,20834.571118089676
4451.670366663436,21820.245827159255
4451.693517658777,22860.402030119083
4451.716668774516,23923.701209386734
4451.739820010652,25042.46928263738
4451.762971367186,26089.41476546277
4451.78612284412,27029.820841396082
4451.8092744414525,27244.658871801577
4451.832426159187,28004.591649586797
4451.855577997321,28185.56002440445
4451.878729955857,28716.177402102214
4451.901882034796,28734.08154982692
4451.925034234137,28754.965011859644
4451.948186553881,28997.64436192646
4451.97133899403,28890.824255225903
4451.994491554583,28570.45483239844
4452.017644235542,28507.284982536854
4452.040797036907,28215.25621704462
4452.063949958678,27594.472061211964
4452.087103000857,26923.186754184695
4452.1102561634425,26062.454736889198
4452.133409446437,25336.193055497137
4452.156562849841,24330.0695706549
4452.179716373655,23249.412116697087
4452.202870017878,22495.161654885593
4452.226023782513,21631.287103767645
4452.24917766756,20780.81437018048
4452.272331673018,20022.320133249294
4452.29548579889,19447.1908657026
4452.318640045174,19040.858900044543
4452.341794411874,19261.86047136942
4452.364948898987,20004.25665296715
4452.388103506516,20993.430271606067
4452.4112582344615,22108.003128208726
4452.434413082823,23182.776518704402
4452.457568051602,23906.85556049568
4452.480723140799,24189.700953401763
4452.503878350413,24489.29281310044
4452.527033680448,23821.72273858679
4452.550189130902,22463.27173902434
4452.5733447017765,21462.018178398583
4452.596500393071,20568.125769304163
4452.619656204789,20609.795861957842
4452.642812136928,21262.075933670847
4452.66596818949,21822.793066572027
4452.689124362475,22978.45047808658
4452.7122806558855,23643.639685335074
4452.735437069719,23904.45925379545
4452.7585936039795,24053.631773571386
4452.781750258665,23922.291585061645
4452.804907033777,23087.565253436118
4452.828063929317,21982.16727327532
4452.851220945285,20634.12755418947
4452.87437808168,18968.939761108646
4452.897535338506,17662.240718501096
4452.92069271576,17231.064596595344
4452.943850213445,17412.079415075375
4452.967007831562,18752.934082597796
4452.99016557011,20512.01624754264
4453.01332342909,22561.882537253954
4453.036481408502,23928.426318475747
4453.059639508349,25165.210878873317
4453.08279772863,26278.532324675183
4453.105956069345,26891.40436229672
4453.129114530496,26862.220865973668
4453.152273112083,26965.607766201716
4453.175431814107,27014.560240147082
4453.198590636567,26426.56329938656
4453.221749579466,25656.061812384665
4453.244908642802,24565.108631920903
4453.268067826579,23423.163652281877
4453.291227130795,22615.8149430159
4453.314386555451,22307.204466437703
4453.337546100549,22652.726443268613
4453.360705766087,23608.736878847478
4453.3838655520685,24463.25221568614
4453.407025458493,25348.398130261805
4453.430185485361,26287.74717680764
4453.453345632673,26733.300495884378
4453.476505900429,27105.47062000947
4453.4996662886315,27465.994301325918
4453.52282679728,27578.861716669166
4453.545987426375,27948.10048442172
4453.569148175917,28271.89048561228
4453.592309045907,28033.058687653684
4453.615470036346,28028.586633852694
4453.638631147233,28255.11822217945
4453.661792378571,28112.958136840312
4453.684953730359,27796.37921798887
4453.708115202598,27594.92877145351
4453.731276795288,27329.07415192827
4453.754438508431,26959.42496594466
4453.777600342027,26328.040140715228
4453.800762296077,25742.61903591103
4453.82392437058,24757.218462094836
4453.847086565538,22939.915729493987
4453.870248880952,21244.746476389635
4453.8934113168225,18918.473433486895
4453.916573873149,16319.142701730969
4453.939736549933,13845.08702796234
4453.962899347174,12137.30089631814
4453.986062264875,10872.453031754974
4454.009225303034,10964.14261598729
4454.032388461654,11932.712157197026
4454.055551740734,13533.21710207379
4454.078715140275,15259.181600653083
4454.101878660277,16812.437913564616
4454.125042300742,17645.572539910667
4454.14820606167,18009.621110424585
4454.171369943061,17401.115866253687
4454.194533944917,16137.106636897735
4454.2176980672375,14500.77875657925
4454.240862310024,12790.201179848871
4454.264026673275,11170.625882145063
4454.287191156994,9703.981938368124
4454.31035576118,8369.874106611174
4454.333520485834,7321.605284679349
4454.356685330957,6525.267029264633
4454.379850296548,6151.366469103563
4454.40301538261,6390.601115133737
4454.426180589142,7364.706562041716
4454.449345916145,8712.537224857662
4454.4725113636205,10205.88817240512
4454.495676931568,11680.35624518716
4454.5188426199875,12596.164008441136
4454.542008428882,12904.421312283059
4454.565174358249,12807.549354692266
4454.588340408092,12584.317483463146
4454.611506578411,12540.048401119879
4454.634672869205,13117.043606010966
4454.657839280476,14418.93840770892
4454.681005812225,16095.025196982982
4454.704172464451,17875.852463147152
4454.727339237156,19361.88121959697
4454.750506130341,20564.91645413931
4454.773673144005,21070.94294278515
4454.79684027815,20337.756608931166
4454.820007532776,19045.103465979744
4454.843174907884,17529.150539285507
4454.866342403473,15999.540113645658
4454.889510019546,14869.511425030549
4454.912677756102,14442.639658584068
4454.935845613144,14979.154712481248
4454.959013590669,16426.33873875944
4454.982181688681,18532.077182309433
4455.005349907178,20339.49919109412
4455.028518246162,22223.635210943467
4455.051686705633,23851.13699428325
4455.074855285593,24960.868685506513
4455.098023986041,25896.037858066957
4455.121192806979,26404.149286770906
4455.144361748406,26289.39926654372
4455.167530810323,25678.54520592957
4455.190699992732,24929.000846030573
4455.213869295633,24100.777320281097
4455.237038719026,23069.543257909878
4455.260208262912,22452.91509900775
4455.283377927292,21469.87991345432
4455.306547712166,20543.95082945281
4455.329717617535,19312.394024052923
4455.352887643399,17556.755972518284
4455.37605778976,15607.866995071525
4455.399228056617,13591.305020567474
4455.422398443972,11715.453827195824
4455.445568951825,10163.599238262688
4455.468739580177,9079.467037816728
4455.491910329028,9048.331782127958
4455.515081198378,9812.84630922249
4455.538252188229,11256.416173244741
4455.561423298582,13455.990929003437
4455.584594529436,15575.817993329414
4455.607765880793,18186.92754140703
4455.630937352652,20242.18173045368
4455.654108945016,21832.08666966818
4455.677280657883,23038.427315993966
4455.700452491255,24069.88967823744
4455.723624445134,24973.367047271317
4455.746796519518,25157.313119807088
4455.7699687144095,25359.088525194522
4455.793141029808,25063.84901120937
4455.816313465714,24750.991597467364
4455.83948602213,23796.340133117887
4455.862658699055,21977.046166802444
4455.885831496489,20005.009176851614
4455.909004414434,17963.72321758462
4455.932177452891,16421.898351753065
4455.955350611858,15705.4228528273
4455.978523891339,15205.341088234085
4456.001697291333,15911.80293325815
4456.024870811841,17077.17218211671
4456.048044452862,18347.87696644827
4456.071218214399,19584.79815076352
4456.094392096451,20144.043447450556
4456.117566099019,20247.670189259727
4456.140740222105,19667.685862196693
4456.163914465707,18016.263586298766
4456.187088829828,16447.76149186538
4456.210263314468,15041.57931281192
4456.233437919626,14321.88630503485
4456.256612645306,14695.967929990113
4456.279787491505,15793.795095760586
4456.302962458226,17471.746740266222
4456.326137545469,19337.634385257137
4456.349312753233,21376.647898657557
4456.372488081522,23062.573867482846
4456.395663530333,24511.487946937094
4456.41883909967,25606.19195293375
4456.442014789531,25939.849241732034
4456.465190599917,25686.31392289295
4456.488366530831,25560.183712456914
4456.5115425822705,25514.07263247371
4456.5347187542375,25162.09053901547
4456.557895046733,24572.166934218396
4456.581071459757,23679.074145813713
4456.604247993311,22873.088476430272
4456.627424647395,22350.84147602241
4456.650601422009,22082.34277759748
4456.673778317154,22459.692883324107
4456.696955332832,23052.923822264835
4456.720132469041,23797.04251846272
4456.7433097257845,24800.343118559318
4456.766487103061,25539.811485410533
4456.789664600872,25776.684341557026
4456.8128422192185,25898.625554286988
4456.8360199581,25928.06347387675
4456.859197817518,25333.50656276011
4456.882375797473,24537.656810817654
4456.905553897966,23284.157715319394
4456.928732118997,21485.18844434108
4456.951910460566,19348.210205342668
4456.975088922674,16953.95310351567
4456.998267505323,14812.762649944052
4457.021446208513,13168.71826972787
4457.044625032244,12338.524117806419
4457.067803976516,11970.898003814513
4457.090983041332,11928.682513583062
4457.1141622266905,12445.985091163178
4457.1373415325925,13426.767681291289
4457.160520959039,14994.546213723524
4457.183700506031,17162.168245246878
4457.206880173568,19448.64186341782
4457.230059961651,21618.72012057245
4457.2532398702815,23416.816904971656
4457.27641989946,24642.448157204453
4457.299600049186,25415.24191583668
4457.322780319461,25671.520600462154
4457.345960710286,25589.45642838471
4457.36914122166,25592.60087622115
4457.392321853586,25538.72307959719
4457.415502606062,25429.566985578946
4457.43868347909,25575.57119539251
4457.461864472672,25968.840460815405
4457.485045586805,25646.291334019526
4457.508226821494,24913.05362859179
4457.5314081767365,24633.460323583804
4457.554589652534,23562.99373362865
4457.577771248887,22284.204417509027
4457.600952965797,20812.23152914216
4457.624134803263,19171.80139114085
4457.647316761288,17211.78572832025
4457.67049883987,15787.645668791814
4457.693681039011,15275.201715500612
4457.716863358712,15349.869971905708
4457.7400457989725,15543.340218754485
4457.763228359793,15819.910372138325
4457.7864110411765,15906.188739163761
4457.809593843121,15663.88248101317
4457.832776765628,15181.113230839586
4457.855959808699,15253.92622903744
4457.879142972333,16339.369674815993
4457.902326256532,17929.942979702133
4457.925509661296,19645.324219059214
4457.948693186626,21242.516061706465
4457.971876832522,22524.271967438213
4457.995060598985,23071.311357058155
4458.018244486016,23052.312272492774
4458.041428493615,22351.771595185783
4458.0646126217825,21257.610669360103
4458.08779687052,19762.10514262546
4458.110981239827,18567.401207992214
4458.134165729705,18329.585719057453
4458.157350340155,19000.324298253032
4458.180535071177,20210.935174499045
4458.203719922771,21462.64801655429
4458.226904894938,23083.30255148297
4458.2500899876795,24538.910095616553
4458.273275200995,25683.87354201259
4458.296460534886,26015.08406055571
4458.3196459893525,26766.096991029324
4458.342831564396,27040.810319783843
4458.366017260016,26702.542217105405
4458.389203076214,26525.021268926732
4458.4123890129895,25973.0395933365
4458.435575070344,25354.1302825072
4458.458761248279,24410.51619930278
4458.481947546794,23233.396749899828
4458.505133965889,21589.075244915417
4458.528320505566,19929.469598232183
4458.551507165825,17914.124754674787
4458.574693946666,15481.329703311894
4458.597880848091,12914.957328838163
4458.6210678701,10689.926967486546
4458.644255012693,8856.3941967795
4458.6674422758715,7502.945567392684
4458.690629659636,6748.774302991617
4458.713817163986,6439.540176200402
4458.737004788924,6919.186788339866
4458.76019253445,7860.756390551923
4458.783380400563,9250.844246043522
4458.8065683872655,10776.054409252953
4458.829756494558,12416.401297460256
4458.85294472244,13682.959345758472
4458.876133070914,14503.826154015416
4458.899321539979,14683.966627474898
4458.922510129635,14441.232674739767
4458.945698839884,14534.54521878029
4458.968887670727,15241.228636585614
4458.992076622164,16868.634121181996
4459.015265694195,18701.145039426556
4459.0384548868215,20730.23562777853
4459.061644200044,22689.513374320984
4459.084833633862,24120.98633431247
4459.108023188278,25408.438926988434
4459.131212863292,25951.581336556075
4459.154402658904,26933.034780663933
4459.177592575114,27260.1262344591
4459.200782611925,26881.894058157224
4459.223972769336,26660.68861207055
4459.247163047347,26202.69379251001
4459.27035344596,25002.989047015937
4459.293543965176,23892.595379902938
4459.316734604993,22703.63858602556
4459.339925365414,21863.99281812516
4459.363116246439,21614.552318343423
4459.386307248069,22091.384063839203
4459.409498370304,23212.654442313695
4459.432689613145,23852.58370729336
4459.455880976592,25032.063991480656
4459.479072460647,25688.3685789216
4459.502264065309,26459.253666719454
4459.52545579058,26910.799918236295
4459.5486476364595,27017.278017329958
4459.571839602949,27073.957581244886
4459.595031690048,26912.41464524172
4459.618223897759,26210.392653092444
4459.641416226081,25761.54806300606
4459.664608675014,24767.829344357466
4459.687801244561,23198.13957061855
4459.710993934721,21595.537398975175
4459.734186745496,19321.632072832752
4459.757379676885,16851.74852918624
4459.780572728889,14600.624359591713
4459.803765901509,12766.249021075675
4459.8269591947455,11809.512078222684
4459.850152608599,11673.383724746667
4459.87334614307,12185.268305153228
4459.89653979816,13351.37783671158
4459.91973357387,14830.986951146759
4459.942927470198,16615.050426203918
4459.966121487147,18543.755218369046
4459.989315624717,20418.365222032488
4460.0125098829085,22303.04346885382
4460.035704261722,23833.071166373655
4460.058898761158,25458.8727665491
4460.082093381218,26198.35714686107
4460.105288121902,26941.481231686837
4460.12848298321,27608.87039044709
4460.151677965145,27816.84134666457
4460.1748730677045,28014.590608876035
4460.198068290891,28199.920003485448
4460.221263634704,28324.514441908064
4460.244459099145,28467.951273351242
4460.267654684215,28018.195042976196
4460.290850389914,28086.36309103286
4460.314046216243,27659.325494448913
4460.337242163202,27327.84422488102
4460.360438230791,27017.082045591193
4460.383634419013,26554.825045346934
4460.406830727867,26529.450724838283
4460.430027157354,26438.74510356072
4460.453223707474,26703.709319214664
4460.476420378228,26760.311111744257
4460.499617169617,26636.032271776738
4460.522814081641,26314.40832383612
4460.5460111143,25375.621611209615
4460.569208267598,24422.94178826366
4460.592405541532,22937.503906934886
4460.615602936104,20989.083291421823
4460.638800451314,18643.926730141065
4460.661998087163,16552.069473918353
4460.685195843652,14476.002986912114
4460.708393720782,12760.5673659923
4460.731591718552,11435.956435922142
4460.754789836965,10661.240001715896
4460.777988076019,10228.780109087575
4460.801186435716,10111.116686705685
4460.824384916057,10678.7883731178
4460.847583517042,11621.884727132978
4460.870782238671,12637.158014911995
4460.893981080947,13555.596856771954
4460.917180043868,13957.768093282224
4460.940379127435,13615.302729001909
4460.963578331651,12873.525577597771
4460.986777656513,11985.756773969348
4461.009977102025,11149.680751760327
4461.033176668186,10622.832408143347
4461.056376354995,10609.570906391271
4461.079576162457,11005.006775013744
4461.102776090568,11448.47608734015
4461.125976139332,11747.038778868664
4461.149176308748,11426.649879575114
4461.172376598816,10439.86833962991
4461.195577009538,9285.92441436868
4461.218777540915,8261.479950503548
4461.241978192946,7525.021921793965
4461.265178965633,7373.960475059116
4461.2883798589755,7787.455808939031
4461.311580872974,8990.535014719322
4461.3347820076315,10677.774130464108
4461.357983262946,12691.424339566849
4461.381184638919,14883.090883938909
4461.404386135551,16861.768255584226
4461.4275877528435,18185.071738907813
4461.4507894907965,18701.49151533454
4461.4739913494095,18474.142811636433
4461.497193328685,17619.831638594045
4461.520395428623,16044.371856541551
4461.543597649224,14206.18420356956
4461.566799990488,12558.660154854162
4461.590002452416,11509.708777604197
4461.61320503501,11182.555896301561
4461.636407738269,11927.90074881571
4461.659610562193,13319.112773391005
4461.682813506784,15454.02901888098
4461.706016572044,17374.184532332984
4461.729219757971,18923.046593448977
4461.752423064566,19998.098237042133
4461.775626491831,20685.50265263567
4461.798830039766,21348.736151435314
4461.82203370837,21956.44266746127
4461.845237497647,22282.8131997865
4461.868441407595,22777.05918458998
4461.891645438215,22566.59013228406
4461.914849589509,21963.974546737736
4461.938053861475,20985.970769100248
4461.961258254117,19279.984801948347
4461.984462767433,17630.456108452807
4462.007667401424,15990.523370169602
4462.030872156092,14926.863212512235
4462.0540770314365,14775.032072716844
4462.077282027459,15624.994667508676
4462.100487144158,17132.502403248323
4462.123692381537,19123.80952473277
4462.146897739594,21178.825030111522
4462.170103218332,23085.173819970634
4462.19330881775,24111.09217550301
4462.21651453785,25084.261554740406
4462.239720378631,25702.921905338466
4462.262926340095,25811.12146173291
4462.286132422241,25362.67951418634
4462.309338625071,25441.75236577915
4462.3325449485865,25201.746581235762
4462.355751392785,25149.754914051446
4462.3789579576705,25176.69842167132
4462.402164643242,25199.803163100936
4462.4253714495,25228.783563972906
4462.448578376446,24454.319242072692
4462.471785424079,23621.758070208434
4462.494992592401,22057.826632653647
4462.518199881412,19984.728582847667
4462.541407291114,18081.914055493344
4462.564614821506,16476.945678438035
4462.587822472589,15367.271957383673
4462.611030244365,15629.561895507235
4462.634238136832,16459.39808291692
