wave,flux
5000.025812696027,14450.47305648193
5000.051815424163,13942.47580627648
5000.0778182875265,13324.100212802283
5000.103821286119,12588.515536007018
5000.12982441994,11881.211795251153
5000.155827688991,11173.058330093225
5000.181831093272,10497.92601243104
5000.207834632784,9950.927064137257
5000.2338383075285,9553.755558013756
5000.259842117506,9272.829164071254
5000.285846062716,9056.759318077422
5000.311850143161,9115.904925363988
5000.33785435884,9390.169190356084
5000.363858709754,9825.022845639707
5000.389863195905,10627.502481640697
5000.415867817292,11442.969259989253
5000.441872573917,12133.428116292593
5000.4678774657805,12522.443220434032
5000.493882492882,12969.05550962973
5000.519887655224,13230.632238602486
5000.545892952806,13124.101540803227
5000.571898385629,12893.501649075373
5000.597903953694,12661.598212955596
5000.623909657001,12296.772493600063
5000.649915495552,11892.831006480503
5000.675921469346,11678.18123714598
5000.701927578384,11360.64523688539
5000.727933822669,11359.90276579144
5000.7539402021985,11499.854914859912
5000.779946716975,11773.289752354258
5000.805953366999,12113.816487989017
5000.831960152272,12103.895068996084
5000.857967072792,12413.637658861204
5000.883974128563,12642.388378960602
5000.9099813195835,12716.393522055665
5000.935988645855,12865.022022216337
5000.961996107378,13067.72463455633
5000.988003704153,13346.685542785817
5001.014011436181,13804.294362898192
5001.040019303464,14306.75721297203
5001.066027306,14610.837615022963
5001.092035443791,14751.893765374842
5001.118043716839,14998.67108784711
5001.1440521251425,15140.57957279864
5001.170060668704,14939.355243487269
5001.196069347523,14803.196296242251
5001.222078161601,14783.597347513805
5001.248087110937,14800.650081789225
5001.274096195534,14533.121905899321
5001.300105415392,14256.234152034915
5001.326114770512,14176.459021422143
5001.352124260892,14006.159491855109
5001.3781338865365,13741.226077164276
5001.4041436474445,13457.730734076187
5001.430153543616,13062.688252437245
5001.456163575053,12770.33790927582
5001.482173741756,12690.597690923407
5001.508184043724,12532.54752024907
5001.534194480961,12301.639131840884
5001.560205053464,11933.620208253531
5001.586215761236,11597.216151857436
5001.612226604278,11034.884424576338
5001.638237582589,10381.214120439421
5001.664248696171,9733.691233054838
5001.690259945024,8914.552648061961
5001.716271329149,8190.86204087626
5001.742282848547,7491.284347174342
5001.768294503218,6910.577671414762
5001.794306293164,6587.546342117516
5001.820318218383,6573.567190174235
5001.84633027888,6909.4545528325925
5001.872342474651,7559.038858812184
5001.8983548056995,8495.154009718868
5001.924367272026,9574.602518436723
5001.9503798736305,10794.486450204528
5001.976392610514,12172.278167335156
5002.002405482678,13055.989958643977
5002.028418490122,13983.15016766337
5002.054431632847,14691.050164925295
5002.080444910854,15397.063589323183
5002.106458324142,15502.054853436892
5002.1324718727155,15636.970129539995
5002.158485556572,15785.816480885846
5002.184499375713,15881.514515219966
5002.210513330139,15979.866366348928
5002.236527419852,15939.854079711744
5002.262541644852,15912.714119998027
5002.288556005138,15867.977617869476
5002.314570500714,15647.635046353103
5002.340585131577,15570.862286112457
5002.36659989773,15286.893192821852
5002.392614799174,15130.01416786319
5002.418629835909,14777.579346998291
5002.444645007936,14490.387028673458
5002.4706603152545,13811.340656007502
5002.496675757866,13423.969907932284
5002.522691335772,12862.116273499847
5002.548707048972,12379.025632319
5002.574722897468,11861.126545337433
5002.600738881259,11342.86417547684
5002.626755000347,10819.881321570705
5002.652771254732,10277.53443692193
5002.678787644415,9849.2128878539
5002.704804169397,9529.668470355942
5002.730820829678,9344.604778433975
5002.75683762526,9471.00819756595
5002.782854556142,9876.188548517803
5002.8088716223265,10539.728217342225
5002.834888823812,11336.2391777568
5002.860906160601,12481.046279385575
5002.886923632695,13580.55107603884
5002.912941240092,14331.24894672663
5002.938958982793,15117.532459632117
5002.9649768608015,15588.72176746346
5002.990994874116,15819.430228218134
5003.017013022737,16057.160337438861
5003.043031306666,16157.481200415174
5003.069049725905,16295.652155632728
5003.095068280452,16337.327874377117
5003.121086970309,16275.492407236214
5003.147105795477,16381.383101965113
5003.173124755956,16406.27390541655
5003.199143851748,16306.045956118514
5003.225163082852,16301.239765789778
5003.251182449269,16121.573788971242
5003.277201951001,16131.292208980662
5003.3032215880485,16166.024526866777
5003.32924136041,15965.054563252415
5003.35526126809,15971.659824938028
5003.381281311085,15908.025541015759
5003.407301489398,15667.423923521337
5003.433321803031,15571.935477504423
5003.459342251982,15385.30972457843
5003.4853628362525,14988.14800523642
5003.511383555844,14724.270899730038
5003.537404410757,14555.526349621487
5003.563425400991,14271.787060832694
5003.589446526548,13892.961759767359
5003.615467787429,13558.371115599195
5003.641489183634,13212.800792988934
5003.667510715163,12734.9553414295
5003.693532382018,12531.769204388276
5003.719554184199,12417.852139051338
5003.745576121707,12364.289512419185
5003.771598194542,12669.102281750536
5003.797620402706,12808.333024162976
5003.823642746199,13011.906576934987
5003.849665225021,12963.573846220947
5003.875687839174,12937.260316406557
5003.901710588658,12831.913481697267
5003.927733473473,12623.62907696384
5003.953756493622,12392.06166847375
5003.979779649103,12099.333638365462
5004.005802939919,11918.46054108714
5004.031826366068,11976.448580229551
5004.057849927553,12305.146928635275
5004.083873624375,12792.203617608098
5004.109897456533,13211.996209093017
5004.135921424028,13666.421391470756
5004.161945526862,14025.179040157402
5004.187969765035,14277.58373887793
5004.213994138547,14452.194454325996
5004.240018647399,14490.930860928655
5004.266043291592,14522.605817621774
5004.292068071127,14661.091743660521
5004.318092986004,14842.607924526974
5004.344118036223,15057.39431342813
5004.370143221788,15179.974171625674
5004.396168542696,15290.3111063489
5004.422193998949,15514.59404572629
5004.448219590549,15886.006367715094
5004.474245317495,16017.339795698274
5004.500271179789,16054.419836646322
5004.52629717743,16067.090318361908
5004.5523233104195,16116.235575646855
5004.578349578759,16283.351022011379
5004.604375982449,16098.60510534739
5004.630402521489,16222.57097702114
5004.656429195881,16028.882656757869
5004.682456005625,15870.503326662645
5004.708482950721,15742.350787050771
5004.734510031172,15568.729316506387
5004.760537246977,15305.888669653426
5004.7865645981365,15215.129005513094
5004.812592084652,14747.089736751708
5004.838619706525,14312.122064749137
5004.8646474637535,13705.570151157666
5004.890675356341,13359.149243291253
5004.916703384286,13040.611422837417
5004.942731547591,12600.543255060764
5004.968759846256,12125.91114334931
5004.994788280281,11681.382693454732
5005.020816849668,11208.776502426721
5005.046845554417,10687.203835616312
5005.072874394528,10308.134681137164
5005.098903370003,10020.976784941995
5005.124932480842,10013.10293829227
5005.150961727047,10142.459394025112
5005.176991108617,10565.060554644311
5005.203020625552,11240.667062047723
5005.229050277856,12090.078088139722
5005.255080065526,12697.574233005353
5005.281109988566,13246.46896218679
5005.3071400469735,13605.065423635546
5005.333170240751,13563.656894557178
5005.3592005699,13440.003131322203
5005.38523103442,13202.311740991308
5005.411261634312,12713.918690865896
5005.4372923695755,12031.651677772274
5005.463323240213,11318.345764599186
5005.489354246225,10629.337542570513
5005.515385387611,9860.500012050104
5005.541416664373,9045.195949081037
5005.567448076511,8293.161934288137
5005.593479624025,7601.775567307024
5005.619511306918,7064.83606138419
5005.645543125189,6612.787550627626
5005.671575078838,6396.313091703177
5005.697607167867,6469.55467553072
5005.723639392277,6866.519053588329
5005.749671752068,7313.191575461236
5005.77570424724,7777.418761610832
5005.8017368777955,8183.541392451224
5005.8277696437335,8422.4962770006
5005.853802545055,8502.839325971345
5005.879835581762,8275.104150974961
5005.905868753854,7959.884480870692
5005.931902061331,7492.513693439287
5005.957935504196,6868.1423542124
5005.983969082448,6307.039862298051
5006.010002796088,5817.183378262207
5006.036036645117,5480.5375246294425
5006.062070629536,5387.374171255886
5006.088104749344,5549.1015657199
5006.114139004544,6126.303697841216
5006.140173395135,6865.983215665514
5006.166207921118,7896.484358489724
5006.192242582495,9193.377417337084
5006.218277379266,10401.622912759613
5006.244312311431,11596.719498422079
5006.270347378991,12751.649596996867
5006.296382581946,13620.358194352191
5006.322417920299,14288.730905274493
5006.348453394048,14931.20643846186
5006.374489003196,15441.280258810519
5006.400524747743,15529.734710527442
5006.426560627688,15725.689149759351
5006.452596643034,15840.299501895937
5006.47863279378,15785.585256044731
5006.504669079928,15761.840907800302
5006.530705501478,15806.4387215524
5006.556742058431,15807.514279000621
5006.582778750788,15728.909051714772
5006.608815578549,15740.139644243241
5006.634852541715,15651.702055209465
5006.660889640287,15501.255018034462
5006.686926874265,15587.439745719807
5006.71296424365,15491.188432670657
5006.739001748444,15311.198633169714
5006.765039388645,15249.963429836796
5006.791077164256,15349.046615775671
5006.817115075277,14865.972313387021
5006.843153121708,14481.861633562601
5006.869191303552,14095.527953988867
5006.895229620806,13445.480357374896
5006.921268073474,12811.059267912855
5006.947306661555,12056.27518984475
5006.97334538505,11302.039043631516
5006.999384243961,10546.470684678608
5007.025423238286,9633.489955524668
5007.051462368028,8747.551153167507
5007.077501633187,7938.5211122801165
5007.103541033764,7163.281690740032
5007.129580569759,6545.855361862383
5007.155620241173,6098.984153954843
5007.181660048007,5941.628142331487
5007.207699990262,6090.450106877089
5007.233740067937,6461.1296324103705
5007.259780281035,7245.247701888807
5007.285820629555,8240.07673490678
5007.311861113499,9365.333338044267
5007.337901732866,10586.332922336202
5007.363942487658,11815.67947841803
5007.389983377876,12686.368731805944
5007.41602440352,13596.789835895854
5007.442065564591,14301.704021201815
5007.468106861089,14860.407672895219
5007.494148293015,15064.69063366275
5007.520189860371,15030.84290486413
5007.546231563156,14962.480578074388
5007.572273401372,14917.872950624836
5007.598315375018,14799.453171530446
5007.624357484096,14674.62505370436
5007.650399728607,14606.255803240207
5007.676442108551,14514.87136913433
5007.702484623929,14527.479822715235
5007.728527274741,14785.559737388763
5007.754570060989,15121.820791727449
5007.780612982673,15331.712693490514
5007.806656039793,15777.271238195946
5007.832699232351,16221.938820393118
5007.858742560347,16342.147725353985
5007.884786023782,16738.604564021396
5007.910829622656,16795.848822623415
5007.936873356971,16789.3592089735
5007.962917226726,16908.805790709288
5007.988961231923,16843.007398160105
5008.015005372563,16932.8130195702
5008.041049648646,16848.757347043298
5008.067094060171,16898.670603671642
5008.0931386071425,16942.28906455234
5008.119183289558,16927.328627429783
5008.14522810742,17056.56149917015
5008.171273060728,17082.82216031626
5008.197318149483,17199.721653796114
5008.223363373687,17200.5189489806
5008.249408733339,17047.929856828603
5008.27545422844,17114.826162395326
5008.301499858992,17001.409500814218
5008.327545624995,16971.124267865016
5008.353591526448,16902.037602311408
5008.379637563355,16774.35323351462
5008.405683735714,16616.22682255791
5008.431730043527,16601.412983909304
5008.457776486794,16390.870883893866
5008.483823065515,16124.10816688443
5008.509869779693,16035.38557892451
5008.535916629327,15903.76925944644
5008.561963614418,15931.254925924724
5008.588010734968,15875.63018714864
5008.614057990975,15918.094711010033
5008.640105382442,15963.543242961381
5008.666152909369,16175.192280466768
5008.692200571756,16272.533713818582
5008.718248369605,16309.595566671716
5008.744296302916,16558.689920173
5008.77034437169,16745.55551873894
5008.796392575927,16902.347394768927
5008.822440915628,16934.678046837984
5008.848489390794,16861.31453295409
5008.874538001426,16980.65147034937
5008.900586747524,17034.527901698028
5008.926635629089,17009.39443124241
5008.952684646122,16957.33852434739
5008.978733798623,17014.70941771068
5009.004783086593,16941.24466077342
5009.030832510033,16934.897646358808
5009.056882068944,17001.969385027245
5009.082931763326,17019.728115490685
5009.108981593179,16894.98905104609
5009.135031558506,16996.481520169018
5009.161081659306,16839.761463646588
5009.187131895579,16905.531631415448
5009.213182267327,16835.638029170037
5009.239232774552,16701.242076471397
5009.265283417251,16598.487924762176
5009.291334195428,16602.982050920866
5009.317385109083,16532.918133966483
5009.343436158216,16201.598113403685
5009.369487342828,16029.07651951768
5009.395538662919,15877.485238862513
5009.421590118491,15589.233178257804
5009.447641709544,15346.478147233014
5009.473693436078,15180.582743466692
5009.499745298095,14966.20840653593
5009.525797295596,14643.72142553733
5009.55184942858,14516.665453298509
5009.577901697049,14415.919382405966
5009.603954101003,14130.244871190273
5009.630006640443,14173.286782011379
5009.65605931537,14488.00445196689
5009.682112125784,14711.148012921065
5009.708165071686,14871.861142697015
5009.7342181530785,14861.920744958097
5009.760271369959,15061.666010470675
5009.78632472233,14894.090985444001
5009.812378210192,14727.81550865553
5009.838431833546,14187.754229101893
5009.864485592391,13836.54297887154
5009.890539486731,13399.299739409931
5009.916593516564,12801.588467830714
5009.942647681891,12198.667278363748
5009.968701982713,11687.293975857274
5009.994756419032,11148.054401926998
5010.020810990847,10702.842797424739
5010.046865698159,10510.729563337552
5010.072920540969,10467.599035339552
5010.098975519279,10420.720366171994
5010.125030633087,10448.590742286831
5010.151085882395,10585.161233775
5010.177141267204,10698.51518239264
5010.2031967875155,10998.230225296053
5010.229252443328,11631.439651525292
5010.255308234644,12441.530909608658
5010.281364161464,13430.883156962187
5010.307420223788,14098.060423735351
5010.333476421617,14861.757219922676
5010.359532754951,15502.690573969614
5010.3855892237925,16012.442077814989
5010.4116458281405,16214.506734830975
5010.437702567997,16731.49193648113
5010.463759443362,16743.121627210236
5010.489816454236,16752.22150926487
5010.51587360062,16691.946389132925
5010.541930882514,16763.23218725716
5010.56798829992,16657.36352172935
5010.5940458528385,16460.93017460459
5010.62010354127,16001.4154326784
5010.646161365214,15690.006438641572
5010.672219324672,15431.166371337782
5010.698277419646,14971.035983228954
5010.724335650135,14527.343511503477
5010.7503940161405,13998.091253504877
5010.7764525176635,13519.585432027041
5010.802511154703,13089.117057827805
5010.828569927262,12671.87196392816
5010.85462883534,12394.010507294282
5010.880687878937,12183.4000133175
5010.906747058056,12268.932278444092
5010.932806372695,12565.175186137347
5010.958865822856,13105.236458232512
5010.98492540854,13848.638783664697
5011.0109851297475,14742.979077614895
5011.0370449864795,15397.513935668374
5011.063104978735,15871.337462780368
5011.089165106517,16241.411683833723
5011.115225369825,16414.039205736608
5011.14128576866,16586.094310284934
5011.167346303022,16755.786697449144
5011.193406972913,16822.775511553195
5011.219467778333,16801.92020021774
5011.2455287192815,16991.785751960586
5011.271589795761,16861.6448120408
5011.297651007772,16847.032815802937
5011.323712355315,16899.959169833866
5011.34977383839,16939.399870605765
5011.375835456999,16729.87978790667
5011.401897211142,16616.671276848763
5011.427959100819,16576.5535570541
5011.454021126031,16398.338130716435
5011.4800832867795,16142.274667447351
5011.506145583065,15930.764159954206
5011.532208014888,15603.033515413337
5011.558270582248,15214.221584990317
5011.584333285148,14813.130267858307
5011.610396123588,14319.155595956716
5011.636459097567,13891.6833665446
5011.662522207088,13369.810702808598
5011.68858545215,12858.356964051087
5011.714648832754,12288.885785279132
5011.740712348902,11631.919773264879
5011.766776000594,11112.721757870118
5011.79283978783,10454.82025752487
5011.818903710611,9635.445771585308
5011.844967768939,8963.3166693867
5011.871031962813,8243.312831582914
5011.897096292234,7446.377469345454
5011.923160757203,6667.235346684122
5011.949225357721,5918.600227380307
5011.975290093788,5188.628885264117
5012.001354965406,4821.814045174322
5012.027419972574,4685.903354000727
5012.053485115294,4878.747423749683
5012.079550393566,5397.256746871078
5012.105615807392,6012.299255291373
5012.13168135677,6747.877587192627
5012.157747041703,7612.732030123615
5012.183812862192,8545.010128850792
5012.209878818236,9321.760379436471
5012.235944909837,9921.663018450205
5012.262011136994,10452.217638318481
5012.28807749971,10711.702555114187
5012.3141439979845,10698.005607782867
5012.340210631818,10654.490812277161
5012.366277401212,10562.741022431583
5012.392344306166,10428.727473580882
5012.418411346682,10453.618192836542
5012.44447852276,10634.39811312786
5012.470545834401,10993.155425096675
5012.496613281605,11587.40493101324
5012.522680864374,12052.802182319248
5012.548748582707,12622.321844781296
5012.574816436606,12826.800594270238
5012.600884426071,13009.744946074334
5012.626952551104,13226.706760913617
5012.653020811705,13265.635758663815
5012.679089207873,13540.450323575846
5012.705157739611,13916.574204275714
5012.73122640692,14323.751673615088
5012.757295209798,14888.239626521003
5012.7833641482475,15433.906855119041
5012.80943322227,16039.49876931124
5012.835502431864,16168.063660797896
5012.861571777033,16056.230214638428
5012.887641257775,16181.061938073479
5012.9137108740915,16202.444582542197
5012.939780625984,16028.718144569846
5012.965850513452,15800.187392764377
5012.991920536498,15644.244868047615
5013.017990695121,15239.38412109995
5013.044060989323,14762.950857960866
5013.070131419104,14177.447341030302
5013.096201984464,13657.52722322117
5013.122272685405,13259.437912447343
5013.148343521927,12626.527412417698
5013.17441449403,11852.519133363694
5013.200485601717,11375.570240374025
5013.226556844987,11024.264930227439
5013.2526282238405,10533.953359993235
5013.278699738279,10309.229193102536
5013.304771388303,10436.291917605457
5013.330843173913,10651.291007151207
5013.35691509511,10771.555226021435
5013.382987151894,11019.90066440758
5013.409059344267,11231.520761762353
5013.435131672228,11034.092649204047
5013.46120413578,10738.966547249509
5013.487276734921,10214.552181440356
5013.513349469653,9723.579586409394
5013.539422339977,9188.457923360953
5013.565495345894,8567.958060612365
5013.5915684874035,7960.350284401229
5013.617641764507,7774.588520299577
5013.643715177206,7596.114145319531
5013.6697887254995,7829.751746730629
5013.695862409389,8322.993017153083
5013.721936228875,8880.7749986143
5013.748010183958,9881.197767897142
5013.77408427464,10717.868849701708
5013.800158500921,11475.423817031195
5013.826232862801,12066.577918257824
5013.852307360281,12246.046061136327
5013.8783819933615,12359.189508333942
5013.904456762045,12245.600370782528
5013.930531666329,11931.470065651914
5013.956606706218,11463.720299203727
5013.982681881709,11008.8642901873
5014.008757192805,10368.559888781949
5014.034832639507,9665.142628596532
5014.060908221814,8836.137088132751
5014.086983939728,7952.839172670587
5014.113059793249,7319.145182963424
5014.139135782378,6679.1539559845205
5014.165211907116,6204.619965417091
5014.1912881674625,6157.656572125247
5014.21736456342,6372.659110282728
