wave,flux
4450.003811362098,34331.70430128874
4450.026953690486,33821.540969924325
4450.050096139227,33157.76823766046
4450.073238708321,32076.684264838455
4450.096381397769,31070.09775346689
4450.119524207569,29799.164086408906
4450.142667137726,28271.15204878037
4450.165810188237,26665.57167927269
4450.188953359103,24902.075227966066
4450.212096650326,23134.759502499568
4450.2352400619075,21401.59688595955
4450.258383593846,19722.558778745562
4450.281527246142,18204.60919346907
4450.304671018797,16754.248061773378
4450.327814911813,15354.387685378144
4450.350958925188,14267.280713783199
4450.374103058924,13156.411813182176
4450.3972473130225,12324.21964196529
4450.420391687483,11617.360971269138
4450.443536182305,11048.203381217601
4450.466680797492,10889.119079252376
4450.489825533042,10859.56009607699
4450.512970388957,11109.8307196778
4450.536115365237,11661.385521927363
4450.559260461882,12355.886857398684
4450.582405678895,13379.739628385612
4450.605551016274,14566.167530870813
4450.628696474022,15835.747418865862
4450.651842052138,17145.104656191786
4450.674987750623,18448.945954250197
4450.698133569476,19619.246127750605
4450.721279508702,20965.564187138945
4450.744425568297,22341.53518677277
4450.767571748264,23721.67319663543
4450.790718048604,24836.11995976141
4450.813864469315,26053.954929331732
4450.837011010401,27350.925181053448
4450.86015767186,28340.20031526406
4450.883304453694,29405.076183834426
4450.906451355903,30712.267694878232
4450.929598378489,32237.02287744433
4450.95274552145,33377.56648313258
4450.975892784789,34802.30422471952
4450.999040168505,35920.457168111374
4451.022187672601,36811.6383912562
4451.045335297074,37637.382730675425
4451.068483041929,38396.50908924188
4451.091630907163,38525.788638983424
4451.114778892777,38372.95748836377
4451.137926998774,38216.546051805046
4451.161075225153,38108.6347600163
4451.184223571914,37431.19493542669
4451.207372039059,36820.175663041366
4451.230520626587,36070.08580915475
4451.253669334501,35201.31831638296
4451.2768181628,34373.75042700792
4451.299967111485,33314.00137317582
4451.323116180556,31939.391098436336
4451.346265370014,30714.897933328186
4451.369414679861,29735.790387550194
4451.392564110095,28277.69643325869
4451.415713660719,26999.373258282998
4451.438863331732,25722.205460937883
4451.462013123136,24056.735995451356
4451.48516303493,22812.068335726042
4451.508313067117,22069.244908187182
4451.531463219695,21311.876313114324
4451.554613492666,21119.550047282326
4451.577763886031,21253.535753543507
4451.60091439979,21958.79236754675
4451.624065033943,23186.941532931734
4451.647215788492,24607.81861112129
4451.670366663436,26138.267072944553
4451.693517658777,27975.186543007992
4451.716668774516,29176.5818228588
4451.739820010652,30598.978361873225
4451.762971367186,31843.81076502172
4451.78612284412,32455.822751254873
4451.8092744414525,33369.697964488194
4451.832426159187,33612.43740538885
4451.855577997321,33676.888386520906
4451.878729955857,33777.28002373212
4451.901882034796,33662.57539596851
4451.925034234137,33102.770620185736
4451.948186553881,32884.1762245199
4451.97133899403,32813.678395860654
4451.994491554583,33030.35821985497
4452.017644235542,33392.88596343041
4452.040797036907,33939.4219260447
4452.063949958678,34535.01828384241
4452.087103000857,35262.717273530696
4452.1102561634425,35858.45404190603
4452.133409446437,36508.417087958216
4452.156562849841,37477.24530996505
4452.179716373655,38271.28797653682
4452.202870017878,38606.53076429238
4452.226023782513,38549.75999542031
4452.24917766756,38777.49090428628
4452.272331673018,39236.43738342866
4452.29548579889,39214.32184514624
4452.318640045174,38820.13033828449
4452.341794411874,38269.76778868447
4452.364948898987,38100.76967980043
4452.388103506516,37751.56417321337
4452.4112582344615,37175.06929896077
4452.434413082823,36531.62359330021
4452.457568051602,35785.37316220356
4452.480723140799,35129.25802563372
4452.503878350413,34168.91182304746
4452.527033680448,33637.530058094024
4452.550189130902,32809.173565726414
4452.5733447017765,32075.280506936928
4452.596500393071,31498.127352414984
4452.619656204789,31357.51553454153
4452.642812136928,30837.771994220686
4452.66596818949,30568.54624396802
4452.689124362475,30353.451099250084
4452.7122806558855,30367.796086548653
4452.735437069719,30196.840386476393
4452.7585936039795,30632.34559258434
4452.781750258665,30788.16614832206
4452.804907033777,30895.283044221054
4452.828063929317,31058.895718092743
4452.851220945285,31473.69816242335
4452.87437808168,31381.348885832318
4452.897535338506,31193.764462926803
4452.92069271576,31227.55532279478
4452.943850213445,30746.531411359883
4452.967007831562,30514.00038257529
4452.99016557011,30168.22561535679
4453.01332342909,29835.188771894926
4453.036481408502,30049.97794110458
4453.059639508349,30311.915972480507
4453.08279772863,30440.865884959287
4453.105956069345,30627.69119842932
4453.129114530496,30388.740468731172
4453.152273112083,30261.2204195315
4453.175431814107,30096.057945700875
4453.198590636567,29687.956905900533
4453.221749579466,29207.63436748879
4453.244908642802,28758.99710753406
4453.268067826579,28602.684160745284
4453.291227130795,28530.17516031145
4453.314386555451,28638.27001475302
4453.337546100549,29018.837132001194
4453.360705766087,29959.856586807608
4453.3838655520685,31060.78388446311
4453.407025458493,31786.04843191265
4453.430185485361,33062.729961446435
4453.453345632673,33944.04108821474
4453.476505900429,34233.018549625966
4453.4996662886315,34825.40464854657
4453.52282679728,35077.86049177315
4453.545987426375,35235.33375160614
4453.569148175917,35408.288198190465
4453.592309045907,34971.25468048821
4453.615470036346,34740.89807776572
4453.638631147233,34375.17651655683
4453.661792378571,34090.21668857149
4453.684953730359,34326.97253741613
4453.708115202598,34499.846578171
4453.731276795288,34936.139028468424
4453.754438508431,35352.65170414925
4453.777600342027,35856.65697293132
4453.800762296077,36691.3720756743
4453.82392437058,36952.89885666802
4453.847086565538,37837.09890145107
4453.870248880952,37782.50851232361
4453.8934113168225,38246.32390478899
4453.916573873149,38084.719498458646
4453.939736549933,37902.30765410695
4453.962899347174,37576.03437603789
4453.986062264875,37183.82266393341
4454.009225303034,36729.69866723983
4454.032388461654,35804.92400673389
4454.055551740734,34762.24414729949
4454.078715140275,33883.36170427301
4454.101878660277,32680.04381567528
4454.125042300742,31653.390212375252
4454.14820606167,30398.479786881475
4454.171369943061,29014.017886399157
4454.194533944917,27531.894174121215
4454.2176980672375,26314.959565300604
4454.240862310024,24454.508506226422
4454.264026673275,22755.63213724846
4454.287191156994,21266.839965927353
4454.31035576118,19852.410227677243
4454.333520485834,18593.169748458342
4454.356685330957,17488.797598288216
4454.379850296548,16594.09849168331
4454.40301538261,16276.738684928012
4454.426180589142,16350.082975275094
4454.449345916145,16300.284862770905
4454.4725113636205,16464.384379581075
4454.495676931568,16795.989706919943
4454.5188426199875,16906.94687359227
4454.542008428882,16807.87610332463
4454.565174358249,16490.4625447609
4454.588340408092,15969.62496615949
4454.611506578411,15282.288125510157
4454.634672869205,14407.137602173
4454.657839280476,13443.781883659847
4454.681005812225,12565.283268528143
4454.704172464451,11836.352378761163
4454.727339237156,11353.83599260302
4454.750506130341,10958.814843457996
4454.773673144005,10814.423121757787
4454.79684027815,11125.26708495626
4454.820007532776,11510.824927013136
4454.843174907884,12135.432675225436
4454.866342403473,13119.705729119229
4454.889510019546,13988.19984101584
4454.912677756102,14988.49607666718
4454.935845613144,15922.017570808
4454.959013590669,17169.541146843243
4454.982181688681,17995.365530633757
4455.005349907178,19025.04847163543
4455.028518246162,19951.360357672733
4455.051686705633,20923.283047981728
4455.074855285593,21980.46258837839
4455.098023986041,22633.753363369866
4455.121192806979,23677.049780803343
4455.144361748406,24205.483635288252
4455.167530810323,24715.943933892417
4455.190699992732,24962.757043141668
4455.213869295633,24864.12599059125
4455.237038719026,24511.567407496077
4455.260208262912,24416.70785595865
4455.283377927292,24975.055010081247
4455.306547712166,25098.438756456027
4455.329717617535,25894.739189450487
4455.352887643399,26755.48258791293
4455.37605778976,28311.516210373113
4455.399228056617,29393.410957382537
4455.422398443972,30493.146469311425
4455.445568951825,31071.316927491363
4455.468739580177,31614.189609078145
4455.491910329028,31868.202053482306
4455.515081198378,31351.258288951085
4455.538252188229,31260.68336750365
4455.561423298582,30351.15432993709
4455.584594529436,29287.51879815142
4455.607765880793,28515.58869467234
4455.630937352652,26940.893561445548
4455.654108945016,25686.49376839816
4455.677280657883,24525.838516417225
4455.700452491255,22998.66313161772
4455.723624445134,21628.787744036257
4455.746796519518,20296.341294011163
4455.7699687144095,19001.710957545605
4455.793141029808,18074.399656276943
4455.816313465714,17354.126175112353
4455.83948602213,16838.957703344517
4455.862658699055,16814.535184796336
4455.885831496489,17356.4018565933
4455.909004414434,18202.895190508123
4455.932177452891,19402.012981073014
4455.955350611858,20868.965898741226
4455.978523891339,22555.565695910012
4456.001697291333,24395.041070466727
4456.024870811841,25902.16328200586
4456.048044452862,27262.96958589017
4456.071218214399,28673.23622096151
4456.094392096451,29432.635077767492
4456.117566099019,30072.001196686484
4456.140740222105,30390.43436444934
4456.163914465707,30153.73551898428
4456.187088829828,29741.216293639864
4456.210263314468,29293.066042054477
4456.233437919626,28565.54906888361
4456.256612645306,27479.54749626321
4456.279787491505,26491.333246043116
4456.302962458226,25657.127444138747
4456.326137545469,24950.924074621926
4456.349312753233,24588.25839750595
4456.372488081522,24397.945878269635
4456.395663530333,24206.686228436123
4456.41883909967,24331.42343632239
4456.442014789531,24657.38857363847
4456.465190599917,24863.46834328793
4456.488366530831,24979.683363299515
4456.5115425822705,25086.15871932995
4456.5347187542375,25037.231530088313
4456.557895046733,24742.05765982114
4456.581071459757,24556.04301446518
4456.604247993311,24842.72577734994
4456.627424647395,25307.813990075287
4456.650601422009,25880.32910642562
4456.673778317154,27148.326679959024
4456.696955332832,28319.57558837776
4456.720132469041,29326.587334911266
4456.7433097257845,30585.661243043978
4456.766487103061,31923.464873313107
4456.789664600872,32929.7558655508
4456.8128422192185,33752.914688400175
4456.8360199581,34181.29007495923
4456.859197817518,34303.609998476655
4456.882375797473,34332.0707537728
4456.905553897966,34215.405418276365
4456.928732118997,34125.01716904172
4456.951910460566,33871.17785114914
4456.975088922674,33391.451513536755
4456.998267505323,33143.21545643477
4457.021446208513,32860.114750607274
4457.044625032244,32550.5754747983
4457.067803976516,32538.452094439894
4457.090983041332,32574.45506387402
4457.1141622266905,32549.10399060185
4457.1373415325925,32078.231538529253
4457.160520959039,31838.797891178772
4457.183700506031,31379.466605204616
4457.206880173568,30842.235455711554
4457.230059961651,29829.56387780801
4457.2532398702815,28881.60629076977
4457.27641989946,27748.775176411265
4457.299600049186,26704.73058463734
4457.322780319461,25349.795109116563
4457.345960710286,24075.04421257937
4457.36914122166,22840.93329286592
4457.392321853586,22111.3466780755
4457.415502606062,21457.554132765912
4457.43868347909,21025.060687311634
4457.461864472672,21405.048113498025
4457.485045586805,22196.737209523395
4457.508226821494,23026.027786012502
4457.5314081767365,24251.12338058024
4457.554589652534,25731.278809463627
4457.577771248887,27468.90552612919
4457.600952965797,28995.762685896738
4457.624134803263,30655.20000148977
4457.647316761288,31513.521619538373
4457.67049883987,32584.712285554004
4457.693681039011,33456.311074988014
4457.716863358712,33683.59087776411
4457.7400457989725,34075.03361922647
4457.763228359793,33719.12238610853
4457.7864110411765,33674.74906342917
4457.809593843121,33222.705872490755
4457.832776765628,32696.952380258044
4457.855959808699,31925.945467821322
4457.879142972333,31313.561656038128
4457.902326256532,30140.402024179522
4457.925509661296,29375.63573680171
4457.948693186626,28126.776943791167
4457.971876832522,26943.598005530475
4457.995060598985,25924.51876977782
4458.018244486016,24383.01053079908
4458.041428493615,23692.57808815195
4458.0646126217825,22854.213601000316
4458.08779687052,22351.61823724934
4458.110981239827,22419.913389563048
4458.134165729705,22288.480882218064
4458.157350340155,22791.408681558678
4458.180535071177,23091.588773203697
4458.203719922771,23342.56071373396
4458.226904894938,23945.56065044967
4458.2500899876795,24834.982954868126
4458.273275200995,25092.844984970583
4458.296460534886,25978.936380490657
4458.3196459893525,27027.340027773433
4458.342831564396,27675.963370270147
4458.366017260016,28375.358205810015
4458.389203076214,29071.472135986907
4458.4123890129895,29768.652951344513
4458.435575070344,30000.69412366897
4458.458761248279,29841.436546077537
4458.481947546794,29953.869074181574
4458.505133965889,29776.452815731875
4458.528320505566,30258.06987147338
4458.551507165825,30405.00897453981
4458.574693946666,31294.06371705904
4458.597880848091,31767.285967630232
4458.6210678701,32412.39248411481
4458.644255012693,32908.85238346322
4458.6674422758715,33070.58081215585
4458.690629659636,32863.31110154096
4458.713817163986,32574.39876953829
4458.737004788924,31562.782672015495
4458.76019253445,30901.516329803206
4458.783380400563,29889.971638296658
4458.8065683872655,28136.60797093621
4458.829756494558,26838.48242616836
4458.85294472244,25500.996636592394
4458.876133070914,24044.164865355204
4458.899321539979,22485.192625662625
4458.922510129635,20465.792490268646
4458.945698839884,18680.493930875993
4458.968887670727,17177.208397017635
4458.992076622164,15583.15749818384
4459.015265694195,14354.25342289939
4459.0384548868215,13182.172431002144
4459.061644200044,12523.311138496143
4459.084833633862,12254.244730562597
4459.108023188278,12238.083820562171
4459.131212863292,12347.172767029331
4459.154402658904,13108.56022767642
4459.177592575114,14246.587642960072
4459.200782611925,14961.285144325198
4459.223972769336,16455.51628564136
4459.247163047347,17813.751187865997
4459.27035344596,19349.98849929444
4459.293543965176,20873.33354654812
4459.316734604993,22201.875766538542
4459.339925365414,23653.964497624223
4459.363116246439,25249.633769852946
4459.386307248069,26898.141364116396
4459.409498370304,28266.461585070687
4459.432689613145,30085.026370779407
4459.455880976592,31396.326967777095
4459.479072460647,32463.00785671455
4459.502264065309,33460.85749486796
4459.52545579058,33876.126390163845
4459.5486476364595,34629.07304654468
4459.571839602949,34420.44430614186
4459.595031690048,34863.51368749826
4459.618223897759,34802.136495872604
4459.641416226081,34343.397860888464
4459.664608675014,33915.0170136416
4459.687801244561,33955.20927323734
4459.710993934721,33498.96226975286
4459.734186745496,33268.13860562202
4459.757379676885,33198.992655386195
4459.780572728889,33644.0224127251
4459.803765901509,33696.19242954139
4459.8269591947455,33755.8642417699
4459.850152608599,34289.648002053334
4459.87334614307,34251.946950285484
4459.89653979816,34300.27378588732
4459.91973357387,33712.095896117586
4459.942927470198,33357.5123179959
4459.966121487147,32662.462910030765
4459.989315624717,31976.396299036438
4460.0125098829085,30881.59931528937
4460.035704261722,29770.730642890438
4460.058898761158,28488.48145811975
4460.082093381218,27498.861104015763
4460.105288121902,26099.498464523007
4460.12848298321,24545.449305963954
4460.151677965145,23543.623098032174
4460.1748730677045,22570.92342816081
4460.198068290891,22040.20771536731
4460.221263634704,21824.627094664018
4460.244459099145,22069.04022273543
4460.267654684215,22714.49537886918
4460.290850389914,24014.92556362165
4460.314046216243,25484.148806565212
4460.337242163202,27151.220572985312
4460.360438230791,28764.13050484884
4460.383634419013,30526.44326157408
4460.406830727867,32389.4187789678
4460.430027157354,33825.20616486001
4460.453223707474,35217.93215070349
4460.476420378228,36347.33837758363
4460.499617169617,37040.24273850375
4460.522814081641,37485.19934893849
4460.5460111143,37997.61676561227
4460.569208267598,38267.92978557967
4460.592405541532,38322.271024574395
4460.615602936104,38233.186340527
4460.638800451314,38307.04757205278
4460.661998087163,37936.33359810865
4460.685195843652,37776.69978464981
4460.708393720782,37507.490633089685
4460.731591718552,36973.40971542865
4460.754789836965,36134.378600309006
4460.777988076019,35540.37713278713
4460.801186435716,34855.034771653525
4460.824384916057,34120.756004378476
4460.847583517042,33235.59011390954
4460.870782238671,32378.465959279318
4460.893981080947,31413.326216611
4460.917180043868,30250.63559012148
4460.940379127435,28836.31810435216
4460.963578331651,27314.15222084263
4460.986777656513,25885.482989617496
4461.009977102025,24358.95041725895
4461.033176668186,22825.652560206407
4461.056376354995,21282.27961460791
4461.079576162457,19774.65189312884
4461.102776090568,18750.82322647121
4461.125976139332,17862.037056550274
4461.149176308748,17332.827018523585
4461.172376598816,17100.135254874334
4461.195577009538,16809.390749173228
4461.218777540915,16692.40675903871
4461.241978192946,16719.044015907104
4461.265178965633,16848.12596459759
4461.2883798589755,16830.15660639277
4461.311580872974,16643.74954898664
4461.3347820076315,16465.839371567592
4461.357983262946,16087.709078102867
4461.381184638919,15787.180165229665
4461.404386135551,15253.046018338153
4461.4275877528435,14795.460072762564
4461.4507894907965,14511.895633465518
4461.4739913494095,14481.938024980589
4461.497193328685,14169.04844160549
4461.520395428623,13939.284313793682
4461.543597649224,14012.009879159297
4461.566799990488,13462.518673293971
4461.590002452416,13058.131624266427
4461.61320503501,13015.73563955427
4461.636407738269,12806.777358465588
4461.659610562193,12939.687508100329
4461.682813506784,13320.317628492916
4461.706016572044,13901.766069735086
4461.729219757971,14650.605509505844
4461.752423064566,15259.064304005991
4461.775626491831,16129.784248923399
4461.798830039766,17253.452077540256
4461.82203370837,18056.40082033667
4461.845237497647,18331.074579413842
4461.868441407595,18855.71026142549
4461.891645438215,19241.48443353592
4461.914849589509,19052.774466919804
4461.938053861475,19041.23487346429
4461.961258254117,19188.092043649798
4461.984462767433,19263.615853706033
4462.007667401424,19684.42406197831
4462.030872156092,20729.348671831973
4462.0540770314365,21450.60691565664
4462.077282027459,23004.19991772643
4462.100487144158,24215.944552500627
4462.123692381537,25372.997711086588
4462.146897739594,26056.127152595625
4462.170103218332,26680.44374517369
4462.19330881775,27369.325010460285
4462.21651453785,27479.486762378143
4462.239720378631,27580.498828173673
4462.262926340095,27835.256364379224
4462.286132422241,27615.830448976536
4462.309338625071,27032.43522640167
4462.3325449485865,26883.20045183343
4462.355751392785,26416.500002409335
4462.3789579576705,25557.69771144491
4462.402164643242,25471.892253873448
4462.4253714495,25538.66473046785
4462.448578376446,25814.396383847237
4462.471785424079,26595.991427348206
4462.494992592401,27735.78303140438
4462.518199881412,29065.802080785532
4462.541407291114,30136.36444047912
4462.564614821506,31409.214205694847
4462.587822472589,32402.281069163502
4462.611030244365,32954.18021791211
4462.634238136832,33547.786340906
4462.657446149992,33600.739576393455
4462.680654283847,33568.06511809813
