wave,flux
5000.025812696027,38279.13715256075
5000.051815424163,40185.982920390554
5000.0778182875265,42035.38695241943
5000.103821286119,43202.54487893469
5000.12982441994,43314.51477069772
5000.155827688991,42577.86336202807
5000.181831093272,41137.45420598429
5000.207834632784,38900.21280073448
5000.2338383075285,36199.66616625898
5000.259842117506,34091.10161987499
5000.285846062716,33096.29500966621
5000.311850143161,33256.06642448197
5000.33785435884,34217.9342792038
5000.363858709754,35564.511330292444
5000.389863195905,36760.057192482636
5000.415867817292,37900.59711113354
5000.441872573917,38804.76157969864
5000.4678774657805,39017.96425217346
5000.493882492882,39108.227889027134
5000.519887655224,39609.51496369476
5000.545892952806,40210.55729625446
5000.571898385629,41281.9650851085
5000.597903953694,42719.18556872023
5000.623909657001,43627.443517528096
5000.649915495552,45091.13336510742
5000.675921469346,45837.62674282835
5000.701927578384,46115.096678975126
5000.727933822669,46004.95313713623
5000.7539402021985,45987.83289195069
5000.779946716975,45871.67047882635
5000.805953366999,45633.246480392976
5000.831960152272,45456.236577328644
5000.857967072792,44975.42776647911
5000.883974128563,44061.76638761817
5000.9099813195835,42956.120341556765
5000.935988645855,41313.61553525228
5000.961996107378,39071.53030992064
5000.988003704153,36852.79328856745
5001.014011436181,35156.11505482966
5001.040019303464,34939.86504693374
5001.066027306,35422.5985359536
5001.092035443791,36670.072096916665
5001.118043716839,38209.389198013305
5001.1440521251425,39716.8868850805
5001.170060668704,40126.96163797807
5001.196069347523,39982.10464311564
5001.222078161601,39567.54342817125
5001.248087110937,38008.966105001
5001.274096195534,35305.10176590085
5001.300105415392,32050.790539817262
5001.326114770512,28307.209006974186
5001.352124260892,24638.294107553284
5001.3781338865365,21973.737244333628
5001.4041436474445,20096.113303188937
5001.430153543616,19779.03968469673
5001.456163575053,21295.20626766617
5001.482173741756,23548.09001111887
5001.508184043724,26813.76384731312
5001.534194480961,30654.95910531185
5001.560205053464,34307.30874440809
5001.586215761236,37620.431549135516
5001.612226604278,40305.89526316534
5001.638237582589,42398.97383036107
5001.664248696171,44187.69931996791
5001.690259945024,45497.95086571241
5001.716271329149,46286.86617372353
5001.742282848547,46920.86577774666
5001.768294503218,47431.99485825491
5001.794306293164,47819.65718580732
5001.820318218383,48110.55023152762
5001.84633027888,48237.41231374574
5001.872342474651,48087.54061883509
5001.8983548056995,47800.28708580603
5001.924367272026,47614.70236827195
5001.9503798736305,47205.32901747003
5001.976392610514,46779.206431061255
5002.002405482678,46293.99094791004
5002.028418490122,45941.08250996213
5002.054431632847,45478.72965705649
5002.080444910854,44878.09784227619
5002.106458324142,44387.357811525726
5002.1324718727155,43904.18098487956
5002.158485556572,43279.15960048111
5002.184499375713,42253.82265019717
5002.210513330139,40716.78249847539
5002.236527419852,38801.01828545157
5002.262541644852,35703.75271359235
5002.288556005138,32732.677544674
5002.314570500714,30546.6729572928
5002.340585131577,29143.93613020489
5002.36659989773,29713.62318157738
5002.392614799174,31655.30661556273
5002.418629835909,34560.69647557421
5002.444645007936,37488.32507132409
5002.4706603152545,40316.98560022304
5002.496675757866,42751.36877758848
5002.522691335772,44563.09013782412
5002.548707048972,45934.644255346546
5002.574722897468,46846.99200214225
5002.600738881259,47429.201725406405
5002.626755000347,47810.9961936774
5002.652771254732,48204.858434964386
5002.678787644415,48298.18254637479
5002.704804169397,48348.23443918676
5002.730820829678,48163.00960968925
5002.75683762526,48290.3851747647
5002.782854556142,48339.98075355928
5002.8088716223265,48237.878959949296
5002.834888823812,48255.92418656383
5002.860906160601,47998.578914031015
5002.886923632695,48038.694051972474
5002.912941240092,48058.81878515639
5002.938958982793,47852.44617711115
5002.9649768608015,47635.864105547094
5002.990994874116,47336.98368904777
5003.017013022737,47237.832298737674
5003.043031306666,47364.8694061591
5003.069049725905,47289.38573882927
5003.095068280452,47305.74624013912
5003.121086970309,47448.44673276702
5003.147105795477,47396.020702107155
5003.173124755956,46595.26512421336
5003.199143851748,45651.4605740022
5003.225163082852,44414.44367063156
5003.251182449269,43115.90716949871
5003.277201951001,41912.53700580248
5003.3032215880485,41504.64538334979
5003.32924136041,41694.149088084174
5003.35526126809,42388.98635057286
5003.381281311085,43283.08241700444
5003.407301489398,43845.70255619472
5003.433321803031,44174.67418190664
5003.459342251982,44083.56160448384
5003.4853628362525,43150.68174925424
5003.511383555844,41702.56832607445
5003.537404410757,39748.49749947274
5003.563425400991,37995.68099761696
5003.589446526548,37166.34143307904
5003.615467787429,37204.09193667476
5003.641489183634,38111.01567023547
5003.667510715163,39342.73295676472
5003.693532382018,40743.71176442888
5003.719554184199,41723.07241736532
5003.745576121707,42757.74389921732
5003.771598194542,43682.89777093777
5003.797620402706,44153.00600935435
5003.823642746199,44388.190637204534
5003.849665225021,44486.39120261235
5003.875687839174,44596.78739250421
5003.901710588658,44811.65194608413
5003.927733473473,45085.37532887284
5003.953756493622,45586.48367911521
5003.979779649103,46043.73508030194
5004.005802939919,46422.01391631836
5004.031826366068,47198.317655405706
5004.057849927553,47733.06145040787
5004.083873624375,47881.12437053669
5004.109897456533,48179.888318958205
5004.135921424028,48316.46521027214
5004.161945526862,48281.01121516012
5004.187969765035,48410.313055507126
5004.213994138547,48447.284686414154
5004.240018647399,48365.326672742005
5004.266043291592,48522.82940530277
5004.292068071127,48193.60925448851
5004.318092986004,47784.66907709893
5004.344118036223,47644.59470694938
5004.370143221788,47219.86137775516
5004.396168542696,46406.13254709904
5004.422193998949,45575.807870409364
5004.448219590549,45405.28617383693
5004.474245317495,45111.320304562796
5004.500271179789,44777.6997568799
5004.52629717743,43834.95424982503
5004.5523233104195,43024.84736885866
5004.578349578759,41392.71260392603
5004.604375982449,38859.34540137197
5004.630402521489,35743.86223411324
5004.656429195881,32332.776991110615
5004.682456005625,29454.85404804659
5004.708482950721,27922.15055629768
5004.734510031172,27836.99619316571
5004.760537246977,29241.540716402476
5004.7865645981365,31835.758090609288
5004.812592084652,34714.978442010135
5004.838619706525,37468.2519754075
5004.8646474637535,39974.468472373876
5004.890675356341,42117.96424964575
5004.916703384286,43767.87933347175
5004.942731547591,44273.82822387973
5004.968759846256,44379.504105214284
5004.994788280281,44029.37080032767
5005.020816849668,43424.1863994597
5005.046845554417,42469.74571606905
5005.072874394528,40705.46431308194
5005.098903370003,38665.7214049067
5005.124932480842,36110.27160635505
5005.150961727047,32770.7468878144
5005.176991108617,28961.904426597786
5005.203020625552,25383.02652991748
5005.229050277856,22516.503546137184
5005.255080065526,20875.924189602112
5005.281109988566,20894.82510273264
5005.3071400469735,22150.952243278825
5005.333170240751,24320.7900068711
5005.3592005699,27072.020025510898
5005.38523103442,29649.610199955507
5005.411261634312,31913.869554260913
5005.4372923695755,33369.207330733945
5005.463323240213,33579.30217060817
5005.489354246225,32966.748343995336
5005.515385387611,31209.913504303433
5005.541416664373,28565.80309371578
5005.567448076511,25120.3171938069
5005.593479624025,22263.22336943797
5005.619511306918,19387.45799809802
5005.645543125189,17636.552352195176
5005.671575078838,17169.256632218585
5005.697607167867,17963.27123692857
5005.723639392277,19944.534897664875
5005.749671752068,23012.735743004458
5005.77570424724,26624.0020058293
5005.8017368777955,30398.69102222421
5005.8277696437335,34099.521831066355
5005.853802545055,37403.009299336554
5005.879835581762,40278.393464916895
5005.905868753854,42560.32223032402
5005.931902061331,44235.74891227724
5005.957935504196,45651.46553983887
5005.983969082448,46241.04489303264
5006.010002796088,46888.104690106535
5006.036036645117,47263.868967518945
5006.062070629536,47257.53476352415
5006.088104749344,47578.07498555418
5006.114139004544,47331.670961081734
5006.140173395135,47182.407590551826
5006.166207921118,47212.03142086244
5006.192242582495,47013.13070941521
5006.218277379266,46851.36431730071
5006.244312311431,46651.3732302334
5006.270347378991,46757.7857821787
5006.296382581946,46860.44245663869
5006.322417920299,46664.89556035994
5006.348453394048,46468.85496541305
5006.374489003196,46279.96465735413
5006.400524747743,46118.00450592997
5006.426560627688,46081.707262642594
5006.452596643034,45802.80150867053
5006.47863279378,45134.66529779865
5006.504669079928,44537.97271746697
5006.530705501478,43880.33836601439
5006.556742058431,42943.18991596336
5006.582778750788,41576.92913043013
5006.608815578549,39167.42011185762
5006.634852541715,36296.3777446774
5006.660889640287,32839.540521384486
5006.686926874265,29101.501026833976
5006.71296424365,25112.54759877648
5006.739001748444,21871.563882483224
5006.765039388645,19565.075618615632
5006.791077164256,18542.379752561374
5006.817115075277,18744.57654484159
5006.843153121708,20411.454245436515
5006.869191303552,23435.349316497937
5006.895229620806,26908.52688316347
5006.921268073474,30654.785403478403
5006.947306661555,34596.25102660186
5006.97334538505,37883.874322283235
5006.999384243961,40561.39297158016
5007.025423238286,43128.38122961299
5007.051462368028,44813.659250587494
5007.077501633187,45864.520434194594
5007.103541033764,46523.47672482515
5007.129580569759,47015.36597684647
5007.155620241173,46897.49039219277
5007.181660048007,46070.129532215724
5007.207699990262,45114.97900025631
5007.233740067937,44411.660716363665
5007.259780281035,43441.95614793989
5007.285820629555,43240.82411666514
5007.311861113499,43681.66900291278
5007.337901732866,44484.84861717593
5007.363942487658,45666.095849278856
5007.389983377876,46782.56993247169
5007.41602440352,47658.90271000794
5007.442065564591,48295.3887943521
5007.468106861089,48689.45713887333
5007.494148293015,49041.27475482418
5007.520189860371,49233.13705959327
5007.546231563156,49165.134577080695
5007.572273401372,49149.56042505262
5007.598315375018,49270.4970284473
5007.624357484096,49234.99733555599
5007.650399728607,49414.18653500004
5007.676442108551,49526.03821656481
5007.702484623929,49442.81090193506
5007.728527274741,49833.575832666036
5007.754570060989,49751.527486814164
5007.780612982673,49874.1904560099
5007.806656039793,50206.96034609942
5007.832699232351,50118.03879111276
5007.858742560347,49815.469307975996
5007.884786023782,49968.73855984226
5007.910829622656,50008.38121091191
5007.936873356971,49999.827975504544
5007.962917226726,49958.20902094098
5007.988961231923,49731.322451073465
5008.015005372563,49638.35360436282
5008.041049648646,49507.12419091881
5008.067094060171,49174.070630289076
5008.0931386071425,48733.38640682524
5008.119183289558,47940.93083321254
5008.14522810742,47315.651476129606
5008.171273060728,47013.70158136327
5008.197318149483,46427.91486678472
5008.223363373687,46516.11629454657
5008.249408733339,47242.53739655866
5008.27545422844,47760.16011782828
5008.301499858992,48377.99833295208
5008.327545624995,49097.463925140044
5008.353591526448,49343.232409194934
5008.379637563355,49172.83235823423
5008.405683735714,49210.98828609844
5008.431730043527,49532.04394275056
5008.457776486794,49359.26875357169
5008.483823065515,49198.307553513005
5008.509869779693,49303.18901021768
5008.535916629327,49181.192366097865
5008.561963614418,49262.2010571885
5008.588010734968,49543.724204160004
5008.614057990975,49593.43266824013
5008.640105382442,49550.52981254695
5008.666152909369,49635.639596481706
5008.692200571756,49730.3734184066
5008.718248369605,49569.17060424271
5008.744296302916,49583.00080763233
5008.77034437169,49759.86363964668
5008.796392575927,49971.903221623375
5008.822440915628,49825.89431828238
5008.848489390794,49749.03829606427
5008.874538001426,49817.981585359565
5008.900586747524,49711.05974497677
5008.926635629089,49530.56602695004
5008.952684646122,49127.74878906177
5008.978733798623,48917.53083261933
5009.004783086593,48709.67412678056
5009.030832510033,48668.606238479006
5009.056882068944,48351.99230322942
5009.082931763326,47963.55841536826
5009.108981593179,47471.70530540431
5009.135031558506,46961.23842139898
5009.161081659306,46257.51929704299
5009.187131895579,45817.893299690084
5009.213182267327,45676.07791825366
5009.239232774552,45848.12888078188
5009.265283417251,46420.81026484641
5009.291334195428,46757.81165413307
5009.317385109083,46987.14659083546
5009.343436158216,47311.31966339174
5009.369487342828,47520.223025844374
5009.395538662919,47635.89440246438
5009.421590118491,47360.88968244414
5009.447641709544,46332.671543050434
5009.473693436078,45115.76585734811
5009.499745298095,43499.53617349184
5009.525797295596,41452.371304841865
5009.55184942858,39690.46181131776
5009.577901697049,38510.34865951955
5009.603954101003,37187.5086781413
5009.630006640443,36291.5529552847
5009.65605931537,34925.59728546105
5009.682112125784,32822.85803131377
5009.708165071686,30575.791477148177
5009.7342181530785,28923.600616550677
5009.760271369959,28425.28958330838
5009.78632472233,29150.460403216377
5009.812378210192,30990.19844717587
5009.838431833546,33501.35284204393
5009.864485592391,36423.90101534009
5009.890539486731,39350.01610279447
5009.916593516564,42004.35468298039
5009.942647681891,44252.26453998613
5009.968701982713,45959.52824438153
5009.994756419032,47362.030207213014
5010.020810990847,48121.925628877834
5010.046865698159,48816.03021986294
5010.072920540969,49206.72532241884
5010.098975519279,49632.25522247585
5010.125030633087,49616.31198124057
5010.151085882395,49588.559101890445
5010.177141267204,49762.442036562585
5010.2031967875155,49511.449455749425
5010.229252443328,49221.59587039439
5010.255308234644,49040.82069456238
5010.281364161464,48631.76200807607
5010.307420223788,47886.1807145658
5010.333476421617,47078.052440872
5010.359532754951,45689.545324586354
5010.3855892237925,43983.120017401074
5010.4116458281405,41785.99545210879
5010.437702567997,39471.18987311645
5010.463759443362,37994.52449451255
5010.489816454236,37181.49689392762
5010.51587360062,37622.00828713775
5010.541930882514,39269.10591483479
5010.56798829992,41246.42713530582
5010.5940458528385,43336.24882604264
5010.62010354127,45229.26444090829
5010.646161365214,46638.283211193375
5010.672219324672,47552.76720032672
5010.698277419646,48406.642475470224
5010.724335650135,48990.56401539756
5010.7503940161405,48976.04683757185
5010.7764525176635,49152.82714340738
5010.802511154703,49255.813034968094
5010.828569927262,49583.04575417812
5010.85462883534,49586.20037917054
5010.880687878937,49775.1034204115
5010.906747058056,49820.488054952955
5010.932806372695,50012.00669523531
5010.958865822856,49970.8988744753
5010.98492540854,49627.70228202987
5011.0109851297475,49577.50210308071
5011.0370449864795,49400.11492918689
5011.063104978735,49407.525888473356
5011.089165106517,49018.252675118856
5011.115225369825,48537.08498990189
5011.14128576866,47758.29002778392
5011.167346303022,47089.027288330486
5011.193406972913,46074.33934106866
5011.219467778333,44533.71486485567
5011.2455287192815,43167.90240211657
5011.271589795761,42322.039654858614
5011.297651007772,41686.86911743654
5011.323712355315,41203.65349717801
5011.34977383839,40669.06540741217
5011.375835456999,39851.07915984102
5011.401897211142,39099.376688502474
5011.427959100819,37643.80906472551
5011.454021126031,35315.52074298531
5011.4800832867795,32240.369521527336
5011.506145583065,28578.26359725455
5011.532208014888,24722.052918097714
5011.558270582248,21249.53843740078
5011.584333285148,18569.008262400796
5011.610396123588,16718.74400429025
5011.636459097567,15898.186779380057
5011.662522207088,16538.76013981189
5011.68858545215,18263.338378228014
5011.714648832754,20825.37909099838
5011.740712348902,24468.124983484995
5011.766776000594,28264.583121280375
5011.79283978783,31775.203903086214
5011.818903710611,34874.3957969173
5011.844967768939,36929.219205943584
5011.871031962813,37709.92125861412
5011.897096292234,37124.668834395256
5011.923160757203,35820.5867897959
5011.949225357721,34337.60484356464
5011.975290093788,33156.911841891575
5012.001354965406,33076.181258890385
5012.027419972574,33897.19286426609
5012.053485115294,35539.61986901657
5012.079550393566,37647.68639483946
5012.105615807392,39528.375674852636
5012.13168135677,40930.79764361628
5012.157747041703,41281.76740028874
5012.183812862192,40940.339484334196
5012.209878818236,40244.248532351405
5012.235944909837,39851.44841972717
5012.262011136994,40286.60444351266
5012.28807749971,40888.456054668844
5012.3141439979845,42348.33320092099
5012.340210631818,43925.74409687317
5012.366277401212,45084.979884358356
5012.392344306166,46386.62890625819
5012.418411346682,47232.22518348873
5012.44447852276,47737.59704710316
5012.470545834401,48003.77384036936
5012.496613281605,48323.28553436183
5012.522680864374,48268.535662993156
5012.548748582707,48489.349842215604
5012.574816436606,48563.90309610029
5012.600884426071,48438.39883225294
5012.626952551104,48002.59049199293
5012.653020811705,47338.35315932457
5012.679089207873,46720.027992576666
5012.705157739611,45896.74072806973
5012.73122640692,43884.38459143286
5012.757295209798,41247.815675814054
5012.7833641482475,38394.28599495562
5012.80943322227,35806.688308347664
5012.835502431864,33661.237718308614
5012.861571777033,32250.43775381643
5012.887641257775,32211.68887548205
5012.9137108740915,33360.42161854312
5012.939780625984,35202.958703390774
5012.965850513452,37049.49120073927
5012.991920536498,38423.89391386462
5013.017990695121,39274.44092311163
5013.044060989323,39199.87687128388
5013.070131419104,38026.77506096975
5013.096201984464,35945.99108655971
5013.122272685405,32953.51555165447
5013.148343521927,29420.72016355181
5013.17441449403,25935.379104568674
5013.200485601717,23224.885813697703
5013.226556844987,21708.828968502927
5013.2526282238405,21650.795910005538
5013.278699738279,22922.937208192725
5013.304771388303,25653.875628095648
5013.330843173913,28728.241306591226
5013.35691509511,31872.90204379899
5013.382987151894,34684.899410945436
5013.409059344267,36888.841071867326
5013.435131672228,38654.454713547275
5013.46120413578,40288.4030236949
5013.487276734921,41374.2135224085
5013.513349469653,42145.824457495764
5013.539422339977,42686.13591836493
5013.565495345894,42818.29027233541
5013.5915684874035,42106.47699339271
5013.617641764507,40578.20091487644
5013.643715177206,37994.11611896048
5013.6697887254995,34236.70504268351
5013.695862409389,30457.61482245539
5013.721936228875,26838.870960905166
5013.748010183958,23666.999233650302
5013.77408427464,21747.542197177343
5013.800158500921,21061.889812726862
5013.826232862801,21725.5170851623
5013.852307360281,23926.00609276581
5013.8783819933615,27219.696318968232
5013.904456762045,30997.035960551817
5013.930531666329,34717.50077094641
5013.956606706218,37888.664627463135
5013.982681881709,40634.669962691354
5014.008757192805,42611.290466420374
5014.034832639507,44082.17938914621
5014.060908221814,44611.41466074263
5014.086983939728,44929.833103420875
5014.113059793249,45645.00897672496
5014.139135782378,45547.1337683672
5014.165211907116,45338.58838501253
5014.1912881674625,45186.060366349455
5014.21736456342,44519.75177258348
5014.243441094988,43738.206556410645
5014.269517762167,43064.29422147002
5014.295594564959,41822.63533282715
5014.321671503363,39833.51197983267
5014.347748577381,37487.889297361224
