wave,flux
4450.003811362098,9803.255045879047
4450.026953690486,9858.198999252481
4450.050096139227,9709.340661815513
4450.073238708321,9687.924524993501
4450.096381397769,9411.315865505885
4450.119524207569,9061.168971587993
4450.142667137726,8764.257529572602
4450.165810188237,8370.99797941387
4450.188953359103,7945.41578882949
4450.212096650326,7380.459343007324
4450.2352400619075,6701.47292538214
4450.258383593846,6205.608075311276
4450.281527246142,5737.8700293385355
4450.304671018797,5109.236239813344
4450.327814911813,4456.690846449371
4450.350958925188,3922.401350028395
4450.374103058924,3496.8098096269264
4450.3972473130225,3128.9312313463274
4450.420391687483,2881.801833942412
4450.443536182305,2696.8582794913523
4450.466680797492,2589.5010997422787
4450.489825533042,2558.330070868311
4450.512970388957,2567.294371972508
4450.536115365237,2683.531815172202
4450.559260461882,2900.762777657514
4450.582405678895,3191.4734308658585
4450.605551016274,3615.0457732315726
4450.628696474022,3911.325741130887
4450.651842052138,4426.324926468613
4450.674987750623,4899.035642635736
4450.698133569476,5234.766537287596
4450.721279508702,5430.949964698277
4450.744425568297,5752.376943798908
4450.767571748264,5785.403630950309
4450.790718048604,5904.592406688379
4450.813864469315,6085.718588708409
4450.837011010401,6273.002667028635
4450.86015767186,6560.380029039758
4450.883304453694,6878.189750930643
4450.906451355903,7351.055627949577
4450.929598378489,7861.794014571227
4450.95274552145,8253.24135714793
4450.975892784789,8684.718599005415
4450.999040168505,9320.307425250023
4451.022187672601,9819.312219097328
4451.045335297074,10231.248659020339
4451.068483041929,10614.745189958838
4451.091630907163,11037.859310148093
4451.114778892777,11444.534417630295
4451.137926998774,11606.688193592357
4451.161075225153,11720.53801007283
4451.184223571914,11733.173422877175
4451.207372039059,11490.808430842155
4451.230520626587,11236.083565068375
4451.253669334501,11038.587385307172
4451.2768181628,10805.889975317243
4451.299967111485,10488.015293643924
4451.323116180556,10121.969761820692
4451.346265370014,9547.31627471353
4451.369414679861,9181.942136558464
4451.392564110095,8826.292090443856
4451.415713660719,8356.617920579047
4451.438863331732,7601.816032752917
4451.462013123136,7241.620870040505
4451.48516303493,6694.362282713406
4451.508313067117,6369.923974122523
4451.531463219695,5861.1694090703
4451.554613492666,5581.834268077979
4451.577763886031,5369.27086020998
4451.60091439979,5282.436543419063
4451.624065033943,5365.966857455364
4451.647215788492,5705.400583359698
4451.670366663436,6082.33390615528
4451.693517658777,6716.28315783169
4451.716668774516,7298.806621375755
4451.739820010652,7881.664057593599
4451.762971367186,8507.135049072553
4451.78612284412,9029.782269995158
4451.8092744414525,9229.801093529566
4451.832426159187,9356.982497803572
4451.855577997321,9366.082635446795
4451.878729955857,9174.359138020509
4451.901882034796,9114.84359150008
4451.925034234137,9044.205080361164
4451.948186553881,8702.592781136993
4451.97133899403,8358.031898909947
4451.994491554583,8206.53177334886
4452.017644235542,8125.768466880547
4452.040797036907,8097.072383103166
4452.063949958678,8226.046028903093
4452.087103000857,8575.840316496191
4452.1102561634425,9018.465341214209
4452.133409446437,9416.715962254164
4452.156562849841,9836.167573174018
4452.179716373655,10261.976766940987
4452.202870017878,10649.48942954746
4452.226023782513,10868.748862557717
4452.24917766756,11159.21081677016
4452.272331673018,11493.331242875853
4452.29548579889,11466.617079589198
4452.318640045174,11444.418915691886
4452.341794411874,11488.754201702322
4452.364948898987,11535.298160952316
4452.388103506516,11208.699410008316
4452.4112582344615,11041.138694287689
4452.434413082823,10825.63823676946
4452.457568051602,10430.949906635104
4452.480723140799,10256.391128506819
4452.503878350413,9836.785588764176
4452.527033680448,9620.06343161706
4452.550189130902,9120.75241167062
4452.5733447017765,8618.890555448845
4452.596500393071,8330.531695429438
4452.619656204789,8114.52029102111
4452.642812136928,7776.42636572022
4452.66596818949,7503.735165535633
4452.689124362475,7471.150166677578
4452.7122806558855,7342.267127033788
4452.735437069719,7404.126642614037
4452.7585936039795,7398.759183515663
4452.781750258665,7378.077024547739
4452.804907033777,7511.9845150740475
4452.828063929317,7674.686763979798
4452.851220945285,7849.322693185585
4452.87437808168,8044.687561264642
4452.897535338506,8247.255558576333
4452.92069271576,8329.390944751229
4452.943850213445,8359.96923068791
4452.967007831562,8227.056492171352
4452.99016557011,8150.402444965547
4453.01332342909,8048.939220233631
4453.036481408502,7783.684204225363
4453.059639508349,7603.018466271052
4453.08279772863,7566.742375199669
4453.105956069345,7630.722929637964
4453.129114530496,7765.213388255888
4453.152273112083,7906.961280969631
4453.175431814107,7848.3304941592705
4453.198590636567,7825.247537009029
4453.221749579466,7820.207234142892
4453.244908642802,7548.377307784254
4453.268067826579,7364.552562585672
4453.291227130795,7206.174935711565
4453.314386555451,7165.4419533998625
4453.337546100549,6964.172720712402
4453.360705766087,7119.646089481316
4453.3838655520685,7377.209620144365
4453.407025458493,7728.423172344384
4453.430185485361,8160.574686835819
4453.453345632673,8703.928966912563
4453.476505900429,9234.837878244118
4453.4996662886315,9530.662000803719
4453.52282679728,9863.560662563455
4453.545987426375,9885.343375580413
4453.569148175917,9778.456065253386
4453.592309045907,9714.777415369565
4453.615470036346,9687.096389754191
4453.638631147233,9515.144347488964
4453.661792378571,9396.83875954521
4453.684953730359,9189.637224868286
4453.708115202598,9105.986075754225
4453.731276795288,8874.326630629
4453.754438508431,9018.461368850605
4453.777600342027,9149.419573809306
4453.800762296077,9462.633750953348
4453.82392437058,9984.62918432445
4453.847086565538,10162.192484998981
4453.870248880952,10600.074976661735
4453.8934113168225,10798.668379318351
4453.916573873149,10966.819759486525
4453.939736549933,11237.181080621958
4453.962899347174,11244.817702825952
4453.986062264875,11417.323957354054
4454.009225303034,11303.176400427816
4454.032388461654,11016.101756544002
4454.055551740734,10923.213652593777
4454.078715140275,10675.479146730093
4454.101878660277,10319.397289734712
4454.125042300742,10031.871788405933
4454.14820606167,9565.241165732841
4454.171369943061,9102.000101829602
4454.194533944917,8627.314788067857
4454.2176980672375,7999.497533808093
4454.240862310024,7524.61949090053
4454.264026673275,7072.751961811622
4454.287191156994,6552.1750455458105
4454.31035576118,5994.325295812326
4454.333520485834,5434.207427093258
4454.356685330957,4971.763367310911
4454.379850296548,4587.713819358492
4454.40301538261,4273.731649810454
4454.426180589142,4064.254473005838
4454.449345916145,4021.326970312428
4454.4725113636205,4083.4846460672998
4454.495676931568,4219.943577347951
4454.5188426199875,4376.137494991191
4454.542008428882,4556.550262496315
4454.565174358249,4594.283864178481
4454.588340408092,4613.637948071457
4454.611506578411,4490.752111157373
4454.634672869205,4242.254350415507
4454.657839280476,3881.5296305979277
4454.681005812225,3644.798988887192
4454.704172464451,3271.5024486331363
4454.727339237156,2925.793059557574
4454.750506130341,2688.316053001411
4454.773673144005,2568.301649470417
4454.79684027815,2523.7536488956703
4454.820007532776,2538.278034329885
4454.843174907884,2684.8754960774986
4454.866342403473,2883.693872835546
4454.889510019546,3125.559352295848
4454.912677756102,3371.367669626224
4454.935845613144,3816.9565181110443
4454.959013590669,4123.10849310824
4454.982181688681,4352.59569434256
4455.005349907178,4674.906969036199
4455.028518246162,4799.728502080752
4455.051686705633,5117.5568481266655
4455.074855285593,5032.98198905139
4455.098023986041,5507.0869419815
4455.121192806979,5658.888822337211
4455.144361748406,5905.821289215054
4455.167530810323,6147.611633235143
4455.190699992732,6423.425662643989
4455.213869295633,6485.880106840649
4455.237038719026,6551.343588155297
4455.260208262912,6336.766270387835
4455.283377927292,6303.410302976803
4455.306547712166,6264.138130630618
4455.329717617535,6214.611184260934
4455.352887643399,6417.057901963519
4455.37605778976,6620.825747594081
4455.399228056617,7020.192791098659
4455.422398443972,7522.005176675813
4455.445568951825,7995.6603106778875
4455.468739580177,8435.331936861598
4455.491910329028,8813.851245153584
4455.515081198378,9058.82249857198
4455.538252188229,9254.059841896138
4455.561423298582,9217.818187274619
4455.584594529436,8922.279641422958
4455.607765880793,8690.951987437142
4455.630937352652,8343.486741735198
4455.654108945016,7851.812881708928
4455.677280657883,7306.572500206397
4455.700452491255,6623.132656615139
4455.723624445134,6206.319483128551
4455.746796519518,5920.995752646553
4455.7699687144095,5401.244905813884
4455.793141029808,4970.507730350854
4455.816313465714,4629.309050394894
4455.83948602213,4346.9250226302265
4455.862658699055,4141.077014163076
4455.885831496489,4056.6998937563244
4455.909004414434,4108.776781260465
4455.932177452891,4304.98772830231
4455.955350611858,4671.165410278592
4455.978523891339,5120.841774844406
4456.001697291333,5687.044413474012
4456.024870811841,6368.799177692836
4456.048044452862,7045.045008618289
4456.071218214399,7628.837268836969
4456.094392096451,8096.343121674216
4456.117566099019,8390.535389784383
4456.140740222105,8521.371064405434
4456.163914465707,8595.103657521062
4456.187088829828,8466.804030917969
4456.210263314468,8233.6633187411
4456.233437919626,8098.188628767203
4456.256612645306,7755.116337286356
4456.279787491505,7287.558711090927
4456.302962458226,6989.822772590424
4456.326137545469,6598.290143417213
4456.349312753233,6149.253700426368
4456.372488081522,5852.5864330825925
4456.395663530333,5604.896799260702
4456.41883909967,5530.8884837526775
4456.442014789531,5619.306618571757
4456.465190599917,5739.725224909449
4456.488366530831,5932.68189863214
4456.5115425822705,6150.594536951422
4456.5347187542375,6283.47252896776
4456.557895046733,6371.108043782842
4456.581071459757,6363.6723817045795
4456.604247993311,6407.584775995231
4456.627424647395,6469.456297939998
4456.650601422009,6503.422867514598
4456.673778317154,6606.657755092333
4456.696955332832,6920.617062135906
4456.720132469041,7240.630158060569
4456.7433097257845,7745.843635475172
4456.766487103061,8207.485326245156
4456.789664600872,8750.05281950197
4456.8128422192185,9165.63956781617
4456.8360199581,9426.426230201017
4456.859197817518,9613.769887861346
4456.882375797473,9785.54228149845
4456.905553897966,9592.760975473348
4456.928732118997,9687.943867098156
4456.951910460566,9426.938657597924
4456.975088922674,9308.782961504925
4456.998267505323,9215.911742648988
4457.021446208513,9010.423550514206
4457.044625032244,8824.098478559035
4457.067803976516,8649.68608774409
4457.090983041332,8782.276171818075
4457.1141622266905,8699.112607976269
4457.1373415325925,8688.83620321662
4457.160520959039,8967.05667612408
4457.183700506031,9041.448272609723
4457.206880173568,8907.096621316592
4457.230059961651,8834.402474087603
4457.2532398702815,8494.682311633609
4457.27641989946,8128.715173101179
4457.299600049186,7867.3700709691975
4457.322780319461,7433.933642537905
4457.345960710286,6985.428399675306
4457.36914122166,6603.264268382418
4457.392321853586,6073.773303371956
4457.415502606062,5664.850829751431
4457.43868347909,5281.417109891742
4457.461864472672,4900.403635266802
4457.485045586805,4900.53969589642
4457.508226821494,4950.465656738852
4457.5314081767365,5136.031668898265
4457.554589652534,5565.147523721739
4457.577771248887,6040.985340422629
4457.600952965797,6684.6073829104635
4457.624134803263,7272.547015654094
4457.647316761288,7785.181020294884
4457.67049883987,8332.496919699772
4457.693681039011,8885.839496264225
4457.716863358712,9298.684808440075
4457.7400457989725,9608.491522247694
4457.763228359793,9671.728593729353
4457.7864110411765,9633.333424699335
4457.809593843121,9604.711214147514
4457.832776765628,9430.628794715398
4457.855959808699,9282.41164723942
4457.879142972333,9009.985069153227
4457.902326256532,8698.107920929791
4457.925509661296,8606.958939380138
4457.948693186626,8116.216731246035
4457.971876832522,7761.901753297959
4457.995060598985,7455.348578507538
4458.018244486016,6894.3437221060985
4458.041428493615,6503.41991582285
4458.0646126217825,6088.972717645335
4458.08779687052,5742.771263526451
4458.110981239827,5392.38824130416
4458.134165729705,5363.441518890105
4458.157350340155,5219.525759157986
4458.180535071177,5195.90264261077
4458.203719922771,5273.447339449742
4458.226904894938,5459.656163801087
4458.2500899876795,5653.549293014127
4458.273275200995,5866.182603414678
4458.296460534886,5973.603748065661
4458.3196459893525,6295.07319428698
4458.342831564396,6569.344493856748
4458.366017260016,6836.494564051986
4458.389203076214,7187.061765125148
4458.4123890129895,7421.7840148045025
4458.435575070344,7631.520300261948
4458.458761248279,7747.692252288385
4458.481947546794,7782.342383979564
4458.505133965889,7712.796912027351
4458.528320505566,7694.4451780184145
4458.551507165825,7670.5095897046585
4458.574693946666,7691.4084291776235
4458.597880848091,7986.1538619762405
4458.6210678701,8190.913687761176
4458.644255012693,8794.68743208068
4458.6674422758715,9055.91801479999
4458.690629659636,9492.314136330562
4458.713817163986,9602.322005680275
4458.737004788924,9682.92583583199
4458.76019253445,9696.574281805893
4458.783380400563,9317.17117047449
4458.8065683872655,9091.503000184062
4458.829756494558,8757.242803969037
4458.85294472244,8196.849029339248
4458.876133070914,7721.9499704538775
4458.899321539979,7108.061735334167
4458.922510129635,6536.061871277486
4458.945698839884,5882.984982052346
4458.968887670727,5348.969513637379
4458.992076622164,4642.249125766587
4459.015265694195,4167.886400910798
4459.0384548868215,3682.985629803089
4459.061644200044,3266.4609053671825
4459.084833633862,2899.295684127406
4459.108023188278,2663.3803818788047
4459.131212863292,2595.081802208016
4459.154402658904,2491.224900699989
4459.177592575114,2753.5021635530697
4459.200782611925,2963.5594606608242
4459.223972769336,3408.225787950364
4459.247163047347,3777.581878816809
4459.27035344596,4190.879685597413
4459.293543965176,4691.629561160131
4459.316734604993,5154.514560589838
4459.339925365414,5555.99699593333
4459.363116246439,6057.55577698482
4459.386307248069,6411.83889461855
4459.409498370304,6797.456999057995
4459.432689613145,7293.230712528439
4459.455880976592,7737.479938414491
4459.479072460647,8351.780695824
4459.502264065309,8814.298345569096
4459.52545579058,9294.899612925312
4459.5486476364595,9535.049184148804
4459.571839602949,9702.187622910189
4459.595031690048,9817.375702067075
4459.618223897759,9746.959142906528
4459.641416226081,9473.525550590004
4459.664608675014,9312.31629240087
4459.687801244561,9115.433155504794
4459.710993934721,8834.193542740732
4459.734186745496,8694.609311322278
4459.757379676885,8518.616057689504
4459.780572728889,8546.466404922092
4459.803765901509,8468.849614324317
4459.8269591947455,8578.821836888212
4459.850152608599,8753.495117071014
4459.87334614307,9123.250904866742
4459.89653979816,9325.917464141061
4459.91973357387,9592.099487176107
4459.942927470198,9721.443227836917
4459.966121487147,9902.439333667853
4459.989315624717,9573.278392220904
4460.0125098829085,9293.756246949572
4460.035704261722,8899.286272371926
4460.058898761158,8299.91454504069
4460.082093381218,7993.341964883039
4460.105288121902,7642.8866208438985
4460.12848298321,7028.562935199383
4460.151677965145,6397.19620571189
4460.1748730677045,5983.727487503087
4460.198068290891,5527.067296108763
4460.221263634704,5152.953531258776
4460.244459099145,4985.050990793379
4460.267654684215,4857.366275865419
4460.290850389914,4959.2863889535165
4460.314046216243,5209.4063907098935
4460.337242163202,5824.917288462634
4460.360438230791,6327.574117399695
4460.383634419013,7002.056571692275
4460.406830727867,7719.456233017224
4460.430027157354,8405.935722757557
4460.453223707474,9127.700489321238
4460.476420378228,9694.53067234839
4460.499617169617,10102.926213804249
4460.522814081641,10714.16707862725
4460.5460111143,10914.242942352523
4460.569208267598,11125.792633035264
4460.592405541532,11073.588794819101
4460.615602936104,11129.49307879862
4460.638800451314,11250.852011916943
4460.661998087163,11386.234359099395
4460.685195843652,11233.306009133583
4460.708393720782,10998.49552687432
4460.731591718552,10917.126471985175
4460.754789836965,10706.640526267593
4460.777988076019,10642.334275210591
4460.801186435716,10452.574593381336
4460.824384916057,10119.696438810228
4460.847583517042,9926.223623418171
4460.870782238671,9808.318624458987
4460.893981080947,9367.03734995576
4460.917180043868,9059.710097950006
4460.940379127435,8718.820680612333
4460.963578331651,8234.704069778709
4460.986777656513,7833.443450137884
4461.009977102025,7425.09419297811
4461.033176668186,6826.02692104823
4461.056376354995,6244.990140858879
4461.079576162457,5753.216332961781
4461.102776090568,5077.2202515976805
4461.125976139332,4617.020637681514
4461.149176308748,4306.402222012451
4461.172376598816,3962.28816343181
4461.195577009538,3796.15835585036
4461.218777540915,3809.1135997157835
4461.241978192946,3790.1350287090218
4461.265178965633,3775.234056081948
4461.2883798589755,3892.2654625735336
4461.311580872974,3988.5627063721654
4461.3347820076315,4070.3081176650903
4461.357983262946,4181.4418962900645
4461.381184638919,4167.486950621003
4461.404386135551,4031.200484952802
4461.4275877528435,3958.092169565147
4461.4507894907965,3769.4569308188807
4461.4739913494095,3544.1558472481715
4461.497193328685,3371.741424476984
4461.520395428623,3300.57443341053
4461.543597649224,3210.308669951062
4461.566799990488,3105.741126519591
4461.590002452416,3014.5581370568907
4461.61320503501,2960.7896336789154
4461.636407738269,2805.1447436976055
4461.659610562193,2740.8084453708766
4461.682813506784,2767.631433788714
4461.706016572044,2860.80065053804
4461.729219757971,3022.27172609483
4461.752423064566,3338.930198854658
4461.775626491831,3677.781543501306
4461.798830039766,4004.92127411512
4461.82203370837,4381.842992577675
4461.845237497647,4696.861598674963
4461.868441407595,4923.50669995173
4461.891645438215,5077.8950262608105
4461.914849589509,5096.9779473026565
4461.938053861475,5109.641792356525
4461.961258254117,5000.35718666614
4461.984462767433,4891.63829636806
4462.007667401424,4681.919092738449
4462.030872156092,4731.506371853905
4462.0540770314365,4667.132863835339
4462.077282027459,4865.527729500821
4462.100487144158,5348.303463197949
4462.123692381537,5755.542287910663
4462.146897739594,6130.826637343812
4462.170103218332,6505.687806605425
4462.19330881775,6779.544989052609
4462.21651453785,7091.7582546996055
4462.239720378631,7057.504962764421
4462.262926340095,7084.50579338916
4462.286132422241,7160.903177770042
4462.309338625071,7045.664557638075
4462.3325449485865,6968.392888021999
4462.355751392785,6850.751541685594
4462.3789579576705,6696.229829402195
4462.402164643242,6384.098854558053
4462.4253714495,6292.944820663793
4462.448578376446,6167.398606652502
4462.471785424079,6245.32839226454
4462.494992592401,6314.882079186108
4462.518199881412,6677.860437758799
4462.541407291114,7201.309307664506
4462.564614821506,7754.194116946904
4462.587822472589,8267.543394262735
4462.611030244365,8878.388274527502
4462.634238136832,9197.548728450163
4462.657446149992,9482.99583856243
4462.680654283847,9643.293847602055
4462.703862538396,9557.255170656332
4462.727070913639,9352.200069979172
4462.750279409578,9264.897400514079
4462.773488026214,9077.879004362307
4462.796696763546,8835.446354404135
4462.819905621575,8579.176313940547
