wave,flux
4450.003811362098,1376.5144304742787
4450.026953690486,1267.9212209317686
4450.050096139227,1313.5266692846221
4450.073238708321,1396.0283594195519
4450.096381397769,1562.7209582474088
4450.119524207569,1879.539795234363
4450.142667137726,2174.3196366933703
4450.165810188237,2409.4892055596324
4450.188953359103,2686.7628833899803
4450.212096650326,2886.766006991504
4450.2352400619075,2979.853504593951
4450.258383593846,3095.3648769862925
4450.281527246142,3227.6359511786072
4450.304671018797,3326.6600523515303
4450.327814911813,3468.275407419963
4450.350958925188,3704.0216038152184
4450.374103058924,3809.96795343075
4450.3972473130225,3843.025053686759
4450.420391687483,3888.7639104711516
4450.443536182305,3995.4495282521057
4450.466680797492,4204.530071978068
4450.489825533042,4421.515158182449
4450.512970388957,4819.732858547646
4450.536115365237,4965.940656973301
4450.559260461882,5162.621236229808
4450.582405678895,5307.755616120272
4450.605551016274,5474.761477384886
4450.628696474022,5575.761968571544
4450.651842052138,5663.23020805907
4450.674987750623,5739.601317204605
4450.698133569476,5774.133593955379
4450.721279508702,5666.573072866748
4450.744425568297,5748.05856915493
4450.767571748264,5744.343729366664
4450.790718048604,5627.682690064831
4450.813864469315,5611.448983318207
4450.837011010401,5591.876054059246
4450.86015767186,5598.816919407654
4450.883304453694,5399.156877959257
4450.906451355903,5272.925793290998
4450.929598378489,5143.0808343844365
4450.95274552145,4914.035104574022
4450.975892784789,4695.5604598813225
4450.999040168505,4354.354227479985
4451.022187672601,3918.039812070719
4451.045335297074,3535.996691454767
4451.068483041929,3149.703010887348
4451.091630907163,2806.0418972828934
4451.114778892777,2703.995710015689
4451.137926998774,2746.76605780976
4451.161075225153,2871.0878497783256
4451.184223571914,3152.0274227954064
4451.207372039059,3470.6378799407244
4451.230520626587,3884.414540584366
4451.253669334501,4314.185231767889
4451.2768181628,4550.017211962009
4451.299967111485,4893.813413489274
4451.323116180556,5081.587857156008
4451.346265370014,5172.118672703258
4451.369414679861,5355.679816635935
4451.392564110095,5318.988046145185
4451.415713660719,5261.840124265866
4451.438863331732,5271.9910663660075
4451.462013123136,4992.476613145048
4451.48516303493,4741.969087289089
4451.508313067117,4547.069070804261
4451.531463219695,4541.731451745723
4451.554613492666,4507.051688914875
4451.577763886031,4527.562780262458
4451.60091439979,4542.29260726949
4451.624065033943,4752.425810333217
4451.647215788492,4856.114215339502
4451.670366663436,4973.834590105504
4451.693517658777,5251.217231829284
4451.716668774516,5335.951390806444
4451.739820010652,5385.077361420498
4451.762971367186,5487.773431079218
4451.78612284412,5598.814667666382
4451.8092744414525,5704.735425036906
4451.832426159187,5683.867091187393
4451.855577997321,5734.22728313951
4451.878729955857,5798.346698150991
4451.901882034796,5799.348540196076
4451.925034234137,5810.289742658085
4451.948186553881,5822.972986672022
4451.97133899403,5758.061023226338
4451.994491554583,5628.890296414707
4452.017644235542,5619.981475579875
4452.040797036907,5488.2794883937695
4452.063949958678,5251.720431089822
4452.087103000857,5118.2473973189035
4452.1102561634425,5036.766046733363
4452.133409446437,4783.047339737826
4452.156562849841,4625.474523953654
4452.179716373655,4497.906681834268
4452.202870017878,4432.377138165572
4452.226023782513,4251.633106499441
4452.24917766756,4205.21652033487
4452.272331673018,4152.903258806095
4452.29548579889,4264.266324386537
4452.318640045174,4427.256878186683
4452.341794411874,4584.0667944509905
4452.364948898987,4725.9837258014995
4452.388103506516,4916.708735232079
4452.4112582344615,5000.9284373521505
4452.434413082823,5005.4864269454865
4452.457568051602,5003.544503953316
4452.480723140799,4763.4938313641105
4452.503878350413,4620.885885159428
4452.527033680448,4472.139662182868
4452.550189130902,4528.449437049744
4452.5733447017765,4538.786601345366
4452.596500393071,4563.411057861415
4452.619656204789,4644.176216081363
4452.642812136928,4785.926518526108
4452.66596818949,4846.319133544968
4452.689124362475,4831.418307214627
4452.7122806558855,4808.867981901127
4452.735437069719,4791.846349241802
4452.7585936039795,4672.525013931884
4452.781750258665,4436.974861930267
4452.804907033777,4200.921308116383
4452.828063929317,3943.343011046025
4452.851220945285,3827.9963322341914
4452.87437808168,3862.7539410582895
4452.897535338506,4054.9614526280525
4452.92069271576,4269.870841236662
4452.943850213445,4448.945379319457
4452.967007831562,4702.716671188465
4452.99016557011,4924.074511179935
4453.01332342909,5127.788351137241
4453.036481408502,5245.659483513931
4453.059639508349,5372.204924720091
4453.08279772863,5479.50377002784
4453.105956069345,5389.863810978617
4453.129114530496,5335.24605910476
4453.152273112083,5269.377481058503
4453.175431814107,5176.848133464489
4453.198590636567,5040.095196970801
4453.221749579466,4930.199396277824
4453.244908642802,4848.0855003990855
4453.268067826579,4867.32145697981
4453.291227130795,4911.651199364554
4453.314386555451,4953.011603050037
4453.337546100549,5002.735803280996
4453.360705766087,5178.486707345409
4453.3838655520685,5323.0431715099185
4453.407025458493,5327.072005515351
4453.430185485361,5425.488032576278
4453.453345632673,5576.5040473444915
4453.476505900429,5681.578631131242
4453.4996662886315,5611.469294404087
4453.52282679728,5626.223523980208
4453.545987426375,5632.082308408143
4453.569148175917,5748.6668997451225
4453.592309045907,5861.533654003609
4453.615470036346,5769.539031619932
4453.638631147233,5569.335639772719
4453.661792378571,5589.271615237581
4453.684953730359,5465.407512956271
4453.708115202598,5367.328367144383
4453.731276795288,5267.474142808264
4453.754438508431,5052.39704079309
4453.777600342027,4829.120766525699
4453.800762296077,4520.499324831792
4453.82392437058,4193.6005225259405
4453.847086565538,3663.654662030879
4453.870248880952,3256.076264370211
4453.8934113168225,2916.6866432798447
4453.916573873149,2620.2952183569814
4453.939736549933,2471.8629296640975
4453.962899347174,2512.127501565051
4453.986062264875,2721.952045690591
4454.009225303034,2986.1166521438554
4454.032388461654,3264.8816556097404
4454.055551740734,3462.012414497781
4454.078715140275,3546.3151336136493
4454.101878660277,3506.214427862373
4454.125042300742,3394.7243031377825
4454.14820606167,3152.5303764674964
4454.171369943061,2835.21361676871
4454.194533944917,2573.9586352083725
4454.2176980672375,2296.1997489760015
4454.240862310024,1994.4194530696839
4454.264026673275,1790.0371117564596
4454.287191156994,1645.6645651019899
4454.31035576118,1488.140653365229
4454.333520485834,1504.444718395248
4454.356685330957,1523.1387985719919
4454.379850296548,1675.1315303962886
4454.40301538261,1953.5868200076636
4454.426180589142,2187.017741120938
4454.449345916145,2384.9060563471967
4454.4725113636205,2542.637309747334
4454.495676931568,2660.56606626186
4454.5188426199875,2625.75734025566
4454.542008428882,2640.471829057729
4454.565174358249,2718.854017371876
4454.588340408092,2906.3767401727864
4454.611506578411,3203.193781205157
4454.634672869205,3499.5665832274954
4454.657839280476,3827.6299979234877
4454.681005812225,4007.5470708659373
4454.704172464451,4042.9987176509153
4454.727339237156,4074.361671674317
4454.750506130341,3856.0034901823956
4454.773673144005,3716.818755352091
4454.79684027815,3529.024332046491
4454.820007532776,3282.672543538633
4454.843174907884,3212.131679248472
4454.866342403473,3312.8329117865583
4454.889510019546,3360.30896257468
4454.912677756102,3734.5151549304387
4454.935845613144,4076.6892710741895
4454.959013590669,4377.045065147584
4454.982181688681,4593.360529315038
4455.005349907178,4867.34141726787
4455.028518246162,5099.84252180571
4455.051686705633,5196.816388943734
4455.074855285593,5218.542324146764
4455.098023986041,5168.88261125345
4455.121192806979,5131.96083433922
4455.144361748406,5063.8379460101105
4455.167530810323,4897.406205298616
4455.190699992732,4707.081618551503
4455.213869295633,4563.053673942273
4455.237038719026,4344.339789428789
4455.260208262912,4178.7776510451695
4455.283377927292,3915.3948930384145
4455.306547712166,3542.91815077646
4455.329717617535,3094.509584409335
4455.352887643399,2717.318191907248
4455.37605778976,2406.7663810914883
4455.399228056617,2169.166306259992
4455.422398443972,2140.242732005352
4455.445568951825,2132.2724262426586
4455.468739580177,2306.6370311636483
4455.491910329028,2659.1187234179215
4455.515081198378,3042.7058080890465
4455.538252188229,3432.1246065661544
4455.561423298582,3810.3054173492847
4455.584594529436,4206.695874749758
4455.607765880793,4500.182789615599
4455.630937352652,4653.007042291849
4455.654108945016,4848.556077128897
4455.677280657883,4987.483622705968
4455.700452491255,5071.351365351935
4455.723624445134,5132.849638672897
4455.746796519518,4995.110431166962
4455.7699687144095,4828.025941678743
4455.793141029808,4656.422227160658
4455.816313465714,4452.274386545229
4455.83948602213,4131.795644427215
4455.862658699055,3845.1306019697763
4455.885831496489,3648.4417401027604
4455.909004414434,3508.9599757801448
4455.932177452891,3568.301834260843
4455.955350611858,3648.6910840504265
4455.978523891339,3799.95123234606
4456.001697291333,3973.3638624497125
4456.024870811841,4069.3526638581666
4456.048044452862,4082.3837953655134
4456.071218214399,3985.5210252625
4456.094392096451,3872.900543192797
4456.117566099019,3667.852432610123
4456.140740222105,3350.494361566904
4456.163914465707,3172.382532244733
4456.187088829828,3165.9125204927477
4456.210263314468,3352.766416625705
4456.233437919626,3536.768405582094
4456.256612645306,3801.9745311078855
4456.279787491505,4058.7727671103567
4456.302962458226,4390.168207593181
4456.326137545469,4765.131992070029
4456.349312753233,4967.798421804409
4456.372488081522,5026.470407705695
4456.395663530333,5234.280512745103
4456.41883909967,5278.28339983821
4456.442014789531,5165.188278608983
4456.465190599917,5144.889988516049
4456.488366530831,5017.241333195704
4456.5115425822705,5001.139772882932
4456.5347187542375,4867.684258891587
4456.557895046733,4701.927863595885
4456.581071459757,4746.899940892333
4456.604247993311,4763.897721422041
4456.627424647395,4775.900391738867
4456.650601422009,4824.9687070614345
4456.673778317154,5075.548059693206
4456.696955332832,5142.97264875496
4456.720132469041,5284.966317755312
4456.7433097257845,5206.585094786943
4456.766487103061,5259.282116159085
4456.789664600872,5193.351034191292
4456.8128422192185,5040.596828911474
4456.8360199581,4884.796962694631
4456.859197817518,4485.250521107413
4456.882375797473,4227.980167061417
4456.905553897966,3844.319975342592
4456.928732118997,3378.8590316817604
4456.951910460566,3131.166449176896
4456.975088922674,2897.301328610931
4456.998267505323,2738.273355437465
4457.021446208513,2668.4787356837255
4457.044625032244,2708.8765040824046
4457.067803976516,2932.3319110479656
4457.090983041332,3084.440658416065
4457.1141622266905,3430.4064772044744
4457.1373415325925,3803.4789124701147
4457.160520959039,4191.306269245149
4457.183700506031,4471.5307700837975
4457.206880173568,4739.369595162487
4457.230059961651,4963.351877663828
4457.2532398702815,5132.28451769996
4457.27641989946,5177.4658309348415
4457.299600049186,5261.217914270047
4457.322780319461,5035.203353207679
4457.345960710286,5277.502585097849
4457.36914122166,5290.646388327462
4457.392321853586,5350.868000149877
4457.415502606062,5211.968661840243
4457.43868347909,5225.237306086922
4457.461864472672,5085.827934897645
4457.485045586805,4935.451860977896
4457.508226821494,4703.658353722429
4457.5314081767365,4364.731295653638
4457.554589652534,4202.897777283421
4457.577771248887,4001.5961953357105
4457.600952965797,3628.8822053393187
4457.624134803263,3384.877546575583
4457.647316761288,3340.614739589401
4457.67049883987,3365.291950268143
4457.693681039011,3384.9141674958087
4457.716863358712,3428.8496465694193
4457.7400457989725,3396.3747451444747
4457.763228359793,3369.477492831706
4457.7864110411765,3351.738365367962
4457.809593843121,3456.6251152012414
4457.832776765628,3611.030297982771
4457.855959808699,3922.07304430611
4457.879142972333,4158.9644935183
4457.902326256532,4400.851938536189
4457.925509661296,4553.991162486414
4457.948693186626,4614.214664164437
4457.971876832522,4533.891046128175
4457.995060598985,4479.759827599466
4458.018244486016,4357.538936929575
4458.041428493615,4046.2075753141576
4458.0646126217825,4047.6933383866876
4458.08779687052,4029.9166793716404
4458.110981239827,4226.859599510723
4458.134165729705,4465.478315261077
4458.157350340155,4722.30810865917
4458.180535071177,4858.098012913507
4458.203719922771,4976.476210841954
4458.226904894938,5152.930371096963
4458.2500899876795,5353.669549551661
4458.273275200995,5347.918864350032
4458.296460534886,5325.507719550817
4458.3196459893525,5287.52515082439
4458.342831564396,5318.928067260499
4458.366017260016,5221.505401071968
4458.389203076214,5050.4096289097815
4458.4123890129895,4862.104913830982
4458.435575070344,4579.487069647744
4458.458761248279,4257.124689184484
4458.481947546794,3965.8881750736505
4458.505133965889,3495.691335077381
4458.528320505566,2999.552628481727
4458.551507165825,2557.0155752071014
4458.574693946666,2183.5523507866087
4458.597880848091,1920.2474963186553
4458.6210678701,1700.4204096796477
4458.644255012693,1558.595711185115
4458.6674422758715,1555.9648388212447
4458.690629659636,1620.612588875052
4458.713817163986,1840.8251441295092
4458.737004788924,2150.2982550287697
4458.76019253445,2376.4772331169606
4458.783380400563,2623.19887017093
4458.8065683872655,2801.1521921694166
4458.829756494558,3003.735538820179
4458.85294472244,3021.039893841853
4458.876133070914,3073.6432969702932
4458.899321539979,3235.514944130336
4458.922510129635,3373.0480037445695
4458.945698839884,3698.7205935610837
4458.968887670727,4080.681272227774
4458.992076622164,4377.849471494206
4459.015265694195,4717.938898093026
4459.0384548868215,4990.2668589169
4459.061644200044,5107.503304154321
4459.084833633862,5350.917068886716
4459.108023188278,5365.6995660018365
4459.131212863292,5414.628081421052
4459.154402658904,5454.588187222348
4459.177592575114,5342.204966257831
4459.200782611925,5316.436480756727
4459.223972769336,5089.057704490275
4459.247163047347,4811.677884075657
4459.27035344596,4683.982679262269
4459.293543965176,4682.260991727277
4459.316734604993,4670.761688663439
4459.339925365414,4726.6132694617045
4459.363116246439,5007.153329917682
4459.386307248069,5147.041255246122
4459.409498370304,5193.560149198272
4459.432689613145,5290.214784546552
4459.455880976592,5354.939411736115
4459.479072460647,5372.808739981004
4459.502264065309,5474.16366223629
4459.52545579058,5388.086895300525
4459.5486476364595,5352.3178126661305
4459.571839602949,5266.310727575662
4459.595031690048,5160.731297807826
4459.618223897759,4862.334052079012
4459.641416226081,4457.0932762883385
4459.664608675014,4258.427545441875
4459.687801244561,3901.691496455447
4459.710993934721,3425.332395210647
4459.734186745496,3021.1037827825
4459.757379676885,2795.777747273388
4459.780572728889,2824.4858378034232
4459.803765901509,2760.1294290014093
4459.8269591947455,2872.03590020286
4459.850152608599,3226.868587227608
4459.87334614307,3422.223049356419
4459.89653979816,3741.5337034080735
4459.91973357387,4040.1165136992145
4459.942927470198,4258.859882935682
4459.966121487147,4662.96357955017
4459.989315624717,4982.134272562497
4460.0125098829085,5231.93894837421
4460.035704261722,5373.471515907174
4460.058898761158,5465.600498786945
4460.082093381218,5582.277527262707
4460.105288121902,5544.684413937699
4460.12848298321,5670.384178925967
4460.151677965145,5567.385933214641
4460.1748730677045,5671.94622853361
4460.198068290891,5649.735966942965
4460.221263634704,5656.671963002109
4460.244459099145,5619.02801140513
4460.267654684215,5565.249527134968
4460.290850389914,5471.497417989319
4460.314046216243,5446.383856713703
4460.337242163202,5369.646945445142
4460.360438230791,5304.402503442814
4460.383634419013,5435.66668342729
4460.406830727867,5441.121881354207
4460.430027157354,5401.832507697455
4460.453223707474,5311.449383014887
4460.476420378228,5195.378625345888
4460.499617169617,4982.681816830918
4460.522814081641,4741.814764312592
4460.5460111143,4490.123958553421
4460.569208267598,4174.606088163425
4460.592405541532,3759.55216022893
4460.615602936104,3374.8845303219823
4460.638800451314,3096.0332106425312
4460.661998087163,2805.3831148903414
4460.685195843652,2618.4537034317523
4460.708393720782,2376.7571843265814
4460.731591718552,2265.4333397896926
4460.754789836965,2262.7703821326427
4460.777988076019,2402.648542008684
4460.801186435716,2569.5845643156
4460.824384916057,2694.6029506474742
4460.847583517042,2782.4801986933217
4460.870782238671,2738.6312197803954
4460.893981080947,2702.161338372929
4460.917180043868,2564.390774464676
4460.940379127435,2395.549180611402
4460.963578331651,2295.5071582667433
4460.986777656513,2275.681386946684
4461.009977102025,2313.116086057493
4461.033176668186,2355.171817360021
4461.056376354995,2393.8179242779493
4461.079576162457,2352.350604668977
4461.102776090568,2170.287637748136
4461.125976139332,2002.0197817923938
4461.149176308748,1859.9676685107904
4461.172376598816,1727.6378537780618
4461.195577009538,1681.080987950947
4461.218777540915,1705.2067302807159
4461.241978192946,1854.0792744264236
4461.265178965633,2118.327164149681
4461.2883798589755,2496.5798539828606
4461.311580872974,2807.602513686885
4461.3347820076315,3139.7484883168513
4461.357983262946,3495.675392888639
4461.381184638919,3697.215031079848
4461.404386135551,3675.5289845125135
4461.4275877528435,3569.186517477628
4461.4507894907965,3479.9018790022437
4461.4739913494095,3188.3840851071595
4461.497193328685,2883.3225456402806
4461.520395428623,2675.370244485739
4461.543597649224,2590.0517223775737
4461.566799990488,2663.533655796245
4461.590002452416,2822.0156877885947
4461.61320503501,3140.9862459666274
4461.636407738269,3411.999026662022
4461.659610562193,3629.747099263886
4461.682813506784,3952.6230625709245
4461.706016572044,4194.224522844527
4461.729219757971,4414.135065479143
4461.752423064566,4514.373257770029
4461.775626491831,4580.892386824647
4461.798830039766,4650.575490596939
4461.82203370837,4683.788115496318
4461.845237497647,4548.417899793391
4461.868441407595,4422.311041529698
4461.891645438215,4285.502814620733
4461.914849589509,3993.216122964853
4461.938053861475,3721.8903223336906
4461.961258254117,3469.38910091873
4461.984462767433,3403.578489748523
4462.007667401424,3399.464853127744
4462.030872156092,3550.58355993012
4462.0540770314365,3804.7218349288073
4462.077282027459,4143.7241865732185
4462.100487144158,4443.491936239872
4462.123692381537,4693.47218616604
4462.146897739594,4888.4521067210035
4462.170103218332,5056.443062307654
4462.19330881775,5141.629747526651
4462.21651453785,5185.912897813121
4462.239720378631,5293.201064271308
4462.262926340095,5237.725452888074
4462.286132422241,5282.726572270772
4462.309338625071,5316.5031386206265
4462.3325449485865,5195.274919564635
4462.355751392785,5134.683068469798
4462.3789579576705,5004.210552915597
4462.402164643242,4902.253670431312
4462.4253714495,4651.716993107744
4462.448578376446,4451.93732375806
4462.471785424079,4100.218452934595
4462.494992592401,3728.0301129396917
4462.518199881412,3673.271646613303
4462.541407291114,3536.273060298846
4462.564614821506,3584.655136867423
4462.587822472589,3706.7343624068244
4462.611030244365,3930.063202912248
4462.634238136832,4196.760687365863
4462.657446149992,4225.322387793991
4462.680654283847,4411.128786568436
4462.703862538396,4764.567091797528
4462.727070913639,4808.812585877986
4462.750279409578,4879.757230581273
4462.773488026214,5002.209321684959
