wave,flux
5000.025812696027,11434.714572630526
5000.051815424163,11136.432987650072
5000.0778182875265,10843.973473694037
5000.103821286119,10553.63755514001
5000.12982441994,10196.240482159728
5000.155827688991,9716.642031606583
5000.181831093272,9278.996985694044
5000.207834632784,8837.003478810806
5000.2338383075285,8478.407514850844
5000.259842117506,8034.2631529700075
5000.285846062716,7630.423163630437
5000.311850143161,7480.788599797755
5000.33785435884,7234.188506707572
5000.363858709754,7229.628115593135
5000.389863195905,7220.159475381999
5000.415867817292,7245.099120118402
5000.441872573917,7497.982538230077
5000.4678774657805,7840.265187981038
5000.493882492882,8171.950389478606
5000.519887655224,8603.831989991819
5000.545892952806,9033.259471756712
5000.571898385629,9251.30135825362
5000.597903953694,9434.541334407933
5000.623909657001,9436.899717725793
5000.649915495552,9359.166675660033
5000.675921469346,9370.59075646897
5000.701927578384,9153.045987694788
5000.727933822669,9008.848378225497
5000.7539402021985,8916.070021552614
5000.779946716975,8703.46431772419
5000.805953366999,8597.767872173097
5000.831960152272,8612.917885798406
5000.857967072792,8799.960809976174
5000.883974128563,9049.762881975246
5000.9099813195835,9241.302570680886
5000.935988645855,9420.216888142068
5000.961996107378,9522.718390546615
5000.988003704153,9743.258711104088
5001.014011436181,9873.986536283128
5001.040019303464,9962.804721345605
5001.066027306,9987.245011381749
5001.092035443791,10245.35027432854
5001.118043716839,10462.853554001435
5001.1440521251425,10798.894939049365
5001.170060668704,10828.75870674834
5001.196069347523,11014.567925440493
5001.222078161601,11074.449674031643
5001.248087110937,10917.175668795067
5001.274096195534,10797.05439400233
5001.300105415392,10778.716604683581
5001.326114770512,10731.363606479656
5001.352124260892,10585.807582080293
5001.3781338865365,10510.905281835307
5001.4041436474445,10405.698576793935
5001.430153543616,10164.022249146676
5001.456163575053,10027.332650045833
5001.482173741756,9774.890899023669
5001.508184043724,9517.81488285487
5001.534194480961,9302.580187641728
5001.560205053464,9114.221853142735
5001.586215761236,8915.810632032002
5001.612226604278,8730.234627963371
5001.638237582589,8427.4164816301
5001.664248696171,8176.716805128192
5001.690259945024,7903.726397822863
5001.716271329149,7517.895418956283
5001.742282848547,7135.169426473892
5001.768294503218,6718.114366041378
5001.794306293164,6310.849766216869
5001.820318218383,5970.303868325275
5001.84633027888,5660.0642573699
5001.872342474651,5528.518663586824
5001.8983548056995,5493.527821557575
5001.924367272026,5578.077211317276
5001.9503798736305,5972.388857846389
5001.976392610514,6525.440807517124
5002.002405482678,7297.505006258067
5002.028418490122,8014.038642016133
5002.054431632847,8743.26848768734
5002.080444910854,9466.819078575085
5002.106458324142,10054.948045801888
5002.1324718727155,10604.258182509611
5002.158485556572,11015.955098681794
5002.184499375713,11235.85037864809
5002.210513330139,11549.160052188776
5002.236527419852,11794.1332821484
5002.262541644852,11776.951825521168
5002.288556005138,11824.617871251461
5002.314570500714,11807.511676172659
5002.340585131577,11643.291016315992
5002.36659989773,11693.598624483451
5002.392614799174,11442.168900451956
5002.418629835909,11362.070911948997
5002.444645007936,11231.937869402645
5002.4706603152545,10927.003787132671
5002.496675757866,10690.835677373996
5002.522691335772,10436.701411483713
5002.548707048972,10142.322938082085
5002.574722897468,9760.114499547692
5002.600738881259,9421.279152681833
5002.626755000347,9207.416275229543
5002.652771254732,8783.589724421547
5002.678787644415,8402.183309259392
5002.704804169397,8227.50447903043
5002.730820829678,7939.233308783438
5002.75683762526,7778.865482391879
5002.782854556142,7553.089117790838
5002.8088716223265,7497.087319972014
5002.834888823812,7563.301679145577
5002.860906160601,7756.075518495302
5002.886923632695,8078.45735645499
5002.912941240092,8601.467810026008
5002.938958982793,9185.125046012909
5002.9649768608015,9831.78243067391
5002.990994874116,10421.879803766975
5003.017013022737,10854.263385233991
5003.043031306666,11294.45549723236
5003.069049725905,11701.298851904809
5003.095068280452,11870.526903529095
5003.121086970309,11956.429391671143
5003.147105795477,12078.101751829743
5003.173124755956,12072.128835999909
5003.199143851748,12221.407270550448
5003.225163082852,12062.68462032724
5003.251182449269,12111.842099746222
5003.277201951001,11944.440872769279
5003.3032215880485,12038.9279458599
5003.32924136041,11981.101593968731
5003.35526126809,12014.678382171865
5003.381281311085,11922.314052440553
5003.407301489398,11844.892108301077
5003.433321803031,11703.008278103942
5003.459342251982,11594.434344188976
5003.4853628362525,11562.876863607693
5003.511383555844,11435.350645578357
5003.537404410757,11276.053640537777
5003.563425400991,11079.915475182324
5003.589446526548,10982.457542334398
5003.615467787429,10765.381084136732
5003.641489183634,10580.69439560128
5003.667510715163,10505.364814279266
5003.693532382018,10167.377570226929
5003.719554184199,9983.514373282453
5003.745576121707,9805.183592142706
5003.771598194542,9551.571676401645
5003.797620402706,9519.52093330573
5003.823642746199,9395.723995796545
5003.849665225021,9387.208342342969
5003.875687839174,9436.510681501542
5003.901710588658,9476.851462465971
5003.927733473473,9580.44852164427
5003.953756493622,9685.815198903874
5003.979779649103,9663.281088983442
5004.005802939919,9481.308033233834
5004.031826366068,9369.758613773203
5004.057849927553,9391.011121240657
5004.083873624375,9329.68725824841
5004.109897456533,9336.562148040422
5004.135921424028,9395.012863620093
5004.161945526862,9562.155680358524
5004.187969765035,9895.482017225586
5004.213994138547,10199.16775916971
5004.240018647399,10364.163531957875
5004.266043291592,10587.599670515976
5004.292068071127,10703.572094712148
5004.318092986004,10806.212607375877
5004.344118036223,10913.224953239145
5004.370143221788,11071.171596764523
5004.396168542696,11132.566264214041
5004.422193998949,11223.726782388754
5004.448219590549,11434.735958314697
5004.474245317495,11524.667450142217
5004.500271179789,11585.683618577776
5004.52629717743,11623.870005261542
5004.5523233104195,11817.55660596681
5004.578349578759,12035.2214279296
5004.604375982449,12039.083614220663
5004.630402521489,12115.334708753873
5004.656429195881,12030.715986507652
5004.682456005625,11783.337325786948
5004.708482950721,11849.877940928043
5004.734510031172,11916.239428482537
5004.760537246977,11769.196738069113
5004.7865645981365,11542.15365016458
5004.812592084652,11363.469776152038
5004.838619706525,11196.357627644493
5004.8646474637535,10894.746986423941
5004.890675356341,10663.01513976086
5004.916703384286,10438.07853485287
5004.942731547591,10052.772144132372
5004.968759846256,9769.541053732897
5004.994788280281,9505.667769955451
5005.020816849668,9207.313618841355
5005.046845554417,8974.780044209103
5005.072874394528,8693.600012134406
5005.098903370003,8480.113796339938
5005.124932480842,8261.712118824236
5005.150961727047,7932.563159903686
5005.176991108617,7820.633605521464
5005.203020625552,7714.505118336977
5005.229050277856,7747.987334816928
5005.255080065526,7922.34854052561
5005.281109988566,8315.398797864016
5005.3071400469735,8716.099692158903
5005.333170240751,9094.232105785215
5005.3592005699,9437.26039583715
5005.38523103442,9662.918747446609
5005.411261634312,9639.101293940723
5005.4372923695755,9505.976263964918
5005.463323240213,9349.595298735616
5005.489354246225,8923.875322209979
5005.515385387611,8497.763840215724
5005.541416664373,8134.761308538348
5005.567448076511,7772.50766178188
5005.593479624025,7294.221232288636
5005.619511306918,6821.158897693607
5005.645543125189,6453.981870344683
5005.671575078838,6039.879670060297
5005.697607167867,5637.884854041698
5005.723639392277,5323.01217615306
5005.749671752068,5077.701704504022
5005.77570424724,5035.045019812177
5005.8017368777955,5034.875321904122
5005.8277696437335,5182.096075991121
5005.853802545055,5409.14657255814
5005.879835581762,5584.420845719158
5005.905868753854,5747.174363881556
5005.931902061331,5840.7165966227985
5005.957935504196,5815.901585429131
5005.983969082448,5698.620723045516
5006.010002796088,5477.0820972785305
5006.036036645117,5224.136549296849
5006.062070629536,4971.541403096281
5006.088104749344,4760.629501558626
5006.114139004544,4615.8427358702675
5006.140173395135,4657.9716638667205
5006.166207921118,4599.218793502107
5006.192242582495,4961.974879549488
5006.218277379266,5496.15721329338
5006.244312311431,6154.026530312004
5006.270347378991,6936.415992109672
5006.296382581946,7750.521230116765
5006.322417920299,8523.493731060109
5006.348453394048,9237.636199537881
5006.374489003196,9967.454189224636
5006.400524747743,10504.936036174382
5006.426560627688,10847.63940256665
5006.452596643034,11267.506565793068
5006.47863279378,11534.950328607816
5006.504669079928,11596.480914177188
5006.530705501478,11750.712420063868
5006.556742058431,11769.726120857174
5006.582778750788,11761.37942499573
5006.608815578549,11679.984678242485
5006.634852541715,11640.435860564572
5006.660889640287,11664.303412433697
5006.686926874265,11575.723681911402
5006.71296424365,11495.02485970588
5006.739001748444,11621.967178265208
5006.765039388645,11447.430060268383
5006.791077164256,11380.181156945066
5006.817115075277,11307.00317037576
5006.843153121708,11063.904340955476
5006.869191303552,10931.006576642423
5006.895229620806,10740.54214519577
5006.921268073474,10472.429764792048
5006.947306661555,10030.135495892095
5006.97334538505,9603.231113063475
5006.999384243961,9210.541393147449
5007.025423238286,8708.99587280599
5007.051462368028,8243.86483506848
5007.077501633187,7685.566258869105
5007.103541033764,7155.522961315184
5007.129580569759,6685.570085962367
5007.155620241173,6190.348817114445
5007.181660048007,5762.4667219389885
5007.207699990262,5394.105204815923
5007.233740067937,5103.53109877046
5007.259780281035,5033.592069569027
5007.285820629555,5081.534704108914
5007.311861113499,5309.373642328305
5007.337901732866,5768.050140690829
5007.363942487658,6227.33981352275
5007.389983377876,6958.938743924166
5007.41602440352,7795.81912844008
5007.442065564591,8573.222666177571
5007.468106861089,9194.248800959522
5007.494148293015,9820.887208254875
5007.520189860371,10315.700398738441
5007.546231563156,10634.165406736067
5007.572273401372,10908.436658028002
5007.598315375018,11037.509092779392
5007.624357484096,11126.20885062356
5007.650399728607,11164.529376294882
5007.676442108551,11052.67565242537
5007.702484623929,11125.680750222587
5007.728527274741,11168.879096984274
5007.754570060989,11105.168057130879
5007.780612982673,11085.0552347178
5007.806656039793,11189.709044119045
5007.832699232351,11241.593783528824
5007.858742560347,11558.974466723086
5007.884786023782,11713.309762916459
5007.910829622656,11920.618134571054
5007.936873356971,12113.416804492772
5007.962917226726,12204.023160769477
5007.988961231923,12384.556711474239
5008.015005372563,12305.002382193636
5008.041049648646,12335.481571291686
5008.067094060171,12443.223415571863
5008.0931386071425,12466.971987262952
5008.119183289558,12446.106133809808
5008.14522810742,12477.790329902993
5008.171273060728,12541.481938686624
5008.197318149483,12566.79714615231
5008.223363373687,12616.11586097232
5008.249408733339,12557.943295139112
5008.27545422844,12622.720050344009
5008.301499858992,12702.40545453662
5008.327545624995,12663.796349773264
5008.353591526448,12504.989078558903
5008.379637563355,12585.736785986484
5008.405683735714,12548.036495331064
5008.431730043527,12343.414709179444
5008.457776486794,12380.090220103817
5008.483823065515,12311.375179945315
5008.509869779693,12209.741338933347
5008.535916629327,12237.49568638694
5008.561963614418,12172.77482683761
5008.588010734968,12100.638732172134
5008.614057990975,12162.838962576021
5008.640105382442,12012.91763360988
5008.666152909369,11848.657111813674
5008.692200571756,11907.2492645292
5008.718248369605,11948.287480675948
5008.744296302916,12011.13855683518
5008.77034437169,12112.481697053767
5008.796392575927,12222.606209436455
5008.822440915628,12468.991223281913
5008.848489390794,12562.528014184023
5008.874538001426,12500.443698738765
5008.900586747524,12514.57112164832
5008.926635629089,12489.649661000592
5008.952684646122,12597.442971718807
5008.978733798623,12560.127251687423
5009.004783086593,12562.644376702518
5009.030832510033,12463.222955452953
5009.056882068944,12445.351368741778
5009.082931763326,12492.848971037583
5009.108981593179,12543.515451427136
5009.135031558506,12500.16499982589
5009.161081659306,12657.590979902387
5009.187131895579,12565.77495637532
5009.213182267327,12490.083975320871
5009.239232774552,12524.060432128004
5009.265283417251,12454.50354672645
5009.291334195428,12428.952400046792
5009.317385109083,12319.290761656579
5009.343436158216,12199.670268012913
5009.369487342828,12059.33914205884
5009.395538662919,11913.413157013249
5009.421590118491,11928.897087094607
5009.447641709544,11815.506890596105
5009.473693436078,11643.23495449418
5009.499745298095,11574.78009093495
5009.525797295596,11430.555033622366
5009.55184942858,11405.032899783515
5009.577901697049,11250.972372797163
5009.603954101003,11146.782347784329
5009.630006640443,11057.08219832201
5009.65605931537,10951.387469035446
5009.682112125784,10882.251293639341
5009.708165071686,10846.079224626708
5009.7342181530785,10823.421416135438
5009.760271369959,10787.729614589538
5009.78632472233,10892.046421526551
5009.812378210192,10927.609559763363
5009.838431833546,10878.210257478811
5009.864485592391,10738.594566488611
5009.890539486731,10601.865240626064
5009.916593516564,10377.713177300375
5009.942647681891,10072.622479452173
5009.968701982713,9765.22381172031
5009.994756419032,9487.955029327968
5010.020810990847,9108.679814004052
5010.046865698159,8681.309006492036
5010.072920540969,8379.859886740262
5010.098975519279,8169.2416546583145
5010.125030633087,8089.4680967984
5010.151085882395,8051.369483818806
5010.177141267204,7960.980517050816
5010.2031967875155,8066.115302742032
5010.229252443328,8179.869192452515
5010.255308234644,8256.740792940183
5010.281364161464,8565.188063446796
5010.307420223788,8878.1847966152
5010.333476421617,9269.74903297859
5010.359532754951,9913.121597412603
5010.3855892237925,10319.64442874468
5010.4116458281405,10849.412534352714
5010.437702567997,11355.917126957362
5010.463759443362,11657.078537384918
5010.489816454236,11906.212981550638
5010.51587360062,12153.556960348427
5010.541930882514,12260.238662057307
5010.56798829992,12335.870910827309
5010.5940458528385,12370.348024382463
5010.62010354127,12216.3522496359
5010.646161365214,12079.391804219853
5010.672219324672,11879.41271770316
5010.698277419646,11667.902073204257
5010.724335650135,11489.84760847326
5010.7503940161405,11184.711535331659
5010.7764525176635,10944.89810829336
5010.802511154703,10801.963080097366
5010.828569927262,10540.331949847478
5010.85462883534,10216.332557090604
5010.880687878937,9965.52684566189
5010.906747058056,9806.22027853295
5010.932806372695,9556.375231919508
5010.958865822856,9530.800565623153
5010.98492540854,9483.253557089134
5011.0109851297475,9720.94391049131
5011.0370449864795,10014.341995078124
5011.063104978735,10452.758106753925
5011.089165106517,10876.849858860152
5011.115225369825,11134.478843369423
5011.14128576866,11643.234394764566
5011.167346303022,11948.737463440088
5011.193406972913,12194.764584591265
5011.219467778333,12329.978656934542
5011.2455287192815,12508.421181520858
5011.271589795761,12484.554667325994
5011.297651007772,12592.087038760106
5011.323712355315,12548.007268253285
5011.34977383839,12551.08787797169
5011.375835456999,12484.810009926656
5011.401897211142,12415.574936150892
5011.427959100819,12400.152239885556
5011.454021126031,12356.805879182217
5011.4800832867795,12283.290849920397
5011.506145583065,12164.870230761537
5011.532208014888,12051.191900405982
5011.558270582248,11833.654134607526
5011.584333285148,11550.657206712458
5011.610396123588,11353.112507798898
5011.636459097567,11105.548150098155
5011.662522207088,10815.351383424624
5011.68858545215,10490.320497561745
5011.714648832754,10045.20261483943
5011.740712348902,9687.736003347301
5011.766776000594,9312.814661416767
5011.79283978783,8815.077398189784
5011.818903710611,8383.537370162856
5011.844967768939,7857.943585855813
5011.871031962813,7554.782713288748
5011.897096292234,7074.0134196666595
5011.923160757203,6656.226557526666
5011.949225357721,6127.625922171556
5011.975290093788,5649.601840938632
5012.001354965406,5175.8167513738845
5012.027419972574,4769.870706307315
5012.053485115294,4369.6473466787875
5012.079550393566,4105.441554903864
5012.105615807392,4011.6687464719466
5012.13168135677,4063.1294090050415
5012.157747041703,4255.539582820404
5012.183812862192,4640.252895738649
5012.209878818236,5104.323223444146
5012.235944909837,5599.069322857776
5012.262011136994,6191.027037813501
5012.28807749971,6718.070843478155
5012.3141439979845,7174.395410596394
5012.340210631818,7592.18359055599
5012.366277401212,7798.04648661857
5012.392344306166,7950.651757849593
5012.418411346682,8099.724336294145
5012.44447852276,8044.730598932059
5012.470545834401,7972.877887799358
5012.496613281605,8107.871216413052
5012.522680864374,8205.367788223037
5012.548748582707,8333.579413454165
5012.574816436606,8624.86585870212
5012.600884426071,8941.016805391553
5012.626952551104,9380.659750617016
5012.653020811705,9634.989820230245
5012.679089207873,9768.80898424349
5012.705157739611,9959.93270047713
5012.73122640692,10096.078667291056
5012.757295209798,10284.495047763397
5012.7833641482475,10480.819181152217
5012.80943322227,10777.650311336138
5012.835502431864,10898.046916002102
5012.861571777033,11377.242264716828
5012.887641257775,11592.132848622803
5012.9137108740915,11766.769844582263
5012.939780625984,11760.385437251718
5012.965850513452,11699.740224669378
5012.991920536498,11731.415587445794
5013.017990695121,11638.32959636672
5013.044060989323,11463.882337133908
5013.070131419104,11315.931011726996
5013.096201984464,11018.442501755395
5013.122272685405,10687.620915764777
5013.148343521927,10421.351901468692
5013.17441449403,10121.337159915869
5013.200485601717,9767.138414978257
5013.226556844987,9351.317812990623
5013.2526282238405,8995.591178958648
5013.278699738279,8650.560313394719
5013.304771388303,8327.841119013847
5013.330843173913,8017.006115360209
5013.35691509511,7770.35611185469
5013.382987151894,7617.174269747611
5013.409059344267,7625.013549256464
5013.435131672228,7769.032623296743
5013.46120413578,7871.408793707913
5013.487276734921,7823.650726259974
5013.513349469653,7737.83664257199
5013.539422339977,7676.980147615276
5013.565495345894,7438.12309034044
5013.5915684874035,7210.648583902613
5013.617641764507,6956.9381063770015
5013.643715177206,6611.633129093215
5013.6697887254995,6257.287522229725
5013.695862409389,6110.869201161839
5013.721936228875,5981.522067185652
5013.748010183958,5984.329500271595
5013.77408427464,6250.237974657209
5013.800158500921,6642.578192619556
5013.826232862801,7125.0689781360625
5013.852307360281,7571.819183722114
5013.8783819933615,8148.031568092631
5013.904456762045,8493.684646310143
5013.930531666329,8677.578354027635
5013.956606706218,8829.466058022377
5013.982681881709,8763.381448110655
5014.008757192805,8493.293126416816
5014.034832639507,8222.874515395946
5014.060908221814,7942.318991885494
5014.086983939728,7584.53308011138
5014.113059793249,7255.946560867813
5014.139135782378,6844.836675308986
5014.165211907116,6317.819139344603
5014.1912881674625,5923.126290898664
5014.21736456342,5589.855534470231
5014.243441094988,5302.19432660454
5014.269517762167,5257.176441715608
5014.295594564959,5355.089749856631
5014.321671503363,5641.329991341171
