wave,flux
5000.025812696027,23892.828791572483
5000.051815424163,23603.42680067634
5000.0778182875265,22921.7432302342
5000.103821286119,22035.26053739129
5000.12982441994,21316.823568634198
5000.155827688991,20884.716932170526
5000.181831093272,20701.691251143657
5000.207834632784,20784.819284088448
5000.2338383075285,21001.56050131569
5000.259842117506,21345.762241687426
5000.285846062716,21803.082510639124
5000.311850143161,22269.08692240831
5000.33785435884,22686.38617392868
5000.363858709754,22976.992179565594
5000.389863195905,23345.50377078758
5000.415867817292,23915.420376957176
5000.441872573917,24301.797434527994
5000.4678774657805,24771.453223584056
5000.493882492882,25219.27005483864
5000.519887655224,25685.82764546881
5000.545892952806,26011.509015650005
5000.571898385629,26114.410213734096
5000.597903953694,26158.7324178713
5000.623909657001,26090.914856945077
5000.649915495552,25995.023233702792
5000.675921469346,25953.436975937588
5000.701927578384,25851.552805097675
5000.727933822669,25503.035193646327
5000.7539402021985,24846.368597966302
5000.779946716975,24139.48957339682
5000.805953366999,23347.32580077697
5000.831960152272,22310.660749036095
5000.857967072792,21320.50419963791
5000.883974128563,20738.645884953974
5000.9099813195835,20194.007178481264
5000.935988645855,20169.265027145477
5000.961996107378,20311.91921564886
5000.988003704153,20723.633564462252
5001.014011436181,21196.168549987673
5001.040019303464,21413.27728670467
5001.066027306,21510.111183245757
5001.092035443791,21385.20693668273
5001.118043716839,20957.448561623936
5001.1440521251425,20255.508836125544
5001.170060668704,19125.182609542848
5001.196069347523,17897.85661642842
5001.222078161601,16373.832998098951
5001.248087110937,15188.99319701447
5001.274096195534,14157.296403388118
5001.300105415392,13783.275173218117
5001.326114770512,13838.691729274497
5001.352124260892,14438.65076127608
5001.3781338865365,15386.40850698853
5001.4041436474445,16643.66970181289
5001.430153543616,18101.3484204588
5001.456163575053,19593.099518276107
5001.482173741756,21031.20509479288
5001.508184043724,22238.519490151033
5001.534194480961,23340.06513978005
5001.560205053464,24462.815972798235
5001.586215761236,25292.764473836694
5001.612226604278,25900.540531960363
5001.638237582589,26305.602819163894
5001.664248696171,26760.58603263761
5001.690259945024,27194.993157478904
5001.716271329149,27100.836298904724
5001.742282848547,27148.13631948725
5001.768294503218,27257.87663589271
5001.794306293164,27167.668140568883
5001.820318218383,27246.856071951603
5001.84633027888,27164.41558539521
5001.872342474651,26861.837825278424
5001.8983548056995,26782.659967932537
5001.924367272026,26784.230842271005
5001.9503798736305,26640.537059206254
5001.976392610514,26323.14952965857
5002.002405482678,25866.22475230736
5002.028418490122,25571.906838362604
5002.054431632847,24997.655316571487
5002.080444910854,24431.71526713706
5002.106458324142,23473.035495271448
5002.1324718727155,22593.118657802344
5002.158485556572,21549.711207033495
5002.184499375713,20559.568330055736
5002.210513330139,19907.84533757364
5002.236527419852,19938.88782334169
5002.262541644852,20196.536338095957
5002.288556005138,20732.373521756945
5002.314570500714,21661.327705326876
5002.340585131577,22713.80589369875
5002.36659989773,23714.60863109695
5002.392614799174,24522.524997180142
5002.418629835909,25034.29259311932
5002.444645007936,25563.666175194587
5002.4706603152545,26271.60280113056
5002.496675757866,26731.73678242086
5002.522691335772,27009.33013710453
5002.548707048972,27337.98117005153
5002.574722897468,27486.540075602396
5002.600738881259,27380.069035013927
5002.626755000347,27559.205554390996
5002.652771254732,27678.859162007848
5002.678787644415,27739.219599485168
5002.704804169397,27519.56941593028
5002.730820829678,27573.171347861702
5002.75683762526,27656.273614992024
5002.782854556142,27658.12963395726
5002.8088716223265,27600.16432626884
5002.834888823812,27358.757760782504
5002.860906160601,27375.549695542166
5002.886923632695,27548.754675223186
5002.912941240092,27386.88816892967
5002.938958982793,27188.804162981454
5002.9649768608015,27190.887903260136
5002.990994874116,26983.66546977313
5003.017013022737,27215.22407843764
5003.043031306666,26972.051348222645
5003.069049725905,26868.960112658217
5003.095068280452,26616.676156569338
5003.121086970309,26346.398992860293
5003.147105795477,26025.850507689975
5003.173124755956,25807.8447548015
5003.199143851748,25685.075234064392
5003.225163082852,25708.31029387909
5003.251182449269,25742.601206655632
5003.277201951001,25670.157280756554
5003.3032215880485,25626.617695218956
5003.32924136041,25448.329162018294
5003.35526126809,25137.571534428513
5003.381281311085,24876.452600834356
5003.407301489398,24269.725497908
5003.433321803031,23794.231109613007
5003.459342251982,23412.93578431514
5003.4853628362525,22931.809790812764
5003.511383555844,23025.456863023304
5003.537404410757,23439.287033818375
5003.563425400991,23739.6264280073
5003.589446526548,23891.298446770725
5003.615467787429,24166.777357831637
5003.641489183634,24523.2026791718
5003.667510715163,24814.991060029828
5003.693532382018,25177.447241362024
5003.719554184199,25490.058144684917
5003.745576121707,25657.130059611834
5003.771598194542,25930.744897769808
5003.797620402706,26184.468993756156
5003.823642746199,26263.15429573249
5003.849665225021,26442.917434346517
5003.875687839174,26814.6954339048
5003.901710588658,26908.688848063575
5003.927733473473,27037.984777244597
5003.953756493622,27298.16147237874
5003.979779649103,27523.720698036508
5004.005802939919,27580.336288623224
5004.031826366068,27429.66864050886
5004.057849927553,27506.050241973495
5004.083873624375,27626.366901243102
5004.109897456533,27518.70117274228
5004.135921424028,27462.440649044125
5004.161945526862,27520.0549338191
5004.187969765035,27399.136694565932
5004.213994138547,27268.758449913712
5004.240018647399,27196.274594334278
5004.266043291592,26889.23178852035
5004.292068071127,26708.352616919554
5004.318092986004,26595.09481999504
5004.344118036223,26114.817322250055
5004.370143221788,25893.418807331094
5004.396168542696,25448.315484918436
5004.422193998949,24885.652471636837
5004.448219590549,24228.089162163524
5004.474245317495,23070.683719448458
5004.500271179789,21914.48356519964
5004.52629717743,20771.19975987228
5004.5523233104195,19470.081396497935
5004.578349578759,18641.012704263892
5004.604375982449,18455.884903264036
5004.630402521489,18646.88684595804
5004.656429195881,19070.78212649379
5004.682456005625,19796.556899126674
5004.708482950721,20832.59604487011
5004.734510031172,21911.478996889142
5004.760537246977,22831.074066676938
5004.7865645981365,23478.413721863224
5004.812592084652,24013.828624860067
5004.838619706525,24572.555416305022
5004.8646474637535,24691.594570994075
5004.890675356341,24566.342249628186
5004.916703384286,24012.52670949319
5004.942731547591,23596.38931212542
5004.968759846256,22801.054365415624
5004.994788280281,21542.39661327582
5005.020816849668,20289.280071967052
5005.046845554417,18764.844709447138
5005.072874394528,17315.47415255341
5005.098903370003,15998.276185782877
5005.124932480842,15000.580098654735
5005.150961727047,14535.474958765359
5005.176991108617,14547.869030981263
5005.203020625552,15065.355021527957
5005.229050277856,15827.865650054015
5005.255080065526,16597.49420043582
5005.281109988566,17369.2589458564
5005.3071400469735,17920.105391816545
5005.333170240751,18236.540267057317
5005.3592005699,18160.810190779466
5005.38523103442,17706.79699087245
5005.411261634312,16985.261682333887
5005.4372923695755,15856.242699210072
5005.463323240213,14735.86129059368
5005.489354246225,13643.290388492143
5005.515385387611,12842.976557140244
5005.541416664373,12389.341221830085
5005.567448076511,12400.957100974352
5005.593479624025,12953.687213148196
5005.619511306918,13926.100858223583
5005.645543125189,15085.539795817233
5005.671575078838,16626.276553543576
5005.697607167867,18379.547235766113
5005.723639392277,19802.63316294097
5005.749671752068,21143.141154199307
5005.77570424724,22532.466203253487
5005.8017368777955,23718.72166428901
5005.8277696437335,24552.855338092373
5005.853802545055,25504.356561776895
5005.879835581762,26011.805398303637
5005.905868753854,26203.584384950438
5005.931902061331,26685.560863948904
5005.957935504196,26884.514340907506
5005.983969082448,27068.82087220096
5006.010002796088,26902.997423828583
5006.036036645117,27136.210322690113
5006.062070629536,27168.064455427873
5006.088104749344,27047.723199945223
5006.114139004544,26917.98489435322
5006.140173395135,26848.33919015643
5006.166207921118,26884.003504334443
5006.192242582495,26877.924302398642
5006.218277379266,26760.113066852515
5006.244312311431,26601.800949855256
5006.270347378991,26564.772506604742
5006.296382581946,26561.529499953987
5006.322417920299,26390.70914150216
5006.348453394048,26291.860455280967
5006.374489003196,26006.613112790503
5006.400524747743,25606.32040990156
5006.426560627688,25179.134422052022
5006.452596643034,24321.012899378147
5006.47863279378,23542.275200599244
5006.504669079928,22393.239169164175
5006.530705501478,21014.246790033667
5006.556742058431,19396.386059399978
5006.582778750788,17659.93272049215
5006.608815578549,16203.56502765597
5006.634852541715,14932.170025073778
5006.660889640287,14165.32224739568
5006.686926874265,13765.469794569382
5006.71296424365,13950.29013456374
5006.739001748444,14751.145334597859
5006.765039388645,15733.702839878097
5006.791077164256,17103.230691444973
5006.817115075277,18625.612623952085
5006.843153121708,20114.194159512303
5006.869191303552,21541.674570944695
5006.895229620806,22734.101009570808
5006.921268073474,23833.21236731652
5006.947306661555,24580.616897921263
5006.97334538505,25445.373913580857
5006.999384243961,26042.547791610046
5007.025423238286,26047.568248688753
5007.051462368028,26390.92835013665
5007.077501633187,26180.492145067936
5007.103541033764,25886.6364714832
5007.129580569759,25832.78987123086
5007.155620241173,25686.335429573734
5007.181660048007,25742.905807844916
5007.207699990262,26116.545563025844
5007.233740067937,26491.63635512517
5007.259780281035,26670.15946208023
5007.285820629555,26954.377700592828
5007.311861113499,27141.402896928703
5007.337901732866,27157.33464412346
5007.363942487658,27484.190656740837
5007.389983377876,27705.321577573104
5007.41602440352,27980.07015487876
5007.442065564591,27922.694692259756
5007.468106861089,27806.876975914976
5007.494148293015,27934.85790941904
5007.520189860371,27964.46152891694
5007.546231563156,28127.563819667907
5007.572273401372,27979.320765146316
5007.598315375018,27867.48462848173
5007.624357484096,27975.394701650475
5007.650399728607,28076.890712292225
5007.676442108551,28136.108402201113
5007.702484623929,28078.534362775612
5007.728527274741,28120.734784745226
5007.754570060989,28197.895613379813
5007.780612982673,28310.95505303827
5007.806656039793,28110.6720341803
5007.832699232351,28219.37017547843
5007.858742560347,28352.62393056084
5007.884786023782,28120.763592239018
5007.910829622656,28131.361556704298
5007.936873356971,28040.716157357278
5007.962917226726,27896.198250770813
5007.988961231923,27471.89345663837
5008.015005372563,27369.155850873925
5008.041049648646,27303.956361704535
5008.067094060171,27244.72711104731
5008.0931386071425,27230.57731454112
5008.119183289558,27297.631299628734
5008.14522810742,27255.948911442483
5008.171273060728,27509.208493780567
5008.197318149483,27522.260634879087
5008.223363373687,27685.628921513668
5008.249408733339,27951.122736932066
5008.27545422844,27880.038554228402
5008.301499858992,27830.02578989455
5008.327545624995,27921.282001324136
5008.353591526448,28046.44252593323
5008.379637563355,28045.975950216616
5008.405683735714,27938.60242242804
5008.431730043527,27893.298611334747
5008.457776486794,27914.780739327467
5008.483823065515,27914.91864687892
5008.509869779693,27870.32139997485
5008.535916629327,27954.327079195493
5008.561963614418,28212.055263409933
5008.588010734968,28261.536018442595
5008.614057990975,28212.749005660397
5008.640105382442,28178.525705286436
5008.666152909369,28050.488421229078
5008.692200571756,28326.49180719304
5008.718248369605,28345.92072893122
5008.744296302916,28147.38392852438
5008.77034437169,28267.968267340977
5008.796392575927,28184.664246089942
5008.822440915628,27862.14306053887
5008.848489390794,27852.673190622772
5008.874538001426,27686.025081769643
5008.900586747524,27675.105645942487
5008.926635629089,27802.00888054089
5008.952684646122,27588.724623314996
5008.978733798623,27357.074302305704
5009.004783086593,27298.264518184544
5009.030832510033,27253.476998159855
5009.056882068944,27321.439657315736
5009.082931763326,27317.14388043627
5009.108981593179,27178.464196598885
5009.135031558506,27247.923328016874
5009.161081659306,27335.990225311805
5009.187131895579,27286.640895468812
5009.213182267327,27296.076555299773
5009.239232774552,27166.971468282693
5009.265283417251,27009.339803835515
5009.291334195428,27012.671438248064
5009.317385109083,26705.63231957225
5009.343436158216,26317.275580026955
5009.369487342828,25778.126016320355
5009.395538662919,25090.742325067044
5009.421590118491,24304.639913067287
5009.447641709544,23570.213530558598
5009.473693436078,22885.91369146706
5009.499745298095,22080.077631471526
5009.525797295596,21202.69247078892
5009.55184942858,20245.321979623124
5009.577901697049,19347.48843086905
5009.603954101003,18428.74535814084
5009.630006640443,17970.37828187325
5009.65605931537,17947.814094345613
5009.682112125784,18299.462529063672
5009.708165071686,19220.462863761222
5009.7342181530785,20266.516338152076
5009.760271369959,21255.182895298214
5009.78632472233,22506.14535862268
5009.812378210192,23723.361597866402
5009.838431833546,24621.525293139875
5009.864485592391,25430.821364667103
5009.890539486731,26107.125489506772
5009.916593516564,26766.605047967438
5009.942647681891,27262.245861054438
5009.968701982713,27552.124639789956
5009.994756419032,27845.82496577172
5010.020810990847,27816.010023532923
5010.046865698159,28022.502245461266
5010.072920540969,27971.67727969496
5010.098975519279,27913.871843584173
5010.125030633087,27869.266867050672
5010.151085882395,27732.439375222097
5010.177141267204,27548.139182031256
5010.2031967875155,27189.589566865634
5010.229252443328,26627.340986986095
5010.255308234644,26312.612000084275
5010.281364161464,25444.36963888238
5010.307420223788,24655.27968967519
5010.333476421617,24116.619244605357
5010.359532754951,23681.225971568612
5010.3855892237925,23646.973312988364
5010.4116458281405,23951.50607405427
5010.437702567997,24438.99921604459
5010.463759443362,24979.036921812145
5010.489816454236,25503.899603331956
5010.51587360062,26012.219577466993
5010.541930882514,26494.96738309969
5010.56798829992,26802.862010877434
5010.5940458528385,27193.129525632194
5010.62010354127,27473.5871522565
5010.646161365214,27572.926311952633
5010.672219324672,27721.273774788497
5010.698277419646,28001.476532653433
5010.724335650135,28093.08461443898
5010.7503940161405,27981.31367576605
5010.7764525176635,28364.700516162255
5010.802511154703,28364.198257844924
5010.828569927262,28154.63958996998
5010.85462883534,28158.70054664165
5010.880687878937,28103.74552247309
5010.906747058056,28064.564477415253
5010.932806372695,27816.06340454599
5010.958865822856,27849.129708667515
5010.98492540854,27742.913502437154
5011.0109851297475,27575.558726356492
5011.0370449864795,27182.341263280057
5011.063104978735,26690.75725772655
5011.089165106517,26509.858125646228
5011.115225369825,26318.8787953037
5011.14128576866,25887.34127701502
5011.167346303022,25370.7687065454
5011.193406972913,24987.492628076983
5011.219467778333,24600.086805252868
5011.2455287192815,23958.094584666163
5011.271589795761,23270.21897825106
5011.297651007772,22311.88369179243
5011.323712355315,21428.12079568693
5011.34977383839,20273.50492471784
5011.375835456999,18701.61492210763
5011.401897211142,17106.445171090527
5011.427959100819,15493.834999174222
5011.454021126031,13916.299105444392
5011.4800832867795,12961.459990964315
5011.506145583065,12178.869188420102
5011.532208014888,12017.917076005926
5011.558270582248,12305.69146112687
5011.584333285148,13086.586704463025
5011.610396123588,14274.717648767954
5011.636459097567,15762.487211650214
5011.662522207088,17197.521682255396
5011.68858545215,18554.027110232317
5011.714648832754,19483.730362576403
5011.740712348902,20268.895657370544
5011.766776000594,20710.99092987956
5011.79283978783,20828.12702675773
5011.818903710611,20708.177041355444
5011.844967768939,20706.458848458642
5011.871031962813,20813.760610582645
5011.897096292234,21018.432869803768
5011.923160757203,21673.82359615955
5011.949225357721,22373.650307482603
5011.975290093788,22811.310542735744
5012.001354965406,23099.42946689584
5012.027419972574,23362.801945101124
5012.053485115294,23729.632690818195
5012.079550393566,23693.139539892505
5012.105615807392,23708.644797168203
5012.13168135677,23938.21611338116
5012.157747041703,24207.53440261674
5012.183812862192,24684.138712113956
5012.209878818236,25249.535222875424
5012.235944909837,25638.82993587263
5012.262011136994,26086.489072912933
5012.28807749971,26354.73253523881
5012.3141439979845,26640.85797068904
5012.340210631818,26872.624514343763
5012.366277401212,27146.516380000718
5012.392344306166,27213.851927099833
5012.418411346682,27252.729752792242
5012.44447852276,27150.423226999043
5012.470545834401,27336.34626657222
5012.496613281605,27311.635378115872
5012.522680864374,27051.04783192975
5012.548748582707,26926.64147997943
5012.574816436606,26408.682463568235
5012.600884426071,25615.393044830416
5012.626952551104,24887.00406404003
5012.653020811705,24093.76445647706
5012.679089207873,23045.87112229297
5012.705157739611,22155.60172354336
5012.73122640692,21458.308954921577
5012.757295209798,20889.30297623564
5012.7833641482475,20789.413052839125
5012.80943322227,21096.688494263297
5012.835502431864,21566.037959378235
5012.861571777033,21741.890041958
5012.887641257775,21709.79893361086
5012.9137108740915,21536.218814918415
5012.939780625984,21241.700641473573
5012.965850513452,20367.42869463162
5012.991920536498,19399.933990823887
5013.017990695121,18177.70425151126
5013.044060989323,16913.781807162373
5013.070131419104,15690.101380363267
5013.096201984464,14808.390457042506
5013.122272685405,14376.202807419817
5013.148343521927,14492.495073226351
5013.17441449403,15096.352516666397
5013.200485601717,16259.87450555223
5013.226556844987,17397.924189503734
5013.2526282238405,18660.872657165386
5013.278699738279,19941.813091272605
5013.304771388303,21121.922416552345
5013.330843173913,21965.004942635383
5013.35691509511,22933.966230782356
5013.382987151894,23481.98079778102
5013.409059344267,23917.261870202343
5013.435131672228,24240.34522282678
5013.46120413578,24261.748609295533
5013.487276734921,23868.996312859203
5013.513349469653,23101.32949674768
5013.539422339977,22038.430529710848
5013.565495345894,20767.170115706558
5013.5915684874035,19369.348595145406
5013.617641764507,18085.54286279098
5013.643715177206,17179.849686166133
5013.6697887254995,16603.030547864957
5013.695862409389,16426.33229779411
5013.721936228875,16749.990378421437
5013.748010183958,17529.373436463673
5013.77408427464,18678.696509926867
5013.800158500921,19925.177301400603
5013.826232862801,21285.231454375407
5013.852307360281,22394.108047011516
5013.8783819933615,23311.71357104589
5013.904456762045,24203.710264524998
5013.930531666329,24832.83068626215
5013.956606706218,25372.154312006674
5013.982681881709,25658.156624686446
5014.008757192805,25771.874778752077
5014.034832639507,25930.078212649514
5014.060908221814,25833.322081882576
5014.086983939728,25734.286961106787
5014.113059793249,25341.054901500225
5014.139135782378,24941.279786814448
5014.165211907116,24341.429769682953
5014.1912881674625,23387.70647345473
