wave,flux
4450.003811362098,3786.6393504928838
4450.026953690486,4214.813815244676
4450.050096139227,4828.949361674936
4450.073238708321,5406.098660278646
4450.096381397769,5928.423960181851
4450.119524207569,6412.602541898481
4450.142667137726,6686.141456382913
4450.165810188237,7086.132835564161
4450.188953359103,7375.2156183413945
4450.212096650326,7659.456201821986
4450.2352400619075,7942.857111756339
4450.258383593846,8303.512315975426
4450.281527246142,8434.822134959584
4450.304671018797,8593.202574628753
4450.327814911813,8722.088764131977
4450.350958925188,8964.68523364237
4450.374103058924,9365.66706332231
4450.3972473130225,9674.97656161123
4450.420391687483,10008.13925938466
4450.443536182305,10259.838124727827
4450.466680797492,10471.376762853952
4450.489825533042,10680.766021329124
4450.512970388957,10826.67661564094
4450.536115365237,11002.393027091615
4450.559260461882,11111.454819818351
4450.582405678895,11132.942401357686
4450.605551016274,11150.625576176722
4450.628696474022,11162.845525726116
4450.651842052138,11086.910057671861
4450.674987750623,11095.140719590217
4450.698133569476,11289.827837201594
4450.721279508702,11054.859929446966
4450.744425568297,10890.009528102575
4450.767571748264,10794.551606421957
4450.790718048604,10548.387806170818
4450.813864469315,10471.437204410175
4450.837011010401,10159.133943009063
4450.86015767186,9560.409997558832
4450.883304453694,9250.366365839329
4450.906451355903,8799.236643175846
4450.929598378489,8097.845813259688
4450.95274552145,7369.056629940859
4450.975892784789,6958.301246959879
4450.999040168505,6570.363553160347
4451.022187672601,6532.721678546732
4451.045335297074,6756.088371574082
4451.068483041929,6988.353201280832
4451.091630907163,7383.287577136482
4451.114778892777,7761.806761350889
4451.137926998774,8330.466065215764
4451.161075225153,8840.946783582023
4451.184223571914,9180.110849779778
4451.207372039059,9538.072696204292
4451.230520626587,9903.631473497735
4451.253669334501,10192.824361439452
4451.2768181628,10451.160462418995
4451.299967111485,10502.306369650085
4451.323116180556,10460.429095418063
4451.346265370014,10505.173476705104
4451.369414679861,10382.080843914659
4451.392564110095,10283.211615905517
4451.415713660719,10230.065884983473
4451.438863331732,10210.72097089558
4451.462013123136,10318.642545685785
4451.48516303493,10265.318869541488
4451.508313067117,10249.666883056723
4451.531463219695,10366.678159476101
4451.554613492666,10479.285638775069
4451.577763886031,10541.10905614251
4451.60091439979,10723.741662333063
4451.624065033943,10814.275549859782
4451.647215788492,10853.722855846234
4451.670366663436,10968.618734151918
4451.693517658777,11180.38600481688
4451.716668774516,11231.425436478825
4451.739820010652,11135.714897215505
4451.762971367186,11106.367881242153
4451.78612284412,11231.947034306633
4451.8092744414525,11320.869146252398
4451.832426159187,11173.064304215408
4451.855577997321,11152.23599301395
4451.878729955857,11159.998316129093
4451.901882034796,11070.126210691718
4451.925034234137,11017.861700257952
4451.948186553881,10879.979780963917
4451.97133899403,10718.742657214458
4451.994491554583,10678.774052504721
4452.017644235542,10456.931523159104
4452.040797036907,10257.501671975704
4452.063949958678,10178.364586420654
4452.087103000857,10023.33201678146
4452.1102561634425,9825.62180770428
4452.133409446437,9730.448276565336
4452.156562849841,9692.852142714743
4452.179716373655,9721.447118832319
4452.202870017878,9744.263393467196
4452.226023782513,9806.874809198294
4452.24917766756,10006.52561989485
4452.272331673018,10127.81204140589
4452.29548579889,10184.658133880832
4452.318640045174,10176.964721099857
4452.341794411874,10201.01260633109
4452.364948898987,10117.207924927665
4452.388103506516,9908.805940128757
4452.4112582344615,9983.305986022886
4452.434413082823,9950.70594063234
4452.457568051602,9750.027312308872
4452.480723140799,9822.362443519218
4452.503878350413,9970.84465418126
4452.527033680448,10043.492142993417
4452.550189130902,10070.968085798486
4452.5733447017765,10080.253934377568
4452.596500393071,10042.794300147569
4452.619656204789,9966.471640696573
4452.642812136928,9753.080881175227
4452.66596818949,9563.485166306962
4452.689124362475,9395.699848804461
4452.7122806558855,9148.498997779407
4452.735437069719,8913.771325539998
4452.7585936039795,8785.537070838214
4452.781750258665,8872.514705805923
4452.804907033777,9133.936083899476
4452.828063929317,9187.045672238124
4452.851220945285,9595.642138985522
4452.87437808168,9727.819999657024
4452.897535338506,9869.422875064818
4452.92069271576,10191.512015398028
4452.943850213445,10431.161159428946
4452.967007831562,10566.759749653696
4452.99016557011,10655.171803200574
4453.01332342909,10579.60624560905
4453.036481408502,10721.82147385364
4453.059639508349,10495.664422528367
4453.08279772863,10481.98783949283
4453.105956069345,10441.670609386467
4453.129114530496,10406.176771193504
4453.152273112083,10430.220485169226
4453.175431814107,10500.909675130659
4453.198590636567,10324.037782534744
4453.221749579466,10443.267595415993
4453.244908642802,10656.665773129795
4453.268067826579,10698.81819370412
4453.291227130795,10759.45252075462
4453.314386555451,10862.391179595705
4453.337546100549,10936.482176072044
4453.360705766087,11042.566162266672
4453.3838655520685,11086.269936410028
4453.407025458493,11076.82278884568
4453.430185485361,11164.502785203624
4453.453345632673,11197.733159934258
4453.476505900429,11198.454534054848
4453.4996662886315,11188.59627896551
4453.52282679728,11102.532802643458
4453.545987426375,10965.928509760208
4453.569148175917,10886.211631402892
4453.592309045907,10856.373259024153
4453.615470036346,10663.560937902203
4453.638631147233,10444.926483102245
4453.661792378571,9967.049965903474
4453.684953730359,9561.650222748682
4453.708115202598,9116.713026630205
4453.731276795288,8580.539754692803
4453.754438508431,7891.0757810362375
4453.777600342027,7271.197253628882
4453.800762296077,6830.751784197042
4453.82392437058,6618.452912088993
4453.847086565538,6317.127508009823
4453.870248880952,6483.597313238306
4453.8934113168225,6791.155970995322
4453.916573873149,7004.172349549564
4453.939736549933,7202.3737337347175
4453.962899347174,7216.344360140903
4453.986062264875,7235.155261610343
4454.009225303034,7257.638665582913
4454.032388461654,6880.269026842984
4454.055551740734,6475.2559834873155
4454.078715140275,6180.096250967073
4454.101878660277,5619.177550343682
4454.125042300742,5252.717112789115
4454.14820606167,4670.534707971119
4454.171369943061,4329.992826295706
4454.194533944917,3962.209561831124
4454.2176980672375,3802.5299755231695
4454.240862310024,3843.3496627725494
4454.264026673275,4010.4296794257803
4454.287191156994,4257.207861943146
4454.31035576118,4718.652146712343
4454.333520485834,5001.187441892813
4454.356685330957,5306.680269031154
4454.379850296548,5661.308400216245
4454.40301538261,5733.088567277474
4454.426180589142,5961.1784628697205
4454.449345916145,6235.873859950363
4454.4725113636205,6459.44421806887
4454.495676931568,6769.005011750217
4454.5188426199875,7190.458411728265
4454.542008428882,7566.422354883429
4454.565174358249,7858.402873171767
4454.588340408092,8089.612109873683
4454.611506578411,8127.525070303449
4454.634672869205,7987.565398782391
4454.657839280476,7761.345832768283
4454.681005812225,7562.810515031683
4454.704172464451,7458.9948776717365
4454.727339237156,7302.115481621891
4454.750506130341,7250.639261767264
4454.773673144005,7496.510941056869
4454.79684027815,7984.943408602487
4454.820007532776,8336.47264925165
4454.843174907884,8593.709555612191
4454.866342403473,8994.42633132914
4454.889510019546,9409.5590265529
4454.912677756102,9680.23517251269
4454.935845613144,9809.143785715132
4454.959013590669,10032.493235945916
4454.982181688681,10218.05040084244
4455.005349907178,10278.70137389798
4455.028518246162,10229.37266421251
4455.051686705633,10097.98216851932
4455.074855285593,9982.852722804755
4455.098023986041,9759.9224609886
4455.121192806979,9512.61267035288
4455.144361748406,9254.617535356314
4455.167530810323,8755.146918225628
4455.190699992732,8162.645375140462
4455.213869295633,7593.1471997095705
4455.237038719026,6929.426454623977
4455.260208262912,6412.4456867768
4455.283377927292,5906.660426624981
4455.306547712166,5541.6447152546425
4455.329717617535,5435.535118494308
4455.352887643399,5498.400602435147
4455.37605778976,5711.9284242571375
4455.399228056617,6244.769175587831
4455.422398443972,6859.789595355977
4455.445568951825,7429.013871174132
4455.468739580177,7850.64987229546
4455.491910329028,8400.832827983522
4455.515081198378,8826.930319780959
4455.538252188229,9217.180848797112
4455.561423298582,9544.51277647901
4455.584594529436,9745.968818853029
4455.607765880793,9897.050240484363
4455.630937352652,9973.07991529359
4455.654108945016,10031.623979093632
4455.677280657883,10088.388268640036
4455.700452491255,9864.105991560033
4455.723624445134,9442.590034765055
4455.746796519518,9150.532792552864
4455.7699687144095,9000.421863433183
4455.793141029808,8853.72113994316
4455.816313465714,8866.867142742967
4455.83948602213,8828.356141937085
4455.862658699055,8888.029980799061
4455.885831496489,8953.813309136587
4455.909004414434,8808.040349071533
4455.932177452891,8722.61230402383
4455.955350611858,8620.68342444009
4455.978523891339,8466.868113045779
4456.001697291333,8127.947496530543
4456.024870811841,7774.2592146837005
4456.048044452862,7507.391593508944
4456.071218214399,7422.476990175269
4456.094392096451,7360.882732649517
4456.117566099019,7608.243333193604
4456.140740222105,7923.633037432624
4456.163914465707,8143.397869854707
4456.187088829828,8534.746160412233
4456.210263314468,8897.18428650305
4456.233437919626,9193.389714592866
4456.256612645306,9488.410637188294
4456.279787491505,9645.46087209949
4456.302962458226,9846.128258622122
4456.326137545469,10080.431582915266
4456.349312753233,10223.946554846993
4456.372488081522,10278.877138335632
4456.395663530333,10172.272469994754
4456.41883909967,10135.085766209671
4456.442014789531,10065.450914266714
4456.465190599917,10149.47766878033
4456.488366530831,10114.968859701417
4456.5115425822705,10076.852894752243
4456.5347187542375,10177.425421508007
4456.557895046733,10234.43552299048
4456.581071459757,10246.042328832898
4456.604247993311,10429.368420061153
4456.627424647395,10458.369422210033
4456.650601422009,10401.722619737848
4456.673778317154,10361.27919295414
4456.696955332832,10191.380375172874
4456.720132469041,9895.546165282869
4456.7433097257845,9472.193100856317
4456.766487103061,9194.161929223515
4456.789664600872,8762.594401318062
4456.8128422192185,8150.781367306007
4456.8360199581,7649.330255108681
4456.859197817518,7378.335740471101
4456.882375797473,7125.915245328104
4456.905553897966,6900.877230578859
4456.928732118997,6884.714215567919
4456.951910460566,7048.724945175085
4456.975088922674,7226.702343062984
4456.998267505323,7565.155088623874
4457.021446208513,7956.941773264717
4457.044625032244,8313.507545574554
4457.067803976516,8838.288124302722
4457.090983041332,9218.02445550386
4457.1141622266905,9521.656553610042
4457.1373415325925,9892.356872823173
4457.160520959039,10058.632126574397
4457.183700506031,10227.982499077945
4457.206880173568,10385.858960049436
4457.230059961651,10411.18710656044
4457.2532398702815,10423.95686291654
4457.27641989946,10609.08561224842
4457.299600049186,10697.139034634678
4457.322780319461,10502.23446451803
4457.345960710286,10437.164983254881
4457.36914122166,10339.148598380612
4457.392321853586,10026.986611735774
4457.415502606062,9797.822798030964
4457.43868347909,9436.377420072524
4457.461864472672,8916.791057870398
4457.485045586805,8555.545461987105
4457.508226821494,8237.134663210867
4457.5314081767365,8151.3398978793675
4457.554589652534,8004.280758717773
4457.577771248887,7880.677987671395
4457.600952965797,7849.1332960625905
4457.624134803263,7772.929697055119
4457.647316761288,7809.658849230222
4457.67049883987,7665.726169179101
4457.693681039011,7662.672336496222
4457.716863358712,7930.0172504776965
4457.7400457989725,8293.582538041554
4457.763228359793,8744.154722609932
4457.7864110411765,8998.675536256915
4457.809593843121,9082.155012138375
4457.832776765628,9295.042978884989
4457.855959808699,9413.187779890737
4457.879142972333,9476.910553961594
4457.902326256532,9464.935669855762
4457.925509661296,9259.098742307522
4457.948693186626,9195.928028276569
4457.971876832522,9235.444184959048
4457.995060598985,9329.255376098876
4458.018244486016,9480.607664617366
4458.041428493615,9655.777340179371
4458.0646126217825,9957.284912092342
4458.08779687052,10109.645123421391
4458.110981239827,10278.659947886332
4458.134165729705,10384.510148035732
4458.157350340155,10381.294188863712
4458.180535071177,10443.825221998213
4458.203719922771,10630.380847613942
4458.226904894938,10465.26140244511
4458.2500899876795,10343.182622141338
4458.273275200995,10159.017461357387
4458.296460534886,9985.006009112145
4458.3196459893525,9571.900442496395
4458.342831564396,9135.379243060532
4458.366017260016,8662.466737425826
4458.389203076214,8014.8558471572405
4458.4123890129895,7299.017645742536
4458.435575070344,6563.060488204651
4458.458761248279,5767.573159943405
4458.481947546794,5214.274021038159
4458.505133965889,4705.232556856661
4458.528320505566,4307.899780194074
4458.551507165825,4099.997862092931
4458.574693946666,4243.001936306685
4458.597880848091,4455.6754678436955
4458.6210678701,4752.674261957881
4458.644255012693,5218.427515116084
4458.6674422758715,5530.825749758104
4458.690629659636,5921.0521641556825
4458.713817163986,6272.328202394946
4458.737004788924,6475.670983954377
4458.76019253445,6724.955888611186
4458.783380400563,7015.319056354529
4458.8065683872655,7268.49510277867
4458.829756494558,7728.375522984542
4458.85294472244,8084.431661913636
4458.876133070914,8582.082319453772
4458.899321539979,8986.31070262938
4458.922510129635,9350.978921826176
4458.945698839884,9814.338166974338
4458.968887670727,10031.487618514167
4458.992076622164,10153.216042003578
4459.015265694195,10364.643114355138
4459.0384548868215,10485.891206849858
4459.061644200044,10595.776766059633
4459.084833633862,10555.366307081224
4459.108023188278,10471.402419108294
4459.131212863292,10342.125321810301
4459.154402658904,10369.840019780835
4459.177592575114,10215.316352503796
4459.200782611925,10143.007892506885
4459.223972769336,10337.459592857982
4459.247163047347,10414.424741470639
4459.27035344596,10546.639425676443
4459.293543965176,10615.860168032692
4459.316734604993,10586.894762980308
4459.339925365414,10538.41775029974
4459.363116246439,10665.197612260095
4459.386307248069,10880.01083836391
4459.409498370304,10770.187676658526
4459.432689613145,10668.845653863824
4459.455880976592,10482.072809213174
4459.479072460647,10388.657957100913
4459.502264065309,10148.14390528911
4459.52545579058,9894.830993718177
4459.5486476364595,9395.901105400753
4459.571839602949,8879.716169435347
4459.595031690048,8347.125324861274
4459.618223897759,7851.051785715534
4459.641416226081,7480.945383247301
4459.664608675014,7313.8671167652155
4459.687801244561,7442.320770995373
4459.710993934721,7511.99529756223
4459.734186745496,7721.487362482306
4459.757379676885,8025.767502610796
4459.780572728889,8273.070414644173
4459.803765901509,8728.177069258803
4459.8269591947455,9069.728958499574
4459.850152608599,9348.43453718815
4459.87334614307,9729.333212908254
4459.89653979816,10038.890344827583
4459.91973357387,10327.613553229292
4459.942927470198,10470.01396135048
4459.966121487147,10607.393909291222
4459.989315624717,10872.310882497446
4460.0125098829085,10961.288936687884
4460.035704261722,10986.732483485386
4460.058898761158,11014.032995021194
4460.082093381218,11141.822947765948
4460.105288121902,11138.263293686998
4460.12848298321,11133.183797687325
4460.151677965145,11038.448529144673
4460.1748730677045,10938.706126921705
4460.198068290891,11050.998439934214
4460.221263634704,10990.603732946121
4460.244459099145,10853.914834293057
4460.267654684215,10861.74110296038
4460.290850389914,10845.704564359005
4460.314046216243,10784.811943532206
4460.337242163202,10699.702092414627
4460.360438230791,10418.754993345292
4460.383634419013,10251.40880199329
4460.406830727867,10051.43204483701
4460.430027157354,9734.622679473576
4460.453223707474,9336.987365591807
4460.476420378228,8784.208462297744
4460.499617169617,8347.876431679579
4460.522814081641,7921.657350676135
4460.5460111143,7469.6365968049395
4460.569208267598,7008.2777043227425
4460.592405541532,6675.35690783795
4460.615602936104,6371.915370852042
4460.638800451314,6059.095000773397
4460.661998087163,5965.768824248553
4460.685195843652,6077.183166847492
4460.708393720782,6110.777307308509
4460.731591718552,6206.422383147172
4460.754789836965,6212.027818779701
4460.777988076019,5964.581677849209
4460.801186435716,5793.331927022822
4460.824384916057,5609.06303389612
4460.847583517042,5425.193607331718
4460.870782238671,5243.295743813971
4460.893981080947,5126.858688836823
4460.917180043868,5258.645725449242
4460.940379127435,5300.713534641718
4460.963578331651,5290.394959094688
4460.986777656513,5063.259464105445
4461.009977102025,4833.107587716686
4461.033176668186,4551.608600528986
4461.056376354995,4283.379168270594
4461.079576162457,4243.554956891547
4461.102776090568,4234.181031019125
4461.125976139332,4373.555941070089
4461.149176308748,4789.255496301398
4461.172376598816,5091.103580420074
4461.195577009538,5700.479288955767
4461.218777540915,6106.535323344062
4461.241978192946,6703.006906237055
4461.265178965633,7109.103814635316
4461.2883798589755,7263.198471549564
4461.311580872974,7280.356932855561
4461.3347820076315,7250.741654502946
4461.357983262946,6934.960438315593
4461.381184638919,6696.888410166969
4461.404386135551,6441.286087999623
4461.4275877528435,6377.814136068043
4461.4507894907965,6366.657748560818
4461.4739913494095,6488.63021929268
4461.497193328685,6741.962299834976
4461.520395428623,7236.006772056098
4461.543597649224,7582.968705411659
4461.566799990488,8126.017341886189
4461.590002452416,8380.75941800215
4461.61320503501,8884.38873341887
4461.636407738269,9011.776719999552
4461.659610562193,9280.437638564363
4461.682813506784,9384.369463989024
4461.706016572044,9508.531815692364
4461.729219757971,9627.009904424758
4461.752423064566,9501.950637919203
4461.775626491831,9420.009271941888
4461.798830039766,9018.283729785966
4461.82203370837,8897.205197180065
4461.845237497647,8622.650481224062
4461.868441407595,8331.387752950217
4461.891645438215,8185.866560102651
4461.914849589509,8350.392286516862
4461.938053861475,8502.05442910443
4461.961258254117,8754.497253820993
4461.984462767433,9024.216834349738
4462.007667401424,9384.205297445487
4462.030872156092,9604.210412380326
4462.0540770314365,9833.939654489686
4462.077282027459,10142.184453369395
4462.100487144158,10198.469979111305
4462.123692381537,10236.338766130311
4462.146897739594,10403.811232011165
4462.170103218332,10640.148235108301
4462.19330881775,10614.557963335834
4462.21651453785,10413.371216850572
4462.239720378631,10410.843562606615
4462.262926340095,10424.024617744231
4462.286132422241,10231.669161449792
4462.309338625071,10054.283125924343
4462.3325449485865,9858.413408359535
4462.355751392785,9502.30595524744
4462.3789579576705,9152.077363864611
4462.402164643242,9021.30152157437
4462.4253714495,8915.227934475599
4462.448578376446,8787.27769950128
4462.471785424079,8910.46415134118
4462.494992592401,9008.22337053524
4462.518199881412,9120.220338820822
4462.541407291114,9343.571123411926
4462.564614821506,9543.885766971607
4462.587822472589,9650.599425900997
4462.611030244365,9846.305009277508
4462.634238136832,10062.986723962016
4462.657446149992,10175.003176021573
4462.680654283847,10044.00792894121
4462.703862538396,10038.78556106238
4462.727070913639,10024.192446939574
4462.750279409578,9858.875474747843
