wave,flux
4450.003811362098,5006.523778839573
4450.026953690486,4656.773072259643
4450.050096139227,4273.858660274512
4450.073238708321,3920.821872419535
4450.096381397769,3567.08090047494
4450.119524207569,3204.977787488284
4450.142667137726,2959.7348718474345
4450.165810188237,2675.0345303191248
4450.188953359103,2462.88247405058
4450.212096650326,2224.375778516172
4450.2352400619075,2033.2571372956709
4450.258383593846,1982.2481741244342
4450.281527246142,1980.7805231112054
4450.304671018797,1937.8699122239832
4450.327814911813,2065.8861890060643
4450.350958925188,2283.547732476739
4450.374103058924,2421.9056650416615
4450.3972473130225,2721.71817382716
4450.420391687483,2937.1659000348027
4450.443536182305,3173.014498335889
4450.466680797492,3508.414523165681
4450.489825533042,3745.8205890589516
4450.512970388957,3947.3999637242237
4450.536115365237,4199.973324601914
4450.559260461882,4437.777582247554
4450.582405678895,4650.320948293606
4450.605551016274,4789.479561881077
4450.628696474022,4924.163525183649
4450.651842052138,5115.707063428601
4450.674987750623,5298.678099740551
4450.698133569476,5481.508728716688
4450.721279508702,5706.109371404372
4450.744425568297,5883.123138148468
4450.767571748264,6019.60525273784
4450.790718048604,6253.862202298221
4450.813864469315,6450.692196347696
4450.837011010401,6619.45350700537
4450.86015767186,6743.148486047797
4450.883304453694,6883.45410292447
4450.906451355903,6951.108566777968
4450.929598378489,7077.320297584109
4450.95274552145,7029.426294871671
4450.975892784789,7086.281721559867
4450.999040168505,6883.067083884993
4451.022187672601,6844.784838289188
4451.045335297074,6841.421190626035
4451.068483041929,6770.089390812592
4451.091630907163,6471.8235872641235
4451.114778892777,6384.058307425958
4451.137926998774,6150.998789080281
4451.161075225153,6033.793709344016
4451.184223571914,5785.906047122217
4451.207372039059,5493.877885377124
4451.230520626587,5187.199576531755
4451.253669334501,4902.236795493204
4451.2768181628,4575.411317876121
4451.299967111485,4300.997865680134
4451.323116180556,4105.310867576615
4451.346265370014,3926.0674938521915
4451.369414679861,3953.207092786683
4451.392564110095,3953.393797984268
4451.415713660719,4158.42498878595
4451.438863331732,4448.843781251919
4451.462013123136,4619.687094961721
4451.48516303493,4921.125811306275
4451.508313067117,5224.0459185001355
4451.531463219695,5556.0968386106615
4451.554613492666,5825.7823393944245
4451.577763886031,5997.969727089432
4451.60091439979,6196.81271284491
4451.624065033943,6233.00231183542
4451.647215788492,6298.513999425799
4451.670366663436,6305.775256828105
4451.693517658777,6351.180295829441
4451.716668774516,6314.68811912835
4451.739820010652,6329.931724089743
4451.762971367186,6228.1827265271
4451.78612284412,6242.712523050016
4451.8092744414525,6266.69865080833
4451.832426159187,6193.027164502882
4451.855577997321,6427.278266990102
4451.878729955857,6271.828724973696
4451.901882034796,6534.548549006096
4451.925034234137,6533.441403953446
4451.948186553881,6758.548204398094
4451.97133899403,6780.261299290214
4451.994491554583,6973.171721991416
4452.017644235542,7030.1469872000725
4452.040797036907,7046.094752585208
4452.063949958678,7066.191812211674
4452.087103000857,7044.688695711247
4452.1102561634425,7025.97846153917
4452.133409446437,7031.765696112815
4452.156562849841,7040.927724076928
4452.179716373655,7072.402961946635
4452.202870017878,7055.2406372899995
4452.226023782513,6907.575895459377
4452.24917766756,6853.333131635635
4452.272331673018,6818.266661932441
4452.29548579889,6662.30096449633
4452.318640045174,6477.528215291042
4452.341794411874,6376.976583009714
4452.364948898987,6311.0613969219785
4452.388103506516,6188.336891902912
4452.4112582344615,6195.996080904992
4452.434413082823,6045.139074991008
4452.457568051602,5870.279148058177
4452.480723140799,5928.818045166508
4452.503878350413,5938.524165651991
4452.527033680448,5883.071091422267
4452.550189130902,5896.592469981441
4452.5733447017765,5909.503988657833
4452.596500393071,5967.4018379840645
4452.619656204789,6097.657211940758
4452.642812136928,6031.040418880674
4452.66596818949,6149.998697920692
4452.689124362475,6118.805866332085
4452.7122806558855,5932.082058090709
4452.735437069719,5937.934200579395
4452.7585936039795,5964.192339020149
4452.781750258665,5876.021609008985
4452.804907033777,5841.589973733935
4452.828063929317,5858.429142767654
4452.851220945285,5896.315688496096
4452.87437808168,5995.797098996236
4452.897535338506,5851.5823399463225
4452.92069271576,5910.149756476317
4452.943850213445,5958.850264172032
4452.967007831562,5879.766817252891
4452.99016557011,5764.351790532858
4453.01332342909,5740.524824366404
4453.036481408502,5541.801894371631
4453.059639508349,5338.906366332142
4453.08279772863,5321.531651038612
4453.105956069345,5326.516077069489
4453.129114530496,5322.822417008149
4453.152273112083,5430.922539765963
4453.175431814107,5642.697901668538
4453.198590636567,5862.665625928871
4453.221749579466,5945.573202634501
4453.244908642802,6119.009900121213
4453.268067826579,6298.519745192586
4453.291227130795,6340.159097962682
4453.314386555451,6462.779063060608
4453.337546100549,6530.399197844948
4453.360705766087,6491.3799938669135
4453.3838655520685,6501.474572863097
4453.407025458493,6519.641222156683
4453.430185485361,6415.278972382252
4453.453345632673,6351.890006844905
4453.476505900429,6239.700027087644
4453.4996662886315,6347.628187878721
4453.52282679728,6407.843138003412
4453.545987426375,6381.307972401035
4453.569148175917,6505.006361015534
4453.592309045907,6606.875840141939
4453.615470036346,6657.265410963479
4453.638631147233,6809.228702096551
4453.661792378571,6917.583857819397
4453.684953730359,6899.7382998017
4453.708115202598,6919.564484712365
4453.731276795288,6939.9952742125015
4453.754438508431,6985.485363837897
4453.777600342027,6988.963291593523
4453.800762296077,6922.72383817062
4453.82392437058,6829.917085912636
4453.847086565538,6755.688370412496
4453.870248880952,6662.969709656268
4453.8934113168225,6552.601025779451
4453.916573873149,6357.771103098605
4453.939736549933,6181.053082588512
4453.962899347174,5954.506030065096
4453.986062264875,5736.472584282666
4454.009225303034,5361.254647220409
4454.032388461654,5165.208192579461
4454.055551740734,4963.349075327812
4454.078715140275,4479.2724232880255
4454.101878660277,4132.923839488675
4454.125042300742,3895.5391783623827
4454.14820606167,3681.967143172258
4454.171369943061,3462.0604241460787
4454.194533944917,3391.2586891600263
4454.2176980672375,3400.3510921851007
4454.240862310024,3432.6734949723577
4454.264026673275,3436.040987915182
4454.287191156994,3523.077951089175
4454.31035576118,3585.0058683323978
4454.333520485834,3606.320669295284
4454.356685330957,3591.824422252326
4454.379850296548,3318.1493596958735
4454.40301538261,3206.8804668220146
4454.426180589142,3062.3170593577656
4454.449345916145,2816.314915952074
4454.4725113636205,2457.807953392032
4454.495676931568,2395.0169979519314
4454.5188426199875,2226.4677313475527
4454.542008428882,2080.0928889566358
4454.565174358249,2006.4029217684767
4454.588340408092,2002.8776489761756
4454.611506578411,2044.1346250288275
4454.634672869205,2140.599999205113
4454.657839280476,2315.8224340974357
4454.681005812225,2598.6278608113885
4454.704172464451,2790.4419472659843
4454.727339237156,2934.2253570074163
4454.750506130341,3082.99839419223
4454.773673144005,3255.5827373099355
4454.79684027815,3394.241976414222
4454.820007532776,3609.8870792203334
4454.843174907884,3814.988549166791
4454.866342403473,4046.8967191819747
4454.889510019546,4286.078520029291
4454.912677756102,4442.962994931343
4454.935845613144,4548.786917769431
4454.959013590669,4665.878275814973
4454.982181688681,4681.645227474053
4455.005349907178,4603.25818549032
4455.028518246162,4564.936903061727
4455.051686705633,4495.373979753502
4455.074855285593,4412.379206581066
4455.098023986041,4516.92586420037
4455.121192806979,4668.981961190844
4455.144361748406,4853.662971314143
4455.167530810323,5073.384713147611
4455.190699992732,5302.474503911587
4455.213869295633,5556.206526418204
4455.237038719026,5713.370490945566
4455.260208262912,5942.196680965992
4455.283377927292,6112.089131179006
4455.306547712166,6066.316823054385
4455.329717617535,6021.762866252799
4455.352887643399,6090.606654271592
4455.37605778976,6017.370621052681
4455.399228056617,5798.801590771511
4455.422398443972,5577.877485601178
4455.445568951825,5417.980825444048
4455.468739580177,5199.520346285107
4455.491910329028,4864.751413514082
4455.515081198378,4578.075860463103
4455.538252188229,4323.601775475637
4455.561423298582,4051.3059001686725
4455.584594529436,3673.1631887972744
4455.607765880793,3394.462921726612
4455.630937352652,3200.7984300009125
4455.654108945016,3042.059992802435
4455.677280657883,3084.5365588053182
4455.700452491255,3145.3861028834094
4455.723624445134,3311.115536133101
4455.746796519518,3546.350546571205
4455.7699687144095,3832.661475471033
4455.793141029808,4184.031524904905
4455.816313465714,4539.4235504632
4455.83948602213,4939.285580708472
4455.862658699055,5264.07823701341
4455.885831496489,5338.476889748397
4455.909004414434,5595.216074692413
4455.932177452891,5684.113727641708
4455.955350611858,5841.3243560987885
4455.978523891339,5920.438058834397
4456.001697291333,5842.226617960026
4456.024870811841,5699.104267887953
4456.048044452862,5602.858034939565
4456.071218214399,5451.210268389323
4456.094392096451,5233.608210846117
4456.117566099019,5106.597510082096
4456.140740222105,4926.9784598601445
4456.163914465707,4922.373533981468
4456.187088829828,4953.242661360548
4456.210263314468,4822.8653607293845
4456.233437919626,4945.104518937836
4456.256612645306,5126.355574042914
4456.279787491505,4977.109685613392
4456.302962458226,4890.593080334752
4456.326137545469,4958.213444327337
4456.349312753233,4785.943397087352
4456.372488081522,4638.941087419133
4456.395663530333,4541.684740639499
4456.41883909967,4521.608649323311
4456.442014789531,4581.608130624567
4456.465190599917,4754.7814606072325
4456.488366530831,4919.518190628594
4456.5115425822705,5133.3684017135865
4456.5347187542375,5497.772746705667
4456.557895046733,5669.8426393517875
4456.581071459757,5935.2622336498725
4456.604247993311,6034.168164625548
4456.627424647395,6141.468642588927
4456.650601422009,6222.903134162456
4456.673778317154,6357.134614585504
4456.696955332832,6375.544048261594
4456.720132469041,6337.4654281535595
4456.7433097257845,6260.494859913443
4456.766487103061,6268.549326498707
4456.789664600872,6298.871265993933
4456.8128422192185,6230.890200419382
4456.8360199581,6184.831247263143
4456.859197817518,6183.33880374059
4456.882375797473,6182.623009391329
4456.905553897966,6146.408515972578
4456.928732118997,6289.789276066597
4456.951910460566,6310.666925904289
4456.975088922674,6197.356528221568
4456.998267505323,6108.784410294655
4457.021446208513,6016.238260184782
4457.044625032244,5887.177320000928
4457.067803976516,5699.044658119801
4457.090983041332,5416.499479695687
4457.1141622266905,5227.6962218901745
4457.1373415325925,4895.209056775677
4457.160520959039,4620.76715236476
4457.183700506031,4467.774402630806
4457.206880173568,4267.716272574428
4457.230059961651,4135.36237782707
4457.2532398702815,4022.5843921704873
4457.27641989946,4002.9374720609253
4457.299600049186,4159.5028617347925
4457.322780319461,4346.106372391569
4457.345960710286,4583.313958305409
4457.36914122166,4867.81309166787
4457.392321853586,5129.887843549481
4457.415502606062,5449.304853345065
4457.43868347909,5685.905927460199
4457.461864472672,5810.442612208026
4457.485045586805,6033.680291832578
4457.508226821494,6222.146881654932
4457.5314081767365,6337.2592927331225
4457.554589652534,6408.560798197528
4457.577771248887,6391.566181369512
4457.600952965797,6383.417013982768
4457.624134803263,6430.243171176347
4457.647316761288,6292.283434004778
4457.67049883987,6105.039253154237
4457.693681039011,6084.59194779367
4457.716863358712,5927.68978284933
4457.7400457989725,5722.479761879818
4457.763228359793,5575.770979511586
4457.7864110411765,5259.6838328517015
4457.809593843121,5021.55912618879
4457.832776765628,4804.863478276256
4457.855959808699,4634.274621708785
4457.879142972333,4557.692252552732
4457.902326256532,4429.050294330806
4457.925509661296,4399.163604790598
4457.948693186626,4408.561682374054
4457.971876832522,4514.192281684152
4457.995060598985,4519.458895032569
4458.018244486016,4522.878055431428
4458.041428493615,4593.25022708478
4458.0646126217825,4721.385961127968
4458.08779687052,4934.088070822069
4458.110981239827,5083.785740824787
4458.134165729705,5269.570673324392
4458.157350340155,5371.274798366585
4458.180535071177,5449.442608117092
4458.203719922771,5586.6345705303975
4458.226904894938,5635.725344624543
4458.2500899876795,5655.0551236691645
4458.273275200995,5683.846176196088
4458.296460534886,5637.431460891234
4458.3196459893525,5583.982982965927
4458.342831564396,5662.386640437568
4458.366017260016,5902.548608447204
4458.389203076214,5981.7644865400825
4458.4123890129895,6063.031434608983
4458.435575070344,6186.445523959295
4458.458761248279,6200.331931287925
4458.481947546794,6298.12561299551
4458.505133965889,6419.729986841955
4458.528320505566,6337.11576199525
4458.551507165825,6214.384405838358
4458.574693946666,6142.889477415427
4458.597880848091,5903.601665898633
4458.6210678701,5718.727265874321
4458.644255012693,5504.46808386275
4458.6674422758715,5169.1234274072685
4458.690629659636,4848.511526175068
4458.713817163986,4465.289389994404
4458.737004788924,4112.998518066759
4458.76019253445,3738.0626857317197
4458.783380400563,3323.430513405886
4458.8065683872655,2982.122595930099
4458.829756494558,2728.8061745895
4458.85294472244,2508.5632840197063
4458.876133070914,2328.999878530513
4458.899321539979,2304.137178665981
4458.922510129635,2356.4368363495028
4458.945698839884,2404.8847178161236
4458.968887670727,2551.1931616775105
4458.992076622164,2754.802393323597
4459.015265694195,2986.3807088529084
4459.0384548868215,3168.8198932783707
4459.061644200044,3400.0639528087986
4459.084833633862,3595.9830535917786
4459.108023188278,3801.9566752074247
4459.131212863292,4090.5666446101777
4459.154402658904,4279.158085861925
4459.177592575114,4525.915543786883
4459.200782611925,4826.457465202518
4459.223972769336,5168.377942350393
4459.247163047347,5512.930870913246
4459.27035344596,5748.301477460231
4459.293543965176,5975.058877655234
4459.316734604993,6162.666663377875
4459.339925365414,6286.023848902318
4459.363116246439,6374.683462402619
4459.386307248069,6482.029131043861
4459.409498370304,6499.472589169389
4459.432689613145,6446.857095927182
4459.455880976592,6372.452079166563
4459.479072460647,6339.576717851134
4459.502264065309,6319.644853765767
4459.52545579058,6234.59312140462
4459.5486476364595,6178.282798785908
4459.571839602949,6333.539391126741
4459.595031690048,6374.763030128965
4459.618223897759,6476.0819512240305
4459.641416226081,6549.489087141381
4459.664608675014,6536.199421261262
4459.687801244561,6655.235942677456
4459.710993934721,6682.923212230412
4459.734186745496,6612.732476730631
4459.757379676885,6478.773432218727
4459.780572728889,6244.3486309819
4459.803765901509,6129.630549043357
4459.8269591947455,6095.822033894479
4459.850152608599,5808.010064141513
4459.87334614307,5588.024669793736
4459.89653979816,5385.091375385008
4459.91973357387,5155.407439474242
4459.942927470198,4770.940988143571
4459.966121487147,4516.671334641568
4459.989315624717,4405.6969915503905
4460.0125098829085,4230.909984748872
4460.035704261722,4164.567851472815
4460.058898761158,4274.189497581892
4460.082093381218,4497.330339437428
4460.105288121902,4690.117942080157
4460.12848298321,4937.5159244859
4460.151677965145,5209.470952300419
4460.1748730677045,5400.746443748678
4460.198068290891,5688.05433729168
4460.221263634704,5951.975960326378
4460.244459099145,6233.631121911482
4460.267654684215,6462.608310937713
4460.290850389914,6498.208550058104
4460.314046216243,6564.687939054127
4460.337242163202,6736.497911330545
4460.360438230791,6880.661558341714
4460.383634419013,6931.154871929859
4460.406830727867,6931.356062211409
4460.430027157354,6906.528390960603
4460.453223707474,7040.3304541869575
4460.476420378228,6972.956042091251
4460.499617169617,6945.743223794571
4460.522814081641,6882.827384997748
4460.5460111143,6835.721998652989
4460.569208267598,6834.773960807837
4460.592405541532,6835.058049062298
4460.615602936104,6736.966950943927
4460.638800451314,6562.029625898507
4460.661998087163,6426.441910437855
4460.685195843652,6373.681528373961
4460.708393720782,6178.4707373875535
4460.731591718552,5950.054200635047
4460.754789836965,5801.829112309833
4460.777988076019,5424.349148628924
4460.801186435716,5168.877284135465
4460.824384916057,4883.940152074094
4460.847583517042,4597.119800515783
4460.870782238671,4365.682707286545
4460.893981080947,4148.771514355569
4460.917180043868,3934.842097569367
4460.940379127435,3699.5916658903375
4460.963578331651,3624.744500052897
4460.986777656513,3497.8175001112795
4461.009977102025,3431.1774863359597
4461.033176668186,3435.842617439013
4461.056376354995,3498.149892901761
4461.079576162457,3451.8741776778356
4461.102776090568,3538.7663349891964
4461.125976139332,3437.6090015993514
4461.149176308748,3362.9094356508417
4461.172376598816,3309.006856956481
4461.195577009538,3220.4372492074835
4461.218777540915,3100.5048471057503
4461.241978192946,2990.233624075983
4461.265178965633,2887.331306881316
4461.2883798589755,2929.4474691634123
4461.311580872974,2913.1060921342646
4461.3347820076315,2819.417699998049
4461.357983262946,2726.7223992354857
4461.381184638919,2565.373029628988
4461.404386135551,2461.8812580941753
4461.4275877528435,2521.636602506686
4461.4507894907965,2491.0259313227007
4461.4739913494095,2594.672283044709
4461.497193328685,2675.6840569250066
4461.520395428623,2796.1671977225383
4461.543597649224,3066.7436833336287
4461.566799990488,3269.0603549968278
4461.590002452416,3452.685772485824
4461.61320503501,3633.039190624922
4461.636407738269,3688.3147707886023
4461.659610562193,3755.8101348299892
4461.682813506784,3701.9154258628355
4461.706016572044,3688.5189514013605
4461.729219757971,3652.4396950992905
4461.752423064566,3565.1281331402083
4461.775626491831,3578.383388943321
4461.798830039766,3640.7622751712506
4461.82203370837,3760.888469761902
4461.845237497647,3920.3420543452626
4461.868441407595,4190.842273800884
4461.891645438215,4456.741031200942
4461.914849589509,4677.3375290080085
4461.938053861475,4886.758196311485
4461.961258254117,5105.395112693567
4461.984462767433,5264.489407196654
4462.007667401424,5360.632713842407
4462.030872156092,5404.70232064019
4462.0540770314365,5460.653074340934
4462.077282027459,5398.899372110832
4462.100487144158,5328.502332198633
4462.123692381537,5272.940408855431
4462.146897739594,5190.760233951134
4462.170103218332,5069.035284244687
4462.19330881775,4939.057344138131
4462.21651453785,4831.023949623974
4462.239720378631,4813.827626732548
4462.262926340095,4897.246894357465
4462.286132422241,5030.957762964969
4462.309338625071,5272.184493931405
4462.3325449485865,5451.493737799969
4462.355751392785,5652.505520778568
4462.3789579576705,5831.298494494781
4462.402164643242,6022.399498817053
4462.4253714495,6133.545661800079
4462.448578376446,6304.163014239927
4462.471785424079,6316.897453327732
4462.494992592401,6276.945651718813
4462.518199881412,6370.726054595614
4462.541407291114,6349.686111361826
4462.564614821506,6292.4155478357025
4462.587822472589,6210.430566319628
4462.611030244365,6049.832649708982
4462.634238136832,6062.932754015332
4462.657446149992,5927.9788898509705
4462.680654283847,5844.426250350643
4462.703862538396,5662.764607136928
4462.727070913639,5461.160088384992
4462.750279409578,5388.51241936007
4462.773488026214,5246.933496731195
4462.796696763546,5123.447548623432
