freq,gls,usurper,pdc_unbiased,shape_periodogram,shift_periodogram
1.5,0.031605246424144244,0.026425121893395753,0.022003088454338578,0.0036959453380077762,0.021229635682671347
1.5000715171549266,0.028595336453250155,0.022561157817444537,0.01679692217781675,0.005366554891838614,0.015835471611440024
1.5001430343098532,0.024797888546036324,0.0198035798857887,0.011419584810450916,0.0071965482286511185,0.01024864625799862
1.5002145514647798,0.020789812632417533,0.020961641469099013,0.008796510756732951,0.009971305341295915,0.00724905389740807
1.5002860686197064,0.017345459787468324,0.025265349044656635,0.009479677332466734,0.012060016430634049,0.007620605016169093
1.500357585774633,0.015271945925960987,0.029177916338228135,0.011714688134418397,0.014808109548600085,0.009431675796085484
1.5004291029295596,0.015165201318802408,0.033550511973357885,0.01415548030345099,0.016995696827672664,0.01152829447425114
1.5005006200844861,0.01716595655706576,0.03701330592988756,0.016954003693511403,0.0185640913759431,0.014069355879082654
1.5005721372394127,0.02086274426290797,0.03978713454190786,0.019187221778694714,0.020581495153695874,0.015985937136587747
1.5006436543943393,0.02544081002802935,0.041749889469164594,0.02137618975240262,0.02140588705546711,0.01803249709280306
1.500715171549266,0.03000884122307953,0.0444514305499178,0.02421994995090846,0.020813250824657018,0.020933223016133897
1.5007866887041925,0.03391266896856934,0.04744306482450732,0.02666061786266369,0.021560775179619216,0.023240331951709232
1.500858205859119,0.0368882624749449,0.05060539815995442,0.029368029530911475,0.02248133593570663,0.025786552587531295
1.5009297230140457,0.0390355018056212,0.053062797204762945,0.03287087235373193,0.023844236714200426,0.029056323433059004
1.5010012401689723,0.04067274274449097,0.052467945305642076,0.0349635290275476,0.02409993701595444,0.031090913925106708
1.5010727573238989,0.04213722341942038,0.050028662379858785,0.036798409825528795,0.021654037950189893,0.03326173202351957
1.5011442744788255,0.043587855733941964,0.04744458704610663,0.03793328428010061,0.018843281637347706,0.0347923931115258
1.501215791633752,0.044880915226329254,0.0446704067110857,0.03824814004694497,0.016133590037419047,0.03549680633153228
1.5012873087886787,0.045592465454410994,0.04386188706950338,0.03896037083855539,0.015144081144444555,0.036345189450855526
1.5013588259436053,0.04519857422015515,0.04227827157916001,0.038338310339186395,0.015117225178021984,0.035733420879973894
1.5014303430985318,0.04331902735671992,0.0397912307047832,0.03525172960142179,0.015257390292229382,0.032658298684490654
1.5015018602534584,0.03989064242203222,0.03410473542162296,0.029380562295107576,0.016526296266282593,0.026663508437787996
1.501573377408385,0.035207008956161204,0.027000162334753115,0.02275340008029923,0.01886655043605049,0.019764709674986024
1.5016448945633116,0.029854908046904056,0.021382202674750436,0.01716592382272006,0.020885701158761465,0.013941235538168173
1.5017164117182382,0.02460404968418353,0.017159679320998603,0.01272729457488559,0.021172331354513164,0.009506783709051716
1.5017879288731648,0.020274028275387688,0.01366227484581362,0.010756457121333964,0.0200189251150718,0.007724403920738917
1.5018594460280914,0.01756978332877583,0.011932876994364456,0.009814843547662735,0.018069898514146476,0.007076560673207548
1.501930963183018,0.016887968997375314,0.012267502522013906,0.009773529530205848,0.01571213163283552,0.007379207568255875
1.5020024803379446,0.018154766828972088,0.011786247421326829,0.009545857603491862,0.012714895701250142,0.007590658831476744
1.5020739974928712,0.020807783027131654,0.011790279569841779,0.00997328939183271,0.00971369776514107,0.008450898906346312
1.5021455146477978,0.023992628107040868,0.01335051029122697,0.01144212206274167,0.007932914595821655,0.010163642792761019
1.5022170318027244,0.026898257150269028,0.01637128684570966,0.014028974316248104,0.008048314250345238,0.01270623615971541
1.502288548957651,0.029041972437567,0.020568275381612513,0.016679671046279716,0.009579369043177799,0.015105868272186096
1.5023600661125776,0.03036170293294545,0.024632295102058863,0.019990738498687276,0.010328377871124245,0.018272943163833363
1.5024315832675041,0.031115659296329378,0.025508781933159357,0.02077896981185265,0.011207922675440924,0.0189248627581917
1.5025031004224307,0.031680428730509906,0.023648365944529418,0.019519808615351825,0.011446286759069444,0.01764425332400358
1.5025746175773573,0.032340192227813126,0.02087728016030103,0.018649627815208736,0.009414552611351965,0.017079012493627154
1.502646134732284,0.033131945974426154,0.01852741501650264,0.017871043624403338,0.005919996013093959,0.016817567021949757
1.5027176518872105,0.033797027787609374,0.018322428912950047,0.01799769758677829,0.0035600301159603204,0.01728665204969125
1.502789169042137,0.033871437590867574,0.01740410889662409,0.017486670760106647,0.0026756437364180716,0.016909919612151214
1.5028606861970637,0.03289397904446062,0.015241391083376415,0.015274482970942199,0.002996600444648559,0.01467453641062451
1.5029322033519903,0.030638444170610023,0.01273229102749626,0.012011118949132128,0.005054470274068842,0.011146044701126245
1.5030037205069169,0.02725242384486997,0.011976902599837221,0.009441040885373031,0.008446833798001907,0.008108915747201084
1.5030752376618435,0.023245599290448483,0.01503229442333418,0.008606550278537486,0.01255206982532223,0.006685000245187912
1.50314675481677,0.019358366958489085,0.019376515642367448,0.008953985446160287,0.017073312624974968,0.006369927060957947
1.5032182719716967,0.01638051368297583,0.0236416740568786,0.010426555451109277,0.019668919896910227,0.007448925461324214
1.5032897891266233,0.01497089818834955,0.027302849972866576,0.012350463029946239,0.020578092856498316,0.009220398600496874
1.5033613062815498,0.015499460648454992,0.030564736328260483,0.013981854206916533,0.020644988095797137,0.010825132220008745
1.5034328234364764,0.01793079665045714,0.03167297241501437,0.01416864675154985,0.019367936483597907,0.011195919703017839
1.503504340591403,0.021792554285279486,0.032138578125080516,0.013806564009865633,0.017633176146818277,0.011090196443787222
1.5035758577463296,0.026283745634476982,0.034199025524356684,0.015751292513310384,0.014713930466346021,0.013439634678983793
1.5036473749012562,0.03053094650102892,0.0376990573283273,0.019003856556851165,0.0131004030873276,0.01689296953936934
1.5037188920561828,0.03389868374654469,0.04270892964355227,0.02304438568669538,0.014417226107154768,0.020699640740675738
1.5037904092111094,0.03619247413189749,0.048105454949940105,0.02836367437687625,0.014169761096929257,0.025999503025061915
1.503861926366036,0.03764566473947448,0.05199946706208333,0.03246316988130233,0.014424967464135525,0.030019383739479003
1.5039334435209626,0.038716510453014726,0.05278864609739328,0.03408384953452373,0.014260075353893197,0.03164722219995875
1.5040049606758892,0.0398171228344044,0.05262389158555123,0.03557140334761458,0.013334029251594789,0.03325378598935174
1.5040764778308158,0.041095739566223526,0.05380030825441332,0.037525773851031737,0.012880057435786567,0.03525378711654823
1.5041479949857424,0.04234364882306056,0.055235493911438956,0.038887791087543686,0.012675816196259201,0.036631329299303614
1.504219512140669,0.043051695709888996,0.055694070043549676,0.03921573232033744,0.013885057804592857,0.036780486951397344
1.5042910292955955,0.04260283060723393,0.0511189421124948,0.036347749549566495,0.01600033569820594,0.03363525362864661
1.5043625464505221,0.04053910287302065,0.0416386240197696,0.030363706364527798,0.017820802454246016,0.027448547223281956
1.5044340636054487,0.03679439695722014,0.029725858446126997,0.02344001313236871,0.01997508830801799,0.0202831060426039
1.5045055807603753,0.03178229372791513,0.019485927962869586,0.01698689592080203,0.02108154366140545,0.013735557827318215
1.504577097915302,0.026296542555493532,0.013962316943892966,0.012446934359831944,0.02207675252759786,0.009097616861378275
1.5046486150702285,0.021278189004975218,0.012774213451062662,0.011187449324425095,0.02143901217405508,0.007944057063641504
1.504720132225155,0.017555651134353225,0.012009252548899011,0.011283372248322305,0.021079033507331518,0.008091420104565624
1.5047916493800817,0.01564621916050789,0.0114777156698832,0.010644076718018416,0.019751376779621438,0.007652168804569407
1.5048631665350083,0.015656872938766518,0.010600600638668816,0.009217644422453899,0.01774464486342195,0.0065330012650383195
1.5049346836899349,0.017286051262519187,0.009869905286662256,0.008230188330603324,0.0161909606071124,0.005782307024472678
1.5050062008448615,0.019918755698584013,0.01107134924972285,0.007905738300784866,0.013406422847294487,0.005867080604929574
1.505077717999788,0.022804926807040774,0.013852442074197818,0.009361654152707073,0.010302333070348769,0.007759966342241811
1.5051492351547147,0.025289013466251117,0.019270103729503742,0.011726326065843064,0.009848772708000829,0.010165681447610656
1.5052207523096413,0.027015644551186973,0.023764916823878313,0.014241445734319206,0.008652487159690152,0.012828442161741541
1.5052922694645678,0.028012475009877,0.02556839070430291,0.015961322224474977,0.007635803136261865,0.01467818758544784
1.5053637866194944,0.028596359216805502,0.021688700592604866,0.014919408532213189,0.005934822735908407,0.013895122838079131
1.505435303774421,0.02915112616185344,0.01590514655483842,0.013309044659559194,0.0025997651460710337,0.01278788327656429
1.5055068209293476,0.029900153036102176,0.011224725530309216,0.012321918805932341,-0.00015148454822166814,0.012212327242544825
1.5055783380842742,0.030782681811496897,0.009999498464047959,0.01250866989698158,-0.002108273354412675,0.012682369446481928
1.5056498552392008,0.03146961942071043,0.012414378263440643,0.013496870470295333,-0.0006598287276909517,0.013448832456414853
1.5057213723941274,0.03149161794629547,0.01433422160918043,0.013134126432083434,0.002167416541521226,0.01267784461216024
1.505792889549054,0.030427310908792447,0.015423336248934551,0.011855838401314541,0.005755550953082804,0.010890248741770085
1.5058644067039806,0.02809465201809536,0.014212538747578048,0.009674998552531539,0.010701326429908441,0.008011848854278289
1.5059359238589072,0.024683284499830333,0.011156682019838045,0.006168765257997816,0.013842517396728682,0.004084886445350506
1.5060074410138338,0.020766913938386953,0.01008970144772562,0.003987129865862614,0.016500290707441693,0.0015387952986756794
1.5060789581687604,0.017165658691511196,0.011097279658906981,0.004506773893992003,0.017718305271703663,0.001875380240100304
1.506150475323687,0.014695536880755058,0.012739251998471124,0.005603202541494299,0.01940046090764095,0.002715061593398656
1.5062219924786135,0.013907828977730352,0.014515182354119152,0.006474304461408025,0.019600610696945638,0.0035478743209977084
1.5062935096335401,0.014929925183180436,0.014738215369159096,0.007024475314287043,0.017870727770505624,0.004344435488169483
1.5063650267884667,0.01746107614733839,0.013988661196233647,0.006681651925523114,0.01571705587986832,0.004319126406800639
1.5064365439433933,0.020900617081537138,0.015325261690042844,0.008103902228742074,0.013190617707271705,0.006094603408905282
1.50650806109832,0.024545654709518663,0.0186639274325814,0.01119024144466396,0.00899363408592508,0.009759874525517468
1.5065795782532465,0.027795889555703463,0.025294608674360616,0.015188716512202768,0.0075583553292717254,0.013925055035496911
1.506651095408173,0.030315638754338018,0.0334650820834634,0.02020329875354711,0.0068295891086719495,0.018992621759156027
1.5067226125630997,0.03210575674634778,0.0413765096489941,0.02516307524326057,0.005540190399153809,0.024087566979490306
1.5067941297180263,0.03344435853615213,0.04493826017603019,0.02809340030703321,0.004409141437889396,0.02715145585032901
1.5068656468729529,0.03469846610783441,0.04463036356229725,0.028836225363534616,0.0033511008021441,0.028040389077290503
1.5069371640278795,0.03608805388876267,0.04207284946745767,0.029158238083419115,0.0009156608781111541,0.0287135222338559
1.507008681182806,0.03753193323000867,0.039782575644979924,0.029645090979329304,0.00030663174480143187,0.02928387054935814
1.5070801983377327,0.038657419159163646,0.03913947848832108,0.03000532215028713,0.0008052622122458089,0.029567660012803986
1.5071517154926592,0.038950459296790155,0.03759770418191407,0.029635790998015537,0.001920495275785731,0.029039699267344964
1.5072232326475858,0.03795818995272562,0.033234837625428615,0.026170643808596194,0.0038971211075077136,0.02532362371347641
1.5072947498025124,0.035465807062779846,0.02763163211434439,0.02167628316777021,0.0071607482729666595,0.020401794439010048
1.507366266957439,0.03160750390290827,0.022963639240338767,0.01779655130545853,0.009992766748272465,0.01615075574573698
1.5074377841123656,0.02689036393457737,0.019747081942344803,0.014369878001425985,0.012904483127358698,0.012336207706395175
1.5075093012672922,0.022110982309926926,0.01637957927993132,0.012274203971852665,0.014298352181108706,0.010059565165197884
1.5075808184222188,0.018158898886019043,0.013363454489593486,0.010838451012952628,0.015812735631185043,0.008418290198133746
1.5076523355771454,0.015750547010193554,0.010524068654189506,0.009985828883372298,0.017147272969591183,0.007380180228187849
1.507723852732072,0.015198153002695225,0.007706087638669943,0.008495434228764531,0.017238633298750916,0.005892093044316656
1.5077953698869986,0.01632710132796861,0.005665157964151245,0.006411917338543193,0.015464904724610045,0.004088986102505469
1.5078668870419252,0.01858159605132472,0.00444938462691975,0.00521914285473996,0.013290803163780611,0.0032257257078469157
1.5079384041968518,0.02125563485920751,0.0044416744807522415,0.005152249488431391,0.009553869076432664,0.003704314341435856
1.5080099213517784,0.023737553869918368,0.005545513847145482,0.0057615299185219465,0.006705735312487783,0.004722315113294625
1.508081438506705,0.025680396681245936,0.0077698755881003756,0.007453924502377228,0.0041375293767601205,0.006771059357644652
1.5081529556616315,0.027059576075294776,0.009713940385343036,0.008842952470356694,0.00045156548268099166,0.008682611735670346
1.5082244728165581,0.028112039179855254,0.009505640547059083,0.008942296206187028,-0.0031191679998263397,0.009301534594581265
1.5082959899714847,0.029172386947160022,0.007553052618508265,0.008780907310022895,-0.00642470239445135,0.009623952313401239
1.5083675071264113,0.03045818310099522,0.006975481624753951,0.010026451111954632,-0.009278556280091757,0.011272493212394296
1.508439024281338,0.03190386747651281,0.009123023086700469,0.012747040105629182,-0.009738441523122567,0.01403110334537171
1.5085105414362645,0.03314377564440417,0.013031073348543643,0.01600259242207933,-0.009830222024635328,0.0172652228507565
1.508582058591191,0.03366149064758627,0.016498318937908787,0.0186299276568245,-0.006627917280723623,0.019397226563762696
1.5086535757461177,0.03301661123576188,0.01623723496453019,0.017302793300784304,-0.0034289420245339924,0.01761778025499881
1.5087250929010443,0.031031763736761156,0.013071977410123127,0.013978643770450466,8.946808044641214e-05,0.013816228940419997
1.5087966100559709,0.02787943173947238,0.00893166994974835,0.009773118861112214,0.0042427975991072685,0.009050181989233299
1.5088681272108975,0.024071143965329337,0.006186208525829394,0.005405399448016361,0.008266538886648137,0.00414244119122772
1.508939644365824,0.020368522042175177,0.0037800711099061158,0.002619426200917792,0.010191288514040421,0.001105471675419851
1.5090111615207507,0.017622660517009992,0.0010202998878940245,0.001280243020763253,0.011342978715505991,-0.00038741959128697783
1.5090826786756772,0.016549556574789192,-0.0008261125832984513,0.001094148915450876,0.011245502838735832,-0.0005573221323103772
1.5091541958306038,0.01749078347259404,-0.001431542923132232,0.001728275756159572,0.010394542288111512,0.0001941560546839694
1.5092257129855304,0.02026609634215111,-0.0009363517374402439,0.002622344403247119,0.008223517457169056,0.001395274743823257
1.509297230140457,0.024225306810832306,0.002073311061180277,0.005090188490138515,0.006286100778447257,0.004119300677317905
1.5093687472953836,0.028505184243561566,0.00879552222696411,0.010396256019729185,0.004498454275069621,0.009629415273980738
1.5094402644503102,0.032363241212534366,0.018179194431044376,0.017181792517199104,0.004155954972343096,0.01639261127531888
1.5095117816052368,0.035420479974014,0.027801358497505962,0.023785576506019895,0.004637847369007463,0.02285603332748743
1.5095832987601634,0.03772295943106026,0.034982742896004684,0.028541189697550762,0.0035580658190964187,0.027718361596140273
1.50965481591509,0.039632532833370364,0.036824270201881656,0.030196375009199177,0.0017522186580012946,0.029618818000173103
1.5097263330700166,0.041605230836871475,0.03306599390098722,0.028415936049993602,0.00013403550797148702,0.028092951202715523
1.5097978502249432,0.04392716574129624,0.027829294375549134,0.026087173799228647,-0.003981672903679919,0.026388740854862893
1.5098693673798698,0.04649881119729661,0.024255942233060476,0.025125670272120693,-0.008746003120361867,0.0261323354315069
1.5099408845347964,0.048782229516577,0.02371639314543954,0.025898717163670308,-0.012095596877200665,0.02738593873775058
1.510012401689723,0.04998265464348263,0.026395416811279753,0.027970420605425636,-0.012571907583514456,0.029504938925255627
1.5100839188446495,0.04939582665258717,0.026895505927518448,0.02744804663090382,-0.012225210075560877,0.02893755733192845
1.5101554359995761,0.046726633743720845,0.025416610452728985,0.024915387052692306,-0.010107824877821482,0.02612302041126313
1.5102269531545027,0.04221494386441091,0.02371363783184986,0.022036546886626967,-0.0058893845139945285,0.02265964204271095
1.5102984703094293,0.0365554045951188,0.02303190444170915,0.019143160662124768,-0.001200170921647126,0.019113554578617815
1.510369987464356,0.030705701566729478,0.023749976847459726,0.01712115674686206,0.003763901549710171,0.01638973932867657
1.5104415046192825,0.025671938650474672,0.024871742323662308,0.016152578444133103,0.009404852189440052,0.014609762496532664
1.510513021774209,0.02230380117340663,0.026044584059255024,0.01595046449902194,0.013913703937509911,0.013753225208531375
1.5105845389291357,0.02110478427342222,0.025133982911562425,0.014310671393420193,0.017497205757091166,0.01160884285626824
1.5106560560840623,0.022087028251984653,0.021923593925915637,0.011927341615445858,0.016606788878570575,0.009380095681804238
1.5107275732389889,0.02474352062355467,0.016220000276294482,0.008315005741078718,0.0144753961284965,0.006116243562016125
1.5107990903939155,0.028206425428266402,0.011157125098789664,0.006455089330600415,0.01091705019958083,0.004794612222348181
1.510870607548842,0.03156791810921427,0.008553055176224122,0.006924877381908108,0.007685687590322811,0.005730430240354957
1.5109421247037687,0.034217944840168574,0.008116361935676544,0.0085255112555674,0.004779197264622331,0.007737685177226709
1.5110136418586952,0.036025983655989566,0.011039290506509675,0.01161661354179527,0.0026778895459835606,0.011102116332294007
1.5110851590136218,0.03729532439305516,0.012610419924789718,0.013294021431409462,0.000770399370929406,0.013039659949389978
1.5111566761685484,0.03854470610167679,0.012188923949997304,0.013163190298163863,0.0002946296641157738,0.012979578577164102
1.511228193323475,0.04022460916569971,0.011806399612285948,0.013651672900344249,-0.0022368775073569277,0.013831901941498337
1.5112997104784016,0.04246467581659284,0.01309465944754069,0.01442102957265151,-0.005560527402584321,0.015077700547321169
1.5113712276333282,0.04493429586497486,0.017059689044055297,0.016921655013448497,-0.0065404407036622255,0.017694486373732606
1.5114427447882548,0.04689231770787431,0.022143523906424448,0.019784155718843215,-0.006874581874527297,0.020575071587998518
1.5115142619431814,0.047454803887083834,0.02435588535829416,0.02007376929597759,-0.006564915518296508,0.020816414402484294
