freq,gls,usurper,pdc_unbiased,shape_periodogram,shift_periodogram
1.5,0.031605246424144244,0.030131612096235418,0.022003088454338578,0.020373963068258907,0.0075607159000499035
1.5000715171549266,0.028595336453250155,0.023334053261759274,0.01679692217781675,0.014869704409898252,0.0061382471808859775
1.5001430343098532,0.024797888546036324,0.01752578217215901,0.011419584810450916,0.010376065965114919,0.004028491347542748
1.5002145514647798,0.020789812632417533,0.015668315329227352,0.008796510756732951,0.006564947091335682,0.0038722877996649257
1.5002860686197064,0.017345459787468324,0.018240244653993615,0.009479677332466734,0.004932256941392939,0.005327641837405329
1.500357585774633,0.015271945925960987,0.02275413170010109,0.011714688134418397,0.005318804346262689,0.007002275908193051
1.5004291029295596,0.015165201318802408,0.027932269219819186,0.01415548030345099,0.008481494919206642,0.007354561678401708
1.5005006200844861,0.01716595655706576,0.03278108193305984,0.016954003693511403,0.01113593256121157,0.008282455680475552
1.5005721372394127,0.02086274426290797,0.03651161731917398,0.019187221778694714,0.014365637343794055,0.008424381998801007
1.5006436543943393,0.02544081002802935,0.03981011306014404,0.02137618975240262,0.01762234075418481,0.008514802522852315
1.500715171549266,0.03000884122307953,0.04337358688866995,0.02421994995090846,0.01976118807744995,0.009759935682017391
1.5007866887041925,0.03391266896856934,0.04738488549604608,0.02666061786266369,0.024845599786535805,0.009078813366453461
1.500858205859119,0.0368882624749449,0.051823291857075585,0.029368029530911475,0.031147071344097704,0.007967388213230746
1.5009297230140457,0.0390355018056212,0.05665987648019016,0.03287087235373193,0.039171405113322205,0.00659926871163828
1.5010012401689723,0.04067274274449097,0.058324470972370174,0.0349635290275476,0.04538283672018437,0.005017878710334873
1.5010727573238989,0.04213722341942038,0.0586242041239363,0.036798409825528795,0.04946430571998092,0.004367159994952908
1.5011442744788255,0.043587855733941964,0.05875984770339034,0.03793328428010061,0.05302591086477998,0.0034052258999099894
1.501215791633752,0.044880915226329254,0.05861229706593361,0.03824814004694497,0.05617976954671326,0.001969718313666843
1.5012873087886787,0.045592465454410994,0.059674222273170326,0.03896037083855539,0.059131604110661214,0.0009788524152961316
1.5013588259436053,0.04519857422015515,0.058943163533301896,0.038338310339186395,0.05904630233130537,0.0004988028368170327
1.5014303430985318,0.04331902735671992,0.05510951479824135,0.03525172960142179,0.05885946153300295,-0.002010173480091222
1.5015018602534584,0.03989064242203222,0.04712076822764091,0.029380562295107576,0.0555771882475613,-0.005199245854969557
1.501573377408385,0.035207008956161204,0.03789685474708996,0.02275340008029923,0.05152681199720297,-0.008607814599345958
1.5016448945633116,0.029854908046904056,0.029564600723520407,0.01716592382272006,0.04478398440769406,-0.009681702831946946
1.5017164117182382,0.02460404968418353,0.022676570810932165,0.01272729457488559,0.03723585840852972,-0.00935096270937836
1.5017879288731648,0.020274028275387688,0.018690973324543943,0.010756457121333964,0.030944212918739278,-0.007618190995458328
1.5018594460280914,0.01756978332877583,0.01677061965621294,0.009814843547662735,0.027130653027003272,-0.006355117418423452
1.501930963183018,0.016887968997375314,0.016463055371348418,0.009773529530205848,0.02348814879421409,-0.004425909756524176
1.5020024803379446,0.018154766828972088,0.015842557314492713,0.009545857603491862,0.02024563683831352,-0.002869696768429653
1.5020739974928712,0.020807783027131654,0.01653754206955158,0.00997328939183271,0.018031688942647665,-0.0013161108938238883
1.5021455146477978,0.023992628107040868,0.019029459328772116,0.01144212206274167,0.016900826768062167,0.0005311145645622858
1.5022170318027244,0.026898257150269028,0.02338840532605004,0.014028974316248104,0.018320832949444987,0.0019457087695126968
1.502288548957651,0.029041972437567,0.027858761179578022,0.016679671046279716,0.020720156571628328,0.002886617026411127
1.5023600661125776,0.03036170293294545,0.032558350338807204,0.019990738498687276,0.024256527124107002,0.0037718415027384196
1.5024315832675041,0.031115659296329378,0.03297366325892291,0.02077896981185265,0.026608368290077407,0.003168826123546876
1.5025031004224307,0.031680428730509906,0.030111326700595558,0.019519808615351825,0.02751155780986489,0.0016202756697682996
1.5025746175773573,0.032340192227813126,0.02668230339090631,0.018649627815208736,0.026181613849137347,0.0016035224546232984
1.502646134732284,0.033131945974426154,0.024411000495318726,0.017871043624403338,0.02416340960159652,0.0020350154085771064
1.5027176518872105,0.033797027787609374,0.024185383494362837,0.01799769758677829,0.02336248444444096,0.0025734858164042146
1.502789169042137,0.033871437590867574,0.023110213032713316,0.017486670760106647,0.021420926757290817,0.0031891579560431333
1.5028606861970637,0.03289397904446062,0.019880478437847803,0.015274482970942199,0.019387490873287873,0.0024205107194414524
1.5029322033519903,0.030638444170610023,0.016071294938226906,0.012011118949132128,0.01767349947069678,0.0005941318301647615
1.5030037205069169,0.02725242384486997,0.0139259359752435,0.009441040885373031,0.01639662579662529,-0.0008832752590825726
1.5030752376618435,0.023245599290448483,0.01514047898764531,0.008606550278537486,0.015490975963197585,-0.0010982549417213807
1.50314675481677,0.019358366958489085,0.01832839103787528,0.008953985446160287,0.015233339482404417,-0.000666657661596287
1.5032182719716967,0.01638051368297583,0.022572760128753724,0.010426555451109277,0.015305870732634865,0.0005350087389901703
1.5032897891266233,0.01497089818834955,0.026731430830502285,0.012350463029946239,0.016168674741567746,0.0016911371049916032
1.5033613062815498,0.015499460648454992,0.03001710653180488,0.013981854206916533,0.016739483214421383,0.002758262580235224
1.5034328234364764,0.01793079665045714,0.030482320232580875,0.01416864675154985,0.01539644289220198,0.003639465307304708
1.503504340591403,0.021792554285279486,0.03009123364462872,0.013806564009865633,0.01397119556937262,0.004102408610992894
1.5035758577463296,0.026283745634476982,0.03290940111974735,0.015751292513310384,0.014906171979323994,0.005237391023501212
1.5036473749012562,0.03053094650102892,0.03823444781860187,0.019003856556851165,0.01971413001383629,0.005387881399571692
1.5037188920561828,0.03389868374654469,0.045228984488060196,0.02304438568669538,0.02731127918792029,0.004700296159354535
1.5037904092111094,0.03619247413189749,0.05364008324506052,0.02836367437687625,0.03525006354612514,0.004908533773524617
1.503861926366036,0.03764566473947448,0.05985577053380327,0.03246316988130233,0.04255686402919522,0.004429876523607743
1.5039334435209626,0.038716510453014726,0.06268502806475275,0.03408384953452373,0.04971820519402516,0.0019364541765314253
1.5040049606758892,0.0398171228344044,0.06415795369622655,0.03557140334761458,0.05459153617594834,0.0005639635117751319
1.5040764778308158,0.041095739566223526,0.06753250718617869,0.037525773851031737,0.05909506930085552,-0.00021465458779386818
1.5041479949857424,0.04234364882306056,0.07086635753311439,0.038887791087543686,0.06374532638856549,-0.0015737158796494204
1.504219512140669,0.043051695709888996,0.07228132412745165,0.03921573232033744,0.06778990065985223,-0.003481285724539665
1.5042910292955955,0.04260283060723393,0.06764506858029072,0.036347749549566495,0.06943137502422236,-0.006795215874885916
1.5043625464505221,0.04053910287302065,0.056928213493723664,0.030363706364527798,0.06686089287996771,-0.010465750152708002
1.5044340636054487,0.03679439695722014,0.043544305733946145,0.02344001313236871,0.05980065804420486,-0.012498106099017543
1.5045055807603753,0.03178229372791513,0.03190675657434746,0.01698689592080203,0.052808306927536006,-0.01416604671357741
1.504577097915302,0.026296542555493532,0.02398065937680447,0.012446934359831944,0.046039006060536874,-0.014338940824335879
1.5046486150702285,0.021278189004975218,0.0211163250245751,0.011187449324425095,0.039943483064034876,-0.012110216944554032
1.504720132225155,0.017555651134353225,0.020355839832753672,0.011283372248322305,0.03532562398675486,-0.009537532764724669
1.5047916493800817,0.01564621916050789,0.019317655937693322,0.010644076718018416,0.03191479840455556,-0.008236419477688557
1.5048631665350083,0.015656872938766518,0.017125180751422296,0.009217644422453899,0.02742101551670823,-0.007014977939692756
1.5049346836899349,0.017286051262519187,0.015655471872804243,0.008230188330603324,0.02303389539899296,-0.005481515322200624
1.5050062008448615,0.019918755698584013,0.015593952321474234,0.007905738300784866,0.01913538416270976,-0.003653174022424749
1.505077717999788,0.022804926807040774,0.017853251722292733,0.009361654152707073,0.016202834617549202,-0.0008457129978312466
1.5051492351547147,0.025289013466251117,0.022646456576204507,0.011726326065843064,0.018536682990319343,-0.0001111077439648464
1.5052207523096413,0.027015644551186973,0.027445762890135367,0.014241445734319206,0.021249559691106666,0.0005462218203174902
1.5052922694645678,0.028012475009877,0.029777093887441576,0.015961322224474977,0.022300406511001902,0.001429398620445575
1.5053637866194944,0.028596359216805502,0.026480429288420725,0.014919408532213189,0.020759157347279907,0.001381950963779787
1.505435303774421,0.02915112616185344,0.02029552690674326,0.013309044659559194,0.01668131058051511,0.002222631558089927
1.5055068209293476,0.029900153036102176,0.01619017899915319,0.012321918805932341,0.013389481980063732,0.003164870055971103
1.5055783380842742,0.030782681811496897,0.01582100032537614,0.01250866989698158,0.012021397886756944,0.004059484522964912
1.5056498552392008,0.03146961942071043,0.018223132969218334,0.013496870470295333,0.01370577758792215,0.003984474170262403
1.5057213723941274,0.03149161794629547,0.01930945659899734,0.013134126432083434,0.016218184327797112,0.002324827099916793
1.505792889549054,0.030427310908792447,0.018616034428383995,0.011855838401314541,0.018914319083410312,-0.00020551792855579945
1.5058644067039806,0.02809465201809536,0.016255745984315135,0.009674998552531539,0.01974899263227268,-0.002493153825327348
1.5059359238589072,0.024683284499830333,0.012421781514794276,0.006168765257997816,0.019136823548286115,-0.005117447391988851
1.5060074410138338,0.020766913938386953,0.010072378570379714,0.003987129865862614,0.017575808129612396,-0.006113963435387682
1.5060789581687604,0.017165658691511196,0.011214540031720793,0.004506773893992003,0.015797130936629898,-0.00471738206710651
1.506150475323687,0.014695536880755058,0.013813553516478961,0.005603202541494299,0.01558993884073378,-0.003681983516938123
1.5062219924786135,0.013907828977730352,0.01615714695571576,0.006474304461408025,0.015471695573558259,-0.002884347075740032
1.5062935096335401,0.014929925183180436,0.01680992526285749,0.007024475314287043,0.013459368463071442,-0.0013361955763346784
1.5063650267884667,0.01746107614733839,0.016074803769534043,0.006681651925523114,0.012233326358255029,-0.0009642237770924282
1.5064365439433933,0.020900617081537138,0.017993965533416333,0.008103902228742074,0.011711843568423908,0.0005150656595487708
1.50650806109832,0.024545654709518663,0.022415302846492652,0.01119024144466396,0.011062432665034741,0.0034653812256365425
1.5065795782532465,0.027795889555703463,0.029634286674377345,0.015188716512202768,0.014858905742979562,0.004788763250753437
1.506651095408173,0.030315638754338018,0.0389340407966153,0.02020329875354711,0.020478363958652497,0.0059871569653383114
1.5067226125630997,0.03210575674634778,0.04807777146963335,0.02516307524326057,0.02713139064391391,0.006584083880232426
1.5067941297180263,0.03344435853615213,0.05326387227484226,0.02809340030703321,0.032964022532163156,0.005912680515783894
1.5068656468729529,0.03469846610783441,0.053795592197506695,0.028836225363534616,0.03608073755393048,0.004859539524770392
1.5069371640278795,0.03608805388876267,0.05298063089313605,0.029158238083419115,0.03760373413907367,0.004310277918468889
1.507008681182806,0.03753193323000867,0.05294999504902965,0.029645090979329304,0.039965911545306286,0.0034476427079835584
1.5070801983377327,0.038657419159163646,0.05328337491243359,0.03000532215028713,0.04212861473890335,0.002585544791202866
1.5071517154926592,0.038950459296790155,0.05210153396790943,0.029635790998015537,0.042890614743128774,0.0018626243463352938
1.5072232326475858,0.03795818995272562,0.046405609147804165,0.026170643808596194,0.04314320629963621,-0.0011986561135588216
1.5072947498025124,0.035465807062779846,0.039163513302878795,0.02167628316777021,0.04214887114616077,-0.0044547464043533805
1.507366266957439,0.03160750390290827,0.03308929704225306,0.01779655130545853,0.04025989393254708,-0.006708193035269691
1.5074377841123656,0.02689036393457737,0.027918530682000498,0.014369878001425985,0.038192672058532225,-0.008482372435613025
1.5075093012672922,0.022110982309926926,0.023495757795690696,0.012274203971852665,0.034573641872305376,-0.008296623435007613
1.5075808184222188,0.018158898886019043,0.020620932792995747,0.010838451012952628,0.03219220444867525,-0.008222221471830772
1.5076523355771454,0.015750547010193554,0.018830748827986882,0.009985828883372298,0.0299093893765475,-0.007709561372871573
1.507723852732072,0.015198153002695225,0.015647753455804794,0.008495434228764531,0.025689977615253424,-0.006690133133730414
1.5077953698869986,0.01632710132796861,0.011469485237946397,0.006411917338543193,0.020220723426391255,-0.005496907627763841
1.5078668870419252,0.01858159605132472,0.008566437362806375,0.00521914285473996,0.014652015265375688,-0.003499991296054754
1.5079384041968518,0.02125563485920751,0.006994789108718897,0.005152249488431391,0.008660554058529337,-0.00032714371522472163
1.5080099213517784,0.023737553869918368,0.007083425134346175,0.0057615299185219465,0.004994883787941294,0.0021616141781207266
1.508081438506705,0.025680396681245936,0.009224693216566238,0.007453924502377228,0.0030129505685761037,0.004655351331572451
1.5081529556616315,0.027059576075294776,0.011127528776845324,0.008842952470356694,0.0020032162872684212,0.006369603148878616
1.5082244728165581,0.028112039179855254,0.010432833294230124,0.008942296206187028,0.00033442005018559194,0.007352545144542112
1.5082959899714847,0.029172386947160022,0.008428517789710956,0.008780907310022895,-0.0013591632552841734,0.008129206644633794
1.5083675071264113,0.03045818310099522,0.008654636352489928,0.010026451111954632,-0.002097923462655765,0.00957651479029271
1.508439024281338,0.03190386747651281,0.012991778725207234,0.012747040105629182,-0.00033933104040200006,0.010920732713399675
1.5085105414362645,0.03314377564440417,0.01920640944513625,0.01600259242207933,0.003833703568063575,0.011415047284677253
1.508582058591191,0.03366149064758627,0.02418721185201447,0.0186299276568245,0.008150220968534119,0.01130331670952665
1.5086535757461177,0.03301661123576188,0.023653357404134503,0.017302793300784304,0.010554754910760801,0.008889509386583247
1.5087250929010443,0.031031763736761156,0.019185826289468418,0.013978643770450466,0.0111050130152808,0.005791911906816237
1.5087966100559709,0.02787943173947238,0.013496628243150826,0.009773118861112214,0.010061845762977008,0.002810617635076143
1.5088681272108975,0.024071143965329337,0.00827214915391184,0.005405399448016361,0.00932771302424938,-0.00047343720595450974
1.508939644365824,0.020368522042175177,0.0042547146502486645,0.002619426200917792,0.007001439133424914,-0.0015666629523155542
1.5090111615207507,0.017622660517009992,0.00241952399478641,0.001280243020763253,0.006152448111551603,-0.0022372195508569745
1.5090826786756772,0.016549556574789192,0.001950986054510891,0.001094148915450876,0.006843412817770477,-0.0027663637854264587
1.5091541958306038,0.01749078347259404,0.0022266523539273358,0.001728275756159572,0.0063736200802860426,-0.001979003099108512
1.5092257129855304,0.02026609634215111,0.0030587517349064722,0.002622344403247119,0.004427127335261385,-0.00017684847954878413
1.509297230140457,0.024225306810832306,0.00689353396884299,0.005090188490138515,0.003374855361170337,0.0024691092147454225
1.5093687472953836,0.028505184243561566,0.01537727321645208,0.010396256019729185,0.004233758775760403,0.0064762092513449354
1.5094402644503102,0.032363241212534366,0.02687319883995999,0.017181792517199104,0.007591582472751579,0.010384014963788693
1.5095117816052368,0.035420479974014,0.039260767158313385,0.023785576506019895,0.012758747380710339,0.01316589131479058
1.5095832987601634,0.03772295943106026,0.04841811690703768,0.028541189697550762,0.01715060126353809,0.014809785838488328
1.50965481591509,0.039632532833370364,0.05111412660151795,0.030196375009199177,0.019759035085797187,0.014800864054178681
1.5097263330700166,0.041605230836871475,0.04642828842558429,0.028415936049993602,0.019045207416004187,0.01368377340824107
1.5097978502249432,0.04392716574129624,0.039380189002915796,0.026087173799228647,0.014697328230052993,0.014061962110353167
1.5098693673798698,0.04649881119729661,0.03557406551508373,0.025125670272120693,0.011169629082946908,0.015151417766932187
1.5099408845347964,0.048782229516577,0.036191729685218055,0.025898717163670308,0.011433868228241455,0.01566073675832603
1.510012401689723,0.04998265464348263,0.03941390367534678,0.027970420605425636,0.013775131147309503,0.016146360786322395
1.5100839188446495,0.04939582665258717,0.039760997141027904,0.02744804663090382,0.016244453725168317,0.014376067154872647
1.5101554359995761,0.046726633743720845,0.03678410217893249,0.024915387052692306,0.01750581372434225,0.011561278370732666
1.5102269531545027,0.04221494386441091,0.03334779332193159,0.022036546886626967,0.01799029335614702,0.008873236661188812
1.5102984703094293,0.0365554045951188,0.03106548087135632,0.019143160662124768,0.019110146264997536,0.005830779632137816
1.510369987464356,0.030705701566729478,0.030439478866188193,0.01712115674686206,0.020395831711016606,0.0034335360005258862
1.5104415046192825,0.025671938650474672,0.031075524577240842,0.016152578444133103,0.021674824767117733,0.001927795566331737
1.510513021774209,0.02230380117340663,0.032343132554490596,0.01595046449902194,0.02379793488339387,0.000613035951241874
1.5105845389291357,0.02110478427342222,0.030536266448123968,0.014310671393420193,0.023759054554780452,-0.0007481724598164198
1.5106560560840623,0.022087028251984653,0.025163827052073578,0.011927341615445858,0.019431599437499763,-0.00042408410399244814
1.5107275732389889,0.02474352062355467,0.016904976602813444,0.008315005741078718,0.012970235750543437,1.4715813842673395e-05
1.5107990903939155,0.028206425428266402,0.01077169905293362,0.006455089330600415,0.006260020841310629,0.002064095633668748
1.510870607548842,0.03156791810921427,0.008116788523513191,0.006924877381908108,0.0009374655902060444,0.005328121689508283
1.5109421247037687,0.034217944840168574,0.008719490246131608,0.0085255112555674,-0.0015037380605609596,0.007991973810391715
1.5110136418586952,0.036025983655989566,0.012317352665096084,0.01161661354179527,-0.0020044435964649333,0.01086566666888243
1.5110851590136218,0.03729532439305516,0.014154389200761928,0.013294021431409462,-0.0014943371993649144,0.012003850173093158
1.5111566761685484,0.03854470610167679,0.012812739549791804,0.013163190298163863,-0.0009887131632265705,0.011621200565389218
1.511228193323475,0.04022460916569971,0.011542783760975747,0.013651672900344249,-0.0024496430583476965,0.012819864747626175
1.5112997104784016,0.04246467581659284,0.012644101378246429,0.01442102957265151,-0.0026226550464106455,0.013561186837301077
1.5113712276333282,0.04493429586497486,0.017913672189349802,0.016921655013448497,-0.0005744475843297675,0.014564259668671434
1.5114427447882548,0.04689231770787431,0.024050315300927595,0.019784155718843215,0.002560437609074291,0.01528713333002152
1.5115142619431814,0.047454803887083834,0.02667048889646203,0.02007376929597759,0.0059818705246269315,0.0136880942825061
