freq,gls,usurper,pdc_unbiased,shape_periodogram,shift_periodogram
1.5,0.031605246424144244,0.031023954107860928,0.022003088454338578,0.03465481844154764,0.0010166338725960066
1.5000715171549266,0.028595336453250155,0.024290595210577443,0.01679692217781675,0.028078249730280298,-6.184353570903949e-05
1.5001430343098532,0.024797888546036324,0.018557941342948917,0.011419584810450916,0.02278550646399732,-0.0019469705503771895
1.5002145514647798,0.020789812632417533,0.01667689171928344,0.008796510756732951,0.01838696980777113,-0.0019300975037009963
1.5002860686197064,0.017345459787468324,0.019213882950166915,0.009479677332466734,0.016650946138995905,-0.0004500485563261241
1.500357585774633,0.015271945925960987,0.023589582331235672,0.011714688134418397,0.016976090437965205,0.0012988291387041255
1.5004291029295596,0.015165201318802408,0.02874148476085801,0.01415548030345099,0.020271469576573338,0.00169440520817858
1.5005006200844861,0.01716595655706576,0.03356522899668156,0.016954003693511403,0.022722306112241172,0.002832153481966837
1.5005721372394127,0.02086274426290797,0.037283575393084405,0.019187221778694714,0.024935432425675908,0.0036078445796121823
1.5006436543943393,0.02544081002802935,0.04053419325785267,0.02137618975240262,0.027351955234382525,0.004241139858731373
1.500715171549266,0.03000884122307953,0.04404032728503363,0.02421994995090846,0.028749119739520636,0.005961818245810843
1.5007866887041925,0.03391266896856934,0.048193909062427605,0.02666061786266369,0.033678690252049705,0.005517641658422857
1.500858205859119,0.0368882624749449,0.052956628026828434,0.029368029530911475,0.04032767914882441,0.00441704937799816
1.5009297230140457,0.0390355018056212,0.05818365804069834,0.03287087235373193,0.04879564498823373,0.003062631332603938
1.5010012401689723,0.04067274274449097,0.06008946753930163,0.0349635290275476,0.05515810100951498,0.0015813022326934666
1.5010727573238989,0.04213722341942038,0.06044958251076904,0.036798409825528795,0.059363872707596604,0.0009903175453142101
1.5011442744788255,0.043587855733941964,0.06056391280259507,0.03793328428010061,0.06319079978506166,-7.668853331691531e-06
1.501215791633752,0.044880915226329254,0.06030268251018893,0.03824814004694497,0.06614275602309633,-0.0012603308144872993
1.5012873087886787,0.045592465454410994,0.0613068842286701,0.03896037083855539,0.06924291343897329,-0.0022478158356283363
1.5013588259436053,0.04519857422015515,0.06065043889994438,0.038338310339186395,0.06948851103079852,-0.0029103472624856
1.5014303430985318,0.04331902735671992,0.05701711014256629,0.03525172960142179,0.06928277603960802,-0.0054614930527464136
1.5015018602534584,0.03989064242203222,0.04914018738931657,0.029380562295107576,0.06597977744211998,-0.008806572308427598
1.501573377408385,0.035207008956161204,0.040018956673240895,0.02275340008029923,0.06179034307328295,-0.012339003492109075
1.5016448945633116,0.029854908046904056,0.03166397694730268,0.01716592382272006,0.05499959524267887,-0.01363045263261104
1.5017164117182382,0.02460404968418353,0.024665741046881132,0.01272729457488559,0.04745230768843359,-0.013543825529242999
1.5017879288731648,0.020274028275387688,0.02045113376892657,0.010756457121333964,0.041080534295290065,-0.01194697386824464
1.5018594460280914,0.01756978332877583,0.018330944430187304,0.009814843547662735,0.03734923377458288,-0.010830120331706576
1.501930963183018,0.016887968997375314,0.017744393185608612,0.009773529530205848,0.03368206410064565,-0.008974590996832997
1.5020024803379446,0.018154766828972088,0.016790059008948165,0.009545857603491862,0.030109887874863406,-0.007328334709773854
1.5020739974928712,0.020807783027131654,0.01716303968660763,0.00997328939183271,0.027860329266786915,-0.005802308792993429
1.5021455146477978,0.023992628107040868,0.01951884375715807,0.01144212206274167,0.02748968325709563,-0.004351611845651792
1.5022170318027244,0.026898257150269028,0.023963368280422188,0.014028974316248104,0.030253590939325996,-0.003557254312550144
1.502288548957651,0.029041972437567,0.02867073106034964,0.016679671046279716,0.03429855298058853,-0.00336806196917836
1.5023600661125776,0.03036170293294545,0.03378211131095731,0.019990738498687276,0.03941680779369367,-0.0031651125388759264
1.5024315832675041,0.031115659296329378,0.034541737352227764,0.02077896981185265,0.042761552762983754,-0.004213114023550777
1.5025031004224307,0.031680428730509906,0.03190160083654845,0.019519808615351825,0.04424065324977893,-0.0060568845042793095
1.5025746175773573,0.032340192227813126,0.028380329664806598,0.018649627815208736,0.042816870310409184,-0.006069502481661023
1.502646134732284,0.033131945974426154,0.02588063798046809,0.017871043624403338,0.03988016555904677,-0.005223305515446741
1.5027176518872105,0.033797027787609374,0.025558114653457042,0.01799769758677829,0.038386159119828824,-0.004344286557013157
1.502789169042137,0.033871437590867574,0.02443247890005525,0.017486670760106647,0.03587812207423507,-0.0034898403144015995
1.5028606861970637,0.03289397904446062,0.021353872468929162,0.015274482970942199,0.03346025409789615,-0.0041415587785692
1.5029322033519903,0.030638444170610023,0.017620550968791743,0.012011118949132128,0.031179974569117065,-0.0057655573585232356
1.5030037205069169,0.02725242384486997,0.01550835116474707,0.009441040885373031,0.029615946503179565,-0.007163622550275173
1.5030752376618435,0.023245599290448483,0.01667535297223588,0.008606550278537486,0.02861979940240901,-0.007365803284830581
1.50314675481677,0.019358366958489085,0.019797136145956403,0.008953985446160287,0.02803209470196424,-0.0067649521507654724
1.5032182719716967,0.01638051368297583,0.02386754462745735,0.010426555451109277,0.027661310365210013,-0.005311024179137172
1.5032897891266233,0.01497089818834955,0.027819530477681778,0.012350463029946239,0.027628056566038506,-0.0036438818242392605
1.5033613062815498,0.015499460648454992,0.030982126730958792,0.013981854206916533,0.02716269850217213,-0.0020048377436468813
1.5034328234364764,0.01793079665045714,0.03128825276548015,0.01416864675154985,0.024385549301683417,-0.00041370956547940566
1.503504340591403,0.021792554285279486,0.030559193755957156,0.013806564009865633,0.021207938094671554,0.0009127752164503115
1.5035758577463296,0.026283745634476982,0.03310392393347716,0.015751292513310384,0.021171006217702685,0.0025996626894790797
1.5036473749012562,0.03053094650102892,0.03828764192537443,0.019003856556851165,0.025690803088934167,0.003061432719047003
1.5037188920561828,0.03389868374654469,0.045311966069023615,0.02304438568669538,0.03361321053987285,0.002447115471278787
1.5037904092111094,0.03619247413189749,0.053986463392045186,0.02836367437687625,0.04257367047132056,0.002396905861573281
1.503861926366036,0.03764566473947448,0.06048230892200393,0.03246316988130233,0.05097917345891218,0.0015864155704555796
1.5039334435209626,0.038716510453014726,0.063652908032103,0.03408384953452373,0.059058906301190976,-0.0011876437786494324
1.5040049606758892,0.0398171228344044,0.06525017689396577,0.03557140334761458,0.06485887031998147,-0.0029015094696511817
1.5040764778308158,0.041095739566223526,0.06864743299937297,0.037525773851031737,0.06991239069207583,-0.0038289648719269744
1.5041479949857424,0.04234364882306056,0.0720952744713125,0.038887791087543686,0.07487158136360342,-0.005218372821709342
1.504219512140669,0.043051695709888996,0.07372109291661355,0.03921573232033744,0.07892622024745147,-0.007032137448087304
1.5042910292955955,0.04260283060723393,0.06950895364890532,0.036347749549566495,0.08033388040704412,-0.01023152129722417
1.5043625464505221,0.04053910287302065,0.05909587207274401,0.030363706364527798,0.07725298693510217,-0.013789990039791257
1.5044340636054487,0.03679439695722014,0.045927036770972145,0.02344001313236871,0.06946989883294544,-0.015718705453562205
1.5045055807603753,0.03178229372791513,0.03435047264143894,0.01698689592080203,0.06171061602977845,-0.017251402085726123
1.504577097915302,0.026296542555493532,0.02632542547238348,0.012446934359831944,0.054271240611047045,-0.01730515264579562
1.5046486150702285,0.021278189004975218,0.02326075412209406,0.011187449324425095,0.04790429139117243,-0.015098398383875106
1.504720132225155,0.017555651134353225,0.022190825563018435,0.011283372248322305,0.04292949461315243,-0.012448816068712619
1.5047916493800817,0.01564621916050789,0.020901331895033404,0.010644076718018416,0.03928754246490918,-0.011118511816615757
1.5048631665350083,0.015656872938766518,0.018514725524176632,0.009217644422453899,0.03477757351400734,-0.010016202059156432
1.5049346836899349,0.017286051262519187,0.016781450211739407,0.008230188330603324,0.030101109407724574,-0.00845209289101334
1.5050062008448615,0.019918755698584013,0.016428253437946454,0.007905738300784866,0.02630476305993154,-0.006773598701629074
1.505077717999788,0.022804926807040774,0.018422268312091906,0.009361654152707073,0.023843468081345295,-0.004256807228766136
1.5051492351547147,0.025289013466251117,0.02322579307979011,0.011726326065843064,0.02729098242683729,-0.004005470188456296
1.5052207523096413,0.027015644551186973,0.028143547134903992,0.014241445734319206,0.031591515897091006,-0.004064557656976562
1.5052922694645678,0.028012475009877,0.030662183128595925,0.015961322224474977,0.033694608567609786,-0.0036730902646448754
1.5053637866194944,0.028596359216805502,0.027564256029184966,0.014919408532213189,0.03254464054918627,-0.003974227947128481
1.505435303774421,0.02915112616185344,0.02140606733943794,0.013309044659559194,0.028506065006356666,-0.0032741777250878284
1.5055068209293476,0.029900153036102176,0.01711576846074734,0.012321918805932341,0.02479921601106469,-0.00221068265263471
1.5055783380842742,0.030782681811496897,0.016570278199866728,0.01250866989698158,0.023158410594988865,-0.0012051290552580617
1.5056498552392008,0.03146961942071043,0.018967079538077917,0.013496870470295333,0.024731812522793398,-0.0011682714907090522
1.5057213723941274,0.03149161794629547,0.020250063370939778,0.013134126432083434,0.027265664100590288,-0.0027850001212986987
1.505792889549054,0.030427310908792447,0.01984736318248556,0.011855838401314541,0.02990898605811639,-0.005243636899024005
1.5058644067039806,0.02809465201809536,0.01778077147823724,0.009674998552531539,0.03033206941049002,-0.007332108592152965
1.5059359238589072,0.024683284499830333,0.014158405209393142,0.006168765257997816,0.02940553276621603,-0.009861211110061281
1.5060074410138338,0.020766913938386953,0.011875308391952465,0.003987129865862614,0.02741523667696942,-0.01070583631027248
1.5060789581687604,0.017165658691511196,0.01296044530701238,0.004506773893992003,0.025030347800266375,-0.009031130619064135
1.506150475323687,0.014695536880755058,0.015340502130524087,0.005603202541494299,0.023975268579072763,-0.007547356289548382
1.5062219924786135,0.013907828977730352,0.017303338505068266,0.006474304461408025,0.02261566483479407,-0.006099874123419559
1.5062935096335401,0.014929925183180436,0.017583439598333066,0.007024475314287043,0.018867095960043784,-0.0036967609261543423
1.5063650267884667,0.01746107614733839,0.01641002024872539,0.006681651925523114,0.015581566787355228,-0.002298082803922654
1.5064365439433933,0.020900617081537138,0.017769875436585918,0.008103902228742074,0.013408276217204236,4.07367025802919e-05
1.50650806109832,0.024545654709518663,0.021722782404131797,0.01119024144466396,0.011981520099783536,0.0034216710434173112
1.5065795782532465,0.027795889555703463,0.028752988782016632,0.015188716512202768,0.01600837689459392,0.004776238914018361
1.506651095408173,0.030315638754338018,0.03805385387700497,0.02020329875354711,0.022837568924178934,0.005560055057156743
1.5067226125630997,0.03210575674634778,0.04741576565285901,0.02516307524326057,0.031233190380869552,0.005491801165475558
1.5067941297180263,0.03344435853615213,0.052830751808939404,0.02809340030703321,0.038459474832239916,0.004284919116604506
1.5068656468729529,0.03469846610783441,0.053531875541218014,0.028836225363534616,0.042339481297996945,0.002923517382746069
1.5069371640278795,0.03608805388876267,0.052763034251722955,0.029158238083419115,0.04408820936728995,0.002298830251992754
1.507008681182806,0.03753193323000867,0.052759769812580765,0.029645090979329304,0.04629342415473808,0.001580363207697966
1.5070801983377327,0.038657419159163646,0.05312659873411949,0.03000532215028713,0.04813147398631335,0.0009422739731261761
1.5071517154926592,0.038950459296790155,0.05214692511387149,0.029635790998015537,0.04842559423934685,0.0004730806552089939
1.5072232326475858,0.03795818995272562,0.04686027931480252,0.026170643808596194,0.048137202510828724,-0.002355337243979601
1.5072947498025124,0.035465807062779846,0.04000408492239761,0.02167628316777021,0.0463769333850235,-0.0053073522126920805
1.507366266957439,0.03160750390290827,0.03428988912712661,0.01779655130545853,0.04400196456387746,-0.007412991375110563
1.5074377841123656,0.02689036393457737,0.029391241812454196,0.014369878001425985,0.04160856253084515,-0.009119187106154865
1.5075093012672922,0.022110982309926926,0.025156766856200545,0.012274203971852665,0.037933792268973,-0.00902193816651416
1.5075808184222188,0.018158898886019043,0.02244357818616127,0.010838451012952628,0.03597223031013346,-0.009242028046336979
1.5076523355771454,0.015750547010193554,0.020671879234870374,0.009985828883372298,0.03382775585806162,-0.008867622622105243
1.507723852732072,0.015198153002695225,0.01736841372852134,0.008495434228764531,0.029321031102616812,-0.007822530613590074
1.5077953698869986,0.01632710132796861,0.013003939822738451,0.006411917338543193,0.02321018442680633,-0.006459716377173803
1.5078668870419252,0.01858159605132472,0.009742935150929416,0.00521914285473996,0.016754534628051383,-0.004156164319234465
1.5079384041968518,0.02125563485920751,0.007805905115400069,0.005152249488431391,0.010336993146269116,-0.0009076846450346629
1.5080099213517784,0.023737553869918368,0.007613195664111973,0.0057615299185219465,0.006761812495704741,0.0014560494660214882
1.508081438506705,0.025680396681245936,0.009587982761655576,0.007453924502377228,0.005198703588150973,0.0037118673983499257
1.5081529556616315,0.027059576075294776,0.011470676734543083,0.008842952470356694,0.004932894809561647,0.00503948619867724
1.5082244728165581,0.028112039179855254,0.010754520559393462,0.008942296206187028,0.003964975976440227,0.005623129609207775
1.5082959899714847,0.029172386947160022,0.008716639450476805,0.008780907310022895,0.0031712692902638078,0.0058935431326304
1.5083675071264113,0.03045818310099522,0.008792828994108567,0.010026451111954632,0.003303810968966103,0.0068930010621482945
1.508439024281338,0.03190386747651281,0.01288227128768998,0.012747040105629182,0.005559824912269132,0.00806348626787004
1.5085105414362645,0.03314377564440417,0.01894660394124945,0.01600259242207933,0.010154694895745222,0.008488600666694417
1.508582058591191,0.03366149064758627,0.023983854862650342,0.0186299276568245,0.014453820911695775,0.008527877773876764
1.5086535757461177,0.03301661123576188,0.023800751488466512,0.017302793300784304,0.016782804312649186,0.006190397461815358
1.5087250929010443,0.031031763736761156,0.019684994122152622,0.013978643770450466,0.016951941056787347,0.003252592640703429
1.5087966100559709,0.02787943173947238,0.014286876093072396,0.009773118861112214,0.015093156172962073,0.0006039763198954772
1.5088681272108975,0.024071143965329337,0.009284381250853896,0.005405399448016361,0.013595025268312003,-0.002368881270454604
1.508939644365824,0.020368522042175177,0.005372841561244347,0.002619426200917792,0.010833425956222803,-0.003334592822714377
1.5090111615207507,0.017622660517009992,0.003578758337098062,0.001280243020763253,0.009572662870701578,-0.0038331191706365677
1.5090826786756772,0.016549556574789192,0.0029792890408368656,0.001094148915450876,0.009501138805579231,-0.0039557945783162355
1.5091541958306038,0.01749078347259404,0.003003893171882273,0.001728275756159572,0.008314909298285461,-0.002801219629792492
1.5092257129855304,0.02026609634215111,0.0034857835471697,0.002622344403247119,0.005587824321112105,-0.0006302043227777329
1.509297230140457,0.024225306810832306,0.006796764697870609,0.005090188490138515,0.003687295554542915,0.0024640661845411267
1.5093687472953836,0.028505184243561566,0.014665969565333616,0.010396256019729185,0.004160433602251305,0.006768864489607202
1.5094402644503102,0.032363241212534366,0.02568957924986184,0.017181792517199104,0.007889564146707315,0.010666022518912825
1.5095117816052368,0.035420479974014,0.03785945890365243,0.023785576506019895,0.014109139997846586,0.013127229420066274
1.5095832987601634,0.03772295943106026,0.04693386385075205,0.028541189697550762,0.01936694699270457,0.014500780777516918
1.50965481591509,0.039632532833370364,0.04965108089660647,0.030196375009199177,0.022401422935885908,0.014359419877289822
1.5097263330700166,0.041605230836871475,0.0450688107526748,0.028415936049993602,0.021985358297866707,0.013045536202857021
1.5097978502249432,0.04392716574129624,0.038007110765114135,0.026087173799228647,0.01768549844992488,0.013260664814497123
1.5098693673798698,0.04649881119729661,0.03403434030854558,0.025125670272120693,0.013506743251371366,0.014586804494610386
1.5099408845347964,0.048782229516577,0.03443496947371978,0.025898717163670308,0.013273095350791714,0.015370178159723302
1.510012401689723,0.04998265464348263,0.037568816037901076,0.027970420605425636,0.014976053730928942,0.016270934084664096
1.5100839188446495,0.04939582665258717,0.03812906478975502,0.02744804663090382,0.016687553151344292,0.014941901133049197
1.5101554359995761,0.046726633743720845,0.03558019859206629,0.024915387052692306,0.01753573375562131,0.012332457416032335
1.5102269531545027,0.04221494386441091,0.03262483433403598,0.022036546886626967,0.017584896065119066,0.009837543287447584
1.5102984703094293,0.0365554045951188,0.03085165006049061,0.019143160662124768,0.019022107020434168,0.006615637413635443
1.510369987464356,0.030705701566729478,0.0307679257978748,0.01712115674686206,0.021366018147530426,0.0036741364398093926
1.5104415046192825,0.025671938650474672,0.03193650424476556,0.016152578444133103,0.02393157788943783,0.0015218038068574792
1.510513021774209,0.02230380117340663,0.033572095069713696,0.01595046449902194,0.0268516285331472,-0.00015595493837199334
1.5105845389291357,0.02110478427342222,0.03203277850919835,0.014310671393420193,0.027074929866303627,-0.0016775752416723238
1.5106560560840623,0.022087028251984653,0.026778608104436392,0.011927341615445858,0.022242483107133882,-0.0012317717414941916
1.5107275732389889,0.02474352062355467,0.01846241515967356,0.008315005741078718,0.01450382717617733,-0.0003425922878922665
1.5107990903939155,0.028206425428266402,0.012107835398437815,0.006455089330600415,0.00653823567282921,0.00216573797738326
1.510870607548842,0.03156791810921427,0.009151026682124006,0.006924877381908108,0.0005769590153671949,0.005638644516282653
1.5109421247037687,0.034217944840168574,0.00945907084215005,0.0085255112555674,-0.0017068194866908038,0.00818684678386262
1.5110136418586952,0.036025983655989566,0.012858036427260907,0.01161661354179527,-0.0013826226425534562,0.010669521887913707
1.5110851590136218,0.03729532439305516,0.014590963663648718,0.013294021431409462,1.2751492670474301e-05,0.01138884783029033
1.5111566761685484,0.03854470610167679,0.013272626003738212,0.013163190298163863,0.0014625655386983401,0.010530121684869276
1.511228193323475,0.04022460916569971,0.011933436919290117,0.013651672900344249,0.0009138410149129505,0.011231430488614118
1.5112997104784016,0.04246467581659284,0.01282084903632062,0.01442102957265151,0.000927113528615572,0.011884123405348654
1.5113712276333282,0.04493429586497486,0.017837892079693562,0.016921655013448497,0.0033775626008350087,0.012766134893394869
1.5114427447882548,0.04689231770787431,0.023807909650562512,0.019784155718843215,0.006739600504141121,0.013489454582712888
1.5115142619431814,0.047454803887083834,0.02634701314445755,0.02007376929597759,0.009813271643314317,0.012155378767521317
