freq,gls,usurper,pdc_unbiased,shape_periodogram,shift_periodogram
1.5,0.031605246424144244,0.029766177114931507,0.022003088454338578,0.021671661063047014,0.009106683205784364
1.5000715171549266,0.028595336453250155,0.022976415755167505,0.01679692217781675,0.016636349509425195,0.006906077438885205
1.5001430343098532,0.024797888546036324,0.017179442386983688,0.011419584810450916,0.012413670344366783,0.004171165377583628
1.5002145514647798,0.020789812632417533,0.015392486650243889,0.008796510756732951,0.008775132946800353,0.0035858754989121755
1.5002860686197064,0.017345459787468324,0.017899082683748284,0.009479677332466734,0.007167955007542562,0.0049493115775687
1.500357585774633,0.015271945925960987,0.022399375696948907,0.011714688134418397,0.007672873830252412,0.0066781914883869845
1.5004291029295596,0.015165201318802408,0.027636307383974167,0.01415548030345099,0.010470876484170995,0.007501605315533832
1.5005006200844861,0.01716595655706576,0.03270225936728021,0.016954003693511403,0.013135536833154594,0.008703636119925948
1.5005721372394127,0.02086274426290797,0.03662241906928503,0.019187221778694714,0.015811787761812177,0.009402607524383128
1.5006436543943393,0.02544081002802935,0.040082332537695164,0.02137618975240262,0.018682811053495136,0.009970657491304002
1.500715171549266,0.03000884122307953,0.04374629631148049,0.02421994995090846,0.020724151009965143,0.011509306934143775
1.5007866887041925,0.03391266896856934,0.04786461138920404,0.02666061786266369,0.026607668990970328,0.010872816836773908
1.500858205859119,0.0368882624749449,0.05232864822403877,0.029368029530911475,0.03392059899209156,0.009794766005003876
1.5009297230140457,0.0390355018056212,0.05732536215406616,0.03287087235373193,0.04339408339009473,0.008395044953407694
1.5010012401689723,0.04067274274449097,0.059122225071854904,0.0349635290275476,0.05086294561835655,0.006701108811896513
1.5010727573238989,0.04213722341942038,0.059431032142451386,0.036798409825528795,0.05575423053968192,0.0060018354278146184
1.5011442744788255,0.043587855733941964,0.05938795134956415,0.03793328428010061,0.058678508247182515,0.005617296295547588
1.501215791633752,0.044880915226329254,0.058994770477735256,0.03824814004694497,0.060253282884368806,0.005148304312230621
1.5012873087886787,0.045592465454410994,0.059948342809161885,0.03896037083855539,0.06194291591840744,0.0049760648551448
1.5013588259436053,0.04519857422015515,0.05904123072752889,0.038338310339186395,0.060783248316865414,0.0049764983882914695
1.5014303430985318,0.04331902735671992,0.055168214595181585,0.03525172960142179,0.06066484930450451,0.0023044634590442944
1.5015018602534584,0.03989064242203222,0.04730649463788909,0.029380562295107576,0.05814469611612774,-0.0016856286854035631
1.501573377408385,0.035207008956161204,0.038149930328122125,0.02275340008029923,0.05468850982992094,-0.005894281805699406
1.5016448945633116,0.029854908046904056,0.02987947860090947,0.01716592382272006,0.04845220925241293,-0.007860958888013164
1.5017164117182382,0.02460404968418353,0.022989642447484946,0.01272729457488559,0.041002878115935164,-0.008236786866703094
1.5017879288731648,0.020274028275387688,0.018972651407488106,0.010756457121333964,0.03470375145871351,-0.006983754424348698
1.5018594460280914,0.01756978332877583,0.017043263525395543,0.009814843547662735,0.030620064391793572,-0.005875721373412716
1.501930963183018,0.016887968997375314,0.016848678161793675,0.009773529530205848,0.026658564107982737,-0.004032901973129573
1.5020024803379446,0.018154766828972088,0.016341077057492232,0.009545857603491862,0.02253775142826293,-0.0022790968905932857
1.5020739974928712,0.020807783027131654,0.017089524149701843,0.00997328939183271,0.019431991312601773,-0.0004299135263972081
1.5021455146477978,0.023992628107040868,0.01959163276751732,0.01144212206274167,0.01804507226230155,0.0015214093390503699
1.5022170318027244,0.026898257150269028,0.023943206814845613,0.014028974316248104,0.01998513457016224,0.002880315136393886
1.502288548957651,0.029041972437567,0.028345237729038953,0.016679671046279716,0.023467185123307515,0.0035648065828933497
1.5023600661125776,0.03036170293294545,0.033101453178342434,0.019990738498687276,0.028189318471563248,0.004243832767404306
1.5024315832675041,0.031115659296329378,0.033675110392495586,0.02077896981185265,0.03180509731045125,0.0032242087762408547
1.5025031004224307,0.031680428730509906,0.03086077740050449,0.019519808615351825,0.033485761719024516,0.0013172486393633269
1.5025746175773573,0.032340192227813126,0.027221346203113967,0.018649627815208736,0.031507954805557806,0.001488215861912821
1.502646134732284,0.033131945974426154,0.024767654209371836,0.017871043624403338,0.02822809384234294,0.0023573438451989464
1.5027176518872105,0.033797027787609374,0.024464922253122287,0.01799769758677829,0.026609543226931476,0.0032363859988765445
1.502789169042137,0.033871437590867574,0.023298649627403793,0.017486670760106647,0.023796367277637287,0.004119803344915985
1.5028606861970637,0.03289397904446062,0.01996784337869599,0.015274482970942199,0.021835820346334356,0.0031001803190397427
1.5029322033519903,0.030638444170610023,0.016144442193326128,0.012011118949132128,0.02036242750867837,0.0009239168488268857
1.5030037205069169,0.02725242384486997,0.01399385659387713,0.009441040885373031,0.0190684954352537,-0.0007263591645978615
1.5030752376618435,0.023245599290448483,0.015252922510554488,0.008606550278537486,0.018243625252579623,-0.0010702324455252711
1.50314675481677,0.019358366958489085,0.01845650282973293,0.008953985446160287,0.017736619093184147,-0.0005238397474498406
1.5032182719716967,0.01638051368297583,0.022676120453282184,0.010426555451109277,0.017755372154746835,0.0007642509706383357
1.5032897891266233,0.01497089818834955,0.02683546139751554,0.012350463029946239,0.0184506229857026,0.002129232120377919
1.5033613062815498,0.015499460648454992,0.03031347876072799,0.013981854206916533,0.019034690447573933,0.0032893864262802494
1.5034328234364764,0.01793079665045714,0.031009365840811244,0.01416864675154985,0.017351458319659695,0.004251865104466745
1.503504340591403,0.021792554285279486,0.0307760731323823,0.013806564009865633,0.01512147440866451,0.004989988458288124
1.5035758577463296,0.026283745634476982,0.03360431873486788,0.015751292513310384,0.01589750069419232,0.00633517005992133
1.5036473749012562,0.03053094650102892,0.03889479925978536,0.019003856556851165,0.02086961000962238,0.006843977457006248
1.5037188920561828,0.03389868374654469,0.04590731591722829,0.02304438568669538,0.029708352908151544,0.006215311898988226
1.5037904092111094,0.03619247413189749,0.054404022224967624,0.02836367437687625,0.0387104048407268,0.006638382849331716
1.503861926366036,0.03764566473947448,0.060899407714352795,0.03246316988130233,0.04719971588090603,0.006230640241128418
1.5039334435209626,0.038716510453014726,0.06386087274635388,0.03408384953452373,0.055372918062311885,0.003784470347575228
1.5040049606758892,0.0398171228344044,0.06519832585704506,0.03557140334761458,0.06024353825483009,0.002787001180558291
1.5040764778308158,0.041095739566223526,0.06836848194941711,0.037525773851031737,0.06400646282373619,0.0027279941345115665
1.5041479949857424,0.04234364882306056,0.07155100507372536,0.038887791087543686,0.0680172977459404,0.0020276512219999415
1.504219512140669,0.043051695709888996,0.07304129929705705,0.03921573232033744,0.07195868064616412,0.00044511525550638303
1.5042910292955955,0.04260283060723393,0.06849244210098457,0.036347749549566495,0.07437626865063753,-0.0032417300167575944
1.5043625464505221,0.04053910287302065,0.05782608779132793,0.030363706364527798,0.07304392447772486,-0.007899795194280503
1.5044340636054487,0.03679439695722014,0.04444723606453407,0.02344001313236871,0.06634940673427768,-0.010831596866884388
1.5045055807603753,0.03178229372791513,0.032835507415958684,0.01698689592080203,0.05903354581159495,-0.013047397576835781
1.504577097915302,0.026296542555493532,0.02491517028793182,0.012446934359831944,0.051714830478306426,-0.013571965286698556
1.5046486150702285,0.021278189004975218,0.021963185485443595,0.011187449324425095,0.045306148612205804,-0.011637388089812425
1.504720132225155,0.017555651134353225,0.02111246459120199,0.011283372248322305,0.040126727501463975,-0.009093394336651016
1.5047916493800817,0.01564621916050789,0.020119979254371718,0.010644076718018416,0.03596726307254901,-0.007682397222541077
1.5048631665350083,0.015656872938766518,0.018029954356459998,0.009217644422453899,0.0305980481910788,-0.006391397111721707
1.5049346836899349,0.017286051262519187,0.016720522656848015,0.008230188330603324,0.02515675531066121,-0.004680073769391463
1.5050062008448615,0.019918755698584013,0.016641003034048245,0.007905738300784866,0.02045663231943978,-0.0027368196030605565
1.505077717999788,0.022804926807040774,0.018771439711497948,0.009361654152707073,0.017056276410616834,0.00015777849481682162
1.5051492351547147,0.025289013466251117,0.023501999129043456,0.011726326065843064,0.0201974639650557,0.0007512670750693271
1.5052207523096413,0.027015644551186973,0.028218924888652422,0.014241445734319206,0.023475216073707995,0.0014128041691824822
1.5052922694645678,0.028012475009877,0.030708581565329282,0.015961322224474977,0.025522887402955413,0.001957218582712103
1.5053637866194944,0.028596359216805502,0.027510769162637262,0.014919408532213189,0.024893104757490195,0.0013378151617614816
1.505435303774421,0.02915112616185344,0.021060184439637194,0.013309044659559194,0.02023192898620564,0.00212911555867779
1.5055068209293476,0.029900153036102176,0.01664896622353892,0.012321918805932341,0.0157285617172483,0.0033945284923810725
1.5055783380842742,0.030782681811496897,0.016044550220537076,0.01250866989698158,0.013232511215827534,0.004742214181873474
1.5056498552392008,0.03146961942071043,0.018436954264096115,0.013496870470295333,0.014236865103689182,0.0051365208987663655
1.5057213723941274,0.03149161794629547,0.0195730864654009,0.013134126432083434,0.01670327863810669,0.003647869560182932
1.505792889549054,0.030427310908792447,0.019061141742368306,0.011855838401314541,0.02047564720448946,0.0007334540502801971
1.5058644067039806,0.02809465201809536,0.016903799260951795,0.009674998552531539,0.022281954985303536,-0.002044042759572682
1.5059359238589072,0.024683284499830333,0.01323609597749582,0.006168765257997816,0.02208986527321116,-0.0050411724828166365
1.5060074410138338,0.020766913938386953,0.01101337278228841,0.003987129865862614,0.020496646203208554,-0.006206926840880057
1.5060789581687604,0.017165658691511196,0.012141677812298874,0.004506773893992003,0.018407568775704725,-0.004758610219432295
1.506150475323687,0.014695536880755058,0.014648047902049712,0.005603202541494299,0.017652061663883133,-0.003434784327064079
1.5062219924786135,0.013907828977730352,0.016984358723188465,0.006474304461408025,0.017050107386101195,-0.0023822070821450437
1.5062935096335401,0.014929925183180436,0.017628883277434462,0.007024475314287043,0.014360184321051642,-0.0006223167077066959
1.5063650267884667,0.01746107614733839,0.016843156752965355,0.006681651925523114,0.012023318955954616,0.00018367450722161493
1.5064365439433933,0.020900617081537138,0.01866513303381227,0.008103902228742074,0.01040716034256898,0.00220230638457519
1.50650806109832,0.024545654709518663,0.023043497193688367,0.01119024144466396,0.00955278567780355,0.005325274355054207
1.5065795782532465,0.027795889555703463,0.03030073578592156,0.015188716512202768,0.014086373001998307,0.006698050607456108
1.506651095408173,0.030315638754338018,0.039561183934829804,0.02020329875354711,0.02017326165064256,0.008230862929196987
1.5067226125630997,0.03210575674634778,0.0488983411935574,0.02516307524326057,0.02829398690078404,0.00875346766119145
1.5067941297180263,0.03344435853615213,0.05431288357791323,0.02809340030703321,0.03584391329970076,0.007758904951889884
1.5068656468729529,0.03469846610783441,0.05470150128460173,0.028836225363534616,0.03932250939872924,0.006765054190904981
1.5069371640278795,0.03608805388876267,0.05370225788556849,0.029158238083419115,0.04060241237111222,0.0064423073007759775
1.507008681182806,0.03753193323000867,0.053501702823455836,0.029645090979329304,0.0425267437961534,0.005959414646123706
1.5070801983377327,0.038657419159163646,0.05381946884250041,0.03000532215028713,0.045094866394079676,0.005059399872349239
1.5071517154926592,0.038950459296790155,0.052735655679595456,0.029635790998015537,0.04629477706647431,0.004164122958417178
1.5072232326475858,0.03795818995272562,0.04719125392111694,0.026170643808596194,0.047821076476562425,0.0003819627274596359
1.5072947498025124,0.035465807062779846,0.04012850553167381,0.02167628316777021,0.04813283197022909,-0.0037312462026361575
1.507366266957439,0.03160750390290827,0.0342754518663783,0.01779655130545853,0.047037187649978864,-0.006632853126900476
1.5074377841123656,0.02689036393457737,0.02934453520488449,0.014369878001425985,0.04520483765611098,-0.008784027805504694
1.5075093012672922,0.022110982309926926,0.024877480134033868,0.012274203971852665,0.041133121676229394,-0.008697952552823327
1.5075808184222188,0.018158898886019043,0.021849389950498625,0.010838451012952628,0.03821478278020217,-0.008577863776458652
1.5076523355771454,0.015750547010193554,0.019973308779256394,0.009985828883372298,0.03513068811937877,-0.007865365279604375
1.507723852732072,0.015198153002695225,0.016764334247980257,0.008495434228764531,0.029868695236513268,-0.00668159692725868
1.5077953698869986,0.01632710132796861,0.01253722603920195,0.006411917338543193,0.023129870460212396,-0.005320261061175214
1.5078668870419252,0.01858159605132472,0.009577260493131633,0.00521914285473996,0.016082385579663388,-0.0030287213047973257
1.5079384041968518,0.02125563485920751,0.007851724640063772,0.005152249488431391,0.009327035548868589,0.00011513179078375199
1.5080099213517784,0.023737553869918368,0.007770725385186387,0.0057615299185219465,0.005557921270043105,0.0024383991719336903
1.508081438506705,0.025680396681245936,0.009807716776318436,0.007453924502377228,0.003501706189285125,0.004903336425960459
1.5081529556616315,0.027059576075294776,0.011788096336765731,0.008842952470356694,0.0026623601853753183,0.006524299880721962
1.5082244728165581,0.028112039179855254,0.011185475925365843,0.008942296206187028,0.0017088704579675223,0.007063733629125745
1.5082959899714847,0.029172386947160022,0.00891921161012116,0.008780907310022895,4.6157224641612595e-05,0.007709759888024499
1.5083675071264113,0.03045818310099522,0.00877224979352902,0.010026451111954632,-0.0012873205127294583,0.009438555797786888
1.508439024281338,0.03190386747651281,0.012826520838308503,0.012747040105629182,-0.0005137276432859378,0.011467435834526366
1.5085105414362645,0.03314377564440417,0.018928268419059494,0.01600259242207933,0.003069039239495328,0.012636229109763038
1.508582058591191,0.03366149064758627,0.024015345559138132,0.0186299276568245,0.007225889011784243,0.012980276580985732
1.5086535757461177,0.03301661123576188,0.02371535019055925,0.017302793300784304,0.010480094077552172,0.010269293131760436
1.5087250929010443,0.031031763736761156,0.01948386053085968,0.013978643770450466,0.012121001491486476,0.006563754107952698
1.5087966100559709,0.02787943173947238,0.01410023586574702,0.009773118861112214,0.011893399874236606,0.002967756447813455
1.5088681272108975,0.024071143965329337,0.009162071747095794,0.005405399448016361,0.011818078833158293,-0.0008429029131714278
1.508939644365824,0.020368522042175177,0.005201145253008305,0.002619426200917792,0.009875266313847227,-0.0023750692645714924
1.5090111615207507,0.017622660517009992,0.0032977106567300815,0.001280243020763253,0.009337034388850175,-0.003299092455628597
1.5090826786756772,0.016549556574789192,0.0026844360123883908,0.001094148915450876,0.009965400947977834,-0.0037608596172591722
1.5091541958306038,0.01749078347259404,0.002951092411829922,0.001728275756159572,0.008988984691063238,-0.002739580823446872
1.5092257129855304,0.02026609634215111,0.0037071506245901,0.002622344403247119,0.005737451093816317,-0.00041086702747325916
1.509297230140457,0.024225306810832306,0.007475363947925919,0.005090188490138515,0.0031009516342562354,0.0030119545127964965
1.5093687472953836,0.028505184243561566,0.015828820726075034,0.010396256019729185,0.0031722774791649545,0.007650375070243689
1.5094402644503102,0.032363241212534366,0.027153362611790702,0.017181792517199104,0.0068490072435926815,0.011883437652994037
1.5095117816052368,0.035420479974014,0.0394831450802818,0.023785576506019895,0.012876263969931308,0.014844685504379812
1.5095832987601634,0.03772295943106026,0.04868129599789763,0.028541189697550762,0.01817037743722387,0.016527511711554244
1.50965481591509,0.039632532833370364,0.05164428404760212,0.030196375009199177,0.022284730973292616,0.016037828003636765
1.5097263330700166,0.041605230836871475,0.04684008200438347,0.028415936049993602,0.022144395592546058,0.014534767225356179
1.5097978502249432,0.04392716574129624,0.03954222185132665,0.026087173799228647,0.017898556778973337,0.014493518309654034
1.5098693673798698,0.04649881119729661,0.0355076413818956,0.025125670272120693,0.013983420516901957,0.015500906000314743
1.5099408845347964,0.048782229516577,0.03599976555993318,0.025898717163670308,0.014035884445259161,0.016157196197707294
1.510012401689723,0.04998265464348263,0.03931981223890335,0.027970420605425636,0.01647757581280644,0.01682625145310394
1.5100839188446495,0.04939582665258717,0.039966168556038656,0.02744804663090382,0.01986384687550628,0.01476191289145417
1.5101554359995761,0.046726633743720845,0.03722812985533445,0.024915387052692306,0.022418106332506932,0.011319583725244437
1.5102269531545027,0.04221494386441091,0.03403454080541978,0.022036546886626967,0.02380610377124418,0.00812460589910011
1.5102984703094293,0.0365554045951188,0.032071516106631906,0.019143160662124768,0.025815026553178046,0.004622488655130935
1.510369987464356,0.030705701566729478,0.03161740268658151,0.01712115674686206,0.027835733638344465,0.0018825581365000256
1.5104415046192825,0.025671938650474672,0.03227732640147854,0.016152578444133103,0.029678305727271957,0.00015524390199621508
1.510513021774209,0.02230380117340663,0.033587694601077356,0.01595046449902194,0.032245650842675035,-0.0012405477408475554
1.5105845389291357,0.02110478427342222,0.03190635078668467,0.014310671393420193,0.03221221997981849,-0.002669762717593324
1.5106560560840623,0.022087028251984653,0.026490405492613063,0.011927341615445858,0.02662981059988999,-0.0021218551763314613
1.5107275732389889,0.02474352062355467,0.018068518928347405,0.008315005741078718,0.018236525695795706,-0.0013236403247005551
1.5107990903939155,0.028206425428266402,0.011663305147553385,0.006455089330600415,0.009523596145221868,0.0011692056473446748
1.510870607548842,0.03156791810921427,0.008673894786230887,0.006924877381908108,0.003130560662287946,0.004613419179438418
1.5109421247037687,0.034217944840168574,0.009012376360522057,0.0085255112555674,0.0004273073480184472,0.007304209721736878
1.5110136418586952,0.036025983655989566,0.012455244357928977,0.01161661354179527,-0.00031432979537671785,0.010377545415442753
1.5110851590136218,0.03729532439305516,0.014407034679765576,0.013294021431409462,0.0005852077998615618,0.011428232402192927
1.5111566761685484,0.03854470610167679,0.012897841098391743,0.013163190298163863,0.0006083363233425629,0.01130206611132708
1.511228193323475,0.04022460916569971,0.011348066471542259,0.013651672900344249,-0.0018287382396488228,0.012887255811992073
1.5112997104784016,0.04246467581659284,0.012245325671152678,0.01442102957265151,-0.0033955974618237353,0.014307309079255386
1.5113712276333282,0.04493429586497486,0.017452307013105108,0.016921655013448497,-0.0020882142133663247,0.01588956372461037
1.5114427447882548,0.04689231770787431,0.023645113020955764,0.019784155718843215,0.0007397785004310045,0.017070145981230227
1.5115142619431814,0.047454803887083834,0.026531404819287573,0.02007376929597759,0.004923485621353045,0.015342879452298988
