freq,gls,usurper,pdc_unbiased,shape_periodogram,shift_periodogram
1.5,0.031605246424144244,0.03059013350330156,0.022003088454338578,0.03748552724435976,-0.01645778968984779
1.5000715171549266,0.028595336453250155,0.023875011183216152,0.01679692217781675,0.03019130410934292,-0.013814859145721009
1.5001430343098532,0.024797888546036324,0.018121240345168693,0.011419584810450916,0.02504650317748322,-0.012986044576084467
1.5002145514647798,0.020789812632417533,0.016322919854344805,0.008796510756732951,0.021516444368182577,-0.011770218411065559
1.5002860686197064,0.017345459787468324,0.018846766118428504,0.009479677332466734,0.020726572602960548,-0.0107275775308513
1.500357585774633,0.015271945925960987,0.023281963356133938,0.011714688134418397,0.02154098874652517,-0.010019050539165724
1.5004291029295596,0.015165201318802408,0.028204904549141315,0.01415548030345099,0.025173837029188136,-0.011427028912579284
1.5005006200844861,0.01716595655706576,0.03278287516324995,0.016954003693511403,0.02788200917324548,-0.011882507468009323
1.5005721372394127,0.02086274426290797,0.03623173112992916,0.019187221778694714,0.0309815530050281,-0.012992464162367746
1.5006436543943393,0.02544081002802935,0.03937653131102423,0.02137618975240262,0.034695155966942504,-0.01461800680029294
1.500715171549266,0.03000884122307953,0.04282087214724918,0.02421994995090846,0.03755752799153059,-0.015168709586966008
1.5007866887041925,0.03391266896856934,0.0467378889255668,0.02666061786266369,0.04393303269720724,-0.01876082767943674
1.500858205859119,0.0368882624749449,0.05105699900515776,0.029368029530911475,0.0513097103257166,-0.02299007161253539
1.5009297230140457,0.0390355018056212,0.05581083732718629,0.03287087235373193,0.059861304043420174,-0.027675066385857906
1.5010012401689723,0.04067274274449097,0.05748113953798944,0.0349635290275476,0.06579138645313871,-0.031130937416876715
1.5010727573238989,0.04213722341942038,0.05778610963795415,0.036798409825528795,0.06918523580069176,-0.03272219289553198
1.5011442744788255,0.043587855733941964,0.05787612333856866,0.03793328428010061,0.07259936308017423,-0.03475624565394707
1.501215791633752,0.044880915226329254,0.05768978386972114,0.03824814004694497,0.07597016166286494,-0.03725560286912547
1.5012873087886787,0.045592465454410994,0.05865899749928821,0.03896037083855539,0.07969687119538771,-0.039798459796765044
1.5013588259436053,0.04519857422015515,0.05778247443508683,0.038338310339186395,0.07968897544394307,-0.04017066980655619
1.5014303430985318,0.04331902735671992,0.05394391136378811,0.03525172960142179,0.07779137257188229,-0.04053260568966398
1.5015018602534584,0.03989064242203222,0.046116725418737535,0.029380562295107576,0.07251357536946294,-0.039887991459921786
1.501573377408385,0.035207008956161204,0.03705258742126252,0.02275340008029923,0.06610848915944982,-0.03880301293681639
1.5016448945633116,0.029854908046904056,0.02895317223332551,0.01716592382272006,0.05802139502120929,-0.03574739648056167
1.5017164117182382,0.02460404968418353,0.02235926852683601,0.01272729457488559,0.049834545978098915,-0.03191871309760051
1.5017879288731648,0.020274028275387688,0.01858730269902478,0.010756457121333964,0.042672196982782906,-0.027411986235187043
1.5018594460280914,0.01756978332877583,0.01679358674569233,0.009814843547662735,0.03803685415686284,-0.024294090807741142
1.501930963183018,0.016887968997375314,0.016590408485526287,0.009773529530205848,0.0339046365780436,-0.02103119892881231
1.5020024803379446,0.018154766828972088,0.016177713631498034,0.009545857603491862,0.031119968833937823,-0.01895394468849595
1.5020739974928712,0.020807783027131654,0.017141090799408933,0.00997328939183271,0.02968909681399334,-0.017556364621241494
1.5021455146477978,0.023992628107040868,0.01994370425143527,0.01144212206274167,0.030261644379704855,-0.017120600625883158
1.5022170318027244,0.026898257150269028,0.024558786014490394,0.014028974316248104,0.03401309279254717,-0.01853540064427705
1.502288548957651,0.029041972437567,0.029156609799743053,0.016679671046279716,0.03867429551078332,-0.020635804476989563
1.5023600661125776,0.03036170293294545,0.03387221948870427,0.019990738498687276,0.04356256434477957,-0.022516778790614183
1.5024315832675041,0.031115659296329378,0.034294227035495006,0.02077896981185265,0.046372640493745655,-0.024275521625634684
1.5025031004224307,0.031680428730509906,0.03142053113641948,0.019519808615351825,0.04652324469419135,-0.0251598998420548
1.5025746175773573,0.032340192227813126,0.027983424975964854,0.018649627815208736,0.0444515429407732,-0.02403867895135047
1.502646134732284,0.033131945974426154,0.025640670455442164,0.017871043624403338,0.042124780267125315,-0.022659017478027337
1.5027176518872105,0.033797027787609374,0.025329885965681552,0.01799769758677829,0.041706975012399464,-0.022249559495641905
1.502789169042137,0.033871437590867574,0.024130982480658748,0.017486670760106647,0.040124947707672456,-0.021300525744397177
1.5028606861970637,0.03289397904446062,0.020834135153114983,0.015274482970942199,0.03718129686590768,-0.020300508914222724
1.5029322033519903,0.030638444170610023,0.017053241371124052,0.012011118949132128,0.034741696566476035,-0.020339592040415466
1.5030037205069169,0.02725242384486997,0.014924879710461837,0.009441040885373031,0.033372088753983564,-0.020809216764452774
1.5030752376618435,0.023245599290448483,0.016107735237055103,0.008606550278537486,0.03329698388692935,-0.021255715092913702
1.50314675481677,0.019358366958489085,0.019212344953678996,0.008953985446160287,0.03370361311164998,-0.02136845412739449
1.5032182719716967,0.01638051368297583,0.0233005395471934,0.010426555451109277,0.03419858026572563,-0.020868879220182417
1.5032897891266233,0.01497089818834955,0.02725844970929314,0.012350463029946239,0.03466180358586737,-0.020070117442795327
1.5033613062815498,0.015499460648454992,0.03026005773728237,0.013981854206916533,0.03444486019254495,-0.018907535658461115
1.5034328234364764,0.01793079665045714,0.030525056912281426,0.01416864675154985,0.03265993482299649,-0.01737402940975411
1.503504340591403,0.021792554285279486,0.03002388166657541,0.013806564009865633,0.031086768865261214,-0.016342201960106398
1.5035758577463296,0.026283745634476982,0.0328641088537321,0.015751292513310384,0.032235247795824803,-0.01607561279978704
1.5036473749012562,0.03053094650102892,0.03826298432524177,0.019003856556851165,0.0376178481960436,-0.018384181260309048
1.5037188920561828,0.03389868374654469,0.04529541551795168,0.02304438568669538,0.04687202648917762,-0.023297534325352306
1.5037904092111094,0.03619247413189749,0.05361475422779233,0.02836367437687625,0.05640882154049,-0.027663022810692328
1.503861926366036,0.03764566473947448,0.05978680021583179,0.03246316988130233,0.06522121423034677,-0.032196602412588704
1.5039334435209626,0.038716510453014726,0.06259372285080476,0.03408384953452373,0.07216596528119039,-0.03675180480789079
1.5040049606758892,0.0398171228344044,0.06404483418424105,0.03557140334761458,0.07695153566464108,-0.03966754147946438
1.5040764778308158,0.041095739566223526,0.06727239724495913,0.037525773851031737,0.08132575056909133,-0.041972575598916255
1.5041479949857424,0.04234364882306056,0.07044907858380983,0.038887791087543686,0.08582297437874827,-0.044737909731960505
1.504219512140669,0.043051695709888996,0.07179156203673445,0.03921573232033744,0.0893181389233889,-0.04733294844078314
1.5042910292955955,0.04260283060723393,0.06710333851598689,0.036347749549566495,0.08813544924165947,-0.04813172981169727
1.5043625464505221,0.04053910287302065,0.05649237415368106,0.030363706364527798,0.08193960260073904,-0.04681706193481595
1.5044340636054487,0.03679439695722014,0.043334748528016664,0.02344001313236871,0.07174220093438981,-0.042880190241021326
1.5045055807603753,0.03178229372791513,0.031842199631862536,0.01698689592080203,0.062350074085089496,-0.039305956950445003
1.504577097915302,0.026296542555493532,0.024125579320424334,0.012446934359831944,0.054094872356937114,-0.03548188419930178
1.5046486150702285,0.021278189004975218,0.021494238523389036,0.011187449324425095,0.04770001125636719,-0.031153112982656418
1.504720132225155,0.017555651134353225,0.020912695751797255,0.011283372248322305,0.042670837624842424,-0.02709125809242765
1.5047916493800817,0.01564621916050789,0.019998334740678587,0.010644076718018416,0.038766769443251185,-0.02437188922399258
1.5048631665350083,0.015656872938766518,0.01804897049622631,0.009217644422453899,0.03441906421562583,-0.021777725376835814
1.5049346836899349,0.017286051262519187,0.016796706738152527,0.008230188330603324,0.03127404971460977,-0.01987470010523268
1.5050062008448615,0.019918755698584013,0.016937124774736686,0.007905738300784866,0.02886201358291997,-0.01815282665516765
1.505077717999788,0.022804926807040774,0.01936579604028445,0.009361654152707073,0.027702406516186107,-0.01634716284819095
1.5051492351547147,0.025289013466251117,0.024200300104903087,0.011726326065843064,0.03228653292967734,-0.01855902590613759
1.5052207523096413,0.027015644551186973,0.028851815455485978,0.014241445734319206,0.03672979922524344,-0.02056815252770685
1.5052922694645678,0.028012475009877,0.031034405981887715,0.015961322224474977,0.03842892367780371,-0.020876528462040928
1.5053637866194944,0.028596359216805502,0.027670370015554765,0.014919408532213189,0.036045142763717654,-0.01961189924858326
1.505435303774421,0.02915112616185344,0.021474668360901186,0.013309044659559194,0.031246863592014982,-0.01677149021371603
1.5055068209293476,0.029900153036102176,0.01733861958516268,0.012321918805932341,0.027570455669717445,-0.014445998565419284
1.5055783380842742,0.030782681811496897,0.016878576621341828,0.01250866989698158,0.02660903806430125,-0.013567953479415612
1.5056498552392008,0.03146961942071043,0.019192277473937494,0.013496870470295333,0.029465074591544713,-0.015240063618954396
1.5057213723941274,0.03149161794629547,0.02021017549137018,0.013134126432083434,0.03271364601715238,-0.01804456900043693
1.505792889549054,0.030427310908792447,0.01951691485608468,0.011855838401314541,0.03459676499407373,-0.02031849504365823
1.5058644067039806,0.02809465201809536,0.017140393784706307,0.009674998552531539,0.034352666844478054,-0.021447437386875903
1.5059359238589072,0.024683284499830333,0.01317883843630995,0.006168765257997816,0.03274578280668782,-0.022295961074475894
1.5060074410138338,0.020766913938386953,0.010774327923590057,0.003987129865862614,0.030928285075742266,-0.022173387302523686
1.5060789581687604,0.017165658691511196,0.01184043474732941,0.004506773893992003,0.029311503487262715,-0.020572174353092818
1.506150475323687,0.014695536880755058,0.014280278422961517,0.005603202541494299,0.028579816020721314,-0.019325130997127567
1.5062219924786135,0.013907828977730352,0.01638946154071746,0.006474304461408025,0.027382930991374836,-0.01784472623358583
1.5062935096335401,0.014929925183180436,0.01686034184815264,0.007024475314287043,0.024027877926065637,-0.014842577871386731
1.5063650267884667,0.01746107614733839,0.0160852404355423,0.006681651925523114,0.0217504286910299,-0.013239385107711176
1.5064365439433933,0.020900617081537138,0.018020878623068833,0.008103902228742074,0.021313708675482417,-0.01202921813450348
1.50650806109832,0.024545654709518663,0.022487952195401097,0.01119024144466396,0.022016582833209664,-0.010715511550939825
1.5065795782532465,0.027795889555703463,0.029697938212372526,0.015188716512202768,0.028455125527902858,-0.013409887185181636
1.506651095408173,0.030315638754338018,0.038889760687970155,0.02020329875354711,0.036896790602467415,-0.017082135069086155
1.5067226125630997,0.03210575674634778,0.047872075338095815,0.02516307524326057,0.045559534370381585,-0.02096559720110107
1.5067941297180263,0.03344435853615213,0.05307151873484479,0.02809340030703321,0.05189043392731323,-0.024227263767270104
1.5068656468729529,0.03469846610783441,0.05359577561954524,0.028836225363534616,0.054025455642015434,-0.025476769647118595
1.5069371640278795,0.03608805388876267,0.0528139515124154,0.029158238083419115,0.05415213444789629,-0.025382007589210238
1.507008681182806,0.03753193323000867,0.05280486781740279,0.029645090979329304,0.055551259738714484,-0.026200936310365627
1.5070801983377327,0.038657419159163646,0.05318144678385592,0.03000532215028713,0.05689015850963617,-0.027048942158161726
1.5071517154926592,0.038950459296790155,0.05209185999546937,0.029635790998015537,0.0563959606511295,-0.026879701691049588
1.5072232326475858,0.03795818995272562,0.046478761818667017,0.026170643808596194,0.05317858326295544,-0.026421668428336945
1.5072947498025124,0.035465807062779846,0.03938934693283885,0.02167628316777021,0.048361252129662934,-0.025314231663761802
1.507366266957439,0.03160750390290827,0.03348327847035378,0.01779655130545853,0.04386113778867738,-0.024086478365811032
1.5074377841123656,0.02689036393457737,0.028535644067690494,0.014369878001425985,0.04057550655335501,-0.023550771443572094
1.5075093012672922,0.022110982309926926,0.024383802439663708,0.012274203971852665,0.036583022287750726,-0.021645101389007933
1.5075808184222188,0.018158898886019043,0.021738849251682568,0.010838451012952628,0.034384161973343534,-0.020766631272309734
1.5076523355771454,0.015750547010193554,0.02001773630630332,0.009985828883372298,0.03191426555302589,-0.01931889993872851
1.507723852732072,0.015198153002695225,0.016822027652143762,0.008495434228764531,0.026889301710190622,-0.016225965641388722
1.5077953698869986,0.01632710132796861,0.012617714415598993,0.006411917338543193,0.021107210577741786,-0.01289152032740253
1.5078668870419252,0.01858159605132472,0.00959714782948606,0.00521914285473996,0.01578754366531774,-0.009385136446780493
1.5079384041968518,0.02125563485920751,0.008002291991025917,0.005152249488431391,0.010624283582898814,-0.00532055383146817
1.5080099213517784,0.023737553869918368,0.008094100665417995,0.0057615299185219465,0.00848578368929609,-0.003250750545579363
1.508081438506705,0.025680396681245936,0.010120032679813342,0.007453924502377228,0.008975596621586446,-0.002613375282015926
1.5081529556616315,0.027059576075294776,0.011868818530331695,0.008842952470356694,0.010100161473203957,-0.0026646626934848233
1.5082244728165581,0.028112039179855254,0.01123764196493165,0.008942296206187028,0.009931624081601285,-0.0024703944869977684
1.5082959899714847,0.029172386947160022,0.009350720346857399,0.008780907310022895,0.009159915176902731,-0.001954791542882603
1.5083675071264113,0.03045818310099522,0.009611605999502051,0.010026451111954632,0.009234380260610981,-0.0012582544100161281
1.508439024281338,0.03190386747651281,0.013830014325776905,0.012747040105629182,0.012452436265637775,-0.002165853942942785
1.5085105414362645,0.03314377564440417,0.019877506576054135,0.01600259242207933,0.018084975092806065,-0.004668505384488112
1.508582058591191,0.03366149064758627,0.024735360164771993,0.0186299276568245,0.02364479499972127,-0.007494974022075845
1.5086535757461177,0.03301661123576188,0.02407311475982662,0.017302793300784304,0.025168283349848178,-0.00951229425006692
1.5087250929010443,0.031031763736761156,0.019578326541066168,0.013978643770450466,0.023523980395981737,-0.010222172377893315
1.5087966100559709,0.02787943173947238,0.013853639035192817,0.009773118861112214,0.020007460771598252,-0.009977678056448395
1.5088681272108975,0.024071143965329337,0.008628239500726657,0.005405399448016361,0.01743252859028865,-0.010580111069966586
1.508939644365824,0.020368522042175177,0.004714556149598189,0.002619426200917792,0.014364609244778791,-0.009830884652291233
1.5090111615207507,0.017622660517009992,0.002923228347709881,0.001280243020763253,0.013483746378853106,-0.00994291849409461
1.5090826786756772,0.016549556574789192,0.002420290658926809,0.001094148915450876,0.01334627330281466,-0.009946507200124365
1.5091541958306038,0.01749078347259404,0.0025640364118054873,0.001728275756159572,0.011891295170407452,-0.008405053708093347
1.5092257129855304,0.02026609634215111,0.0032756772343142237,0.002622344403247119,0.010042839763314715,-0.006393092377132341
1.509297230140457,0.024225306810832306,0.006964877980622525,0.005090188490138515,0.010331561380825213,-0.005125480652544742
1.5093687472953836,0.028505184243561566,0.015382543349274252,0.010396256019729185,0.013417334683153748,-0.004359496382275114
1.5094402644503102,0.032363241212534366,0.026799896177942612,0.017181792517199104,0.019680679818540096,-0.005221612459982427
1.5095117816052368,0.035420479974014,0.03907612568436374,0.023785576506019895,0.028168505016795024,-0.00796241351115599
1.5095832987601634,0.03772295943106026,0.04806891134846307,0.028541189697550762,0.0342356318461837,-0.00990004133730971
1.50965481591509,0.039632532833370364,0.050731345521310804,0.030196375009199177,0.03662601557494979,-0.010796201289573898
1.5097263330700166,0.041605230836871475,0.04623383839756872,0.028415936049993602,0.03519739817042797,-0.010741411381893337
1.5097978502249432,0.04392716574129624,0.039372483203044185,0.026087173799228647,0.029396331383894487,-0.0075410680304209225
1.5098693673798698,0.04649881119729661,0.03570274478107952,0.025125670272120693,0.024469511606049082,-0.004206444710519338
1.5099408845347964,0.048782229516577,0.03635831074778669,0.025898717163670308,0.02389887248012023,-0.0032830749762320127
1.510012401689723,0.04998265464348263,0.03961043865284034,0.027970420605425636,0.0255093858191417,-0.003305353784180387
1.5100839188446495,0.04939582665258717,0.04011169175207226,0.02744804663090382,0.026082316611184743,-0.004078375487403616
1.5101554359995761,0.046726633743720845,0.037438718111265576,0.024915387052692306,0.024976216642734854,-0.004737150142984064
1.5102269531545027,0.04221494386441091,0.03429016205332113,0.022036546886626967,0.023067265746319426,-0.004967322111069351
1.5102984703094293,0.0365554045951188,0.032235003279097056,0.019143160662124768,0.023098969027579838,-0.006749302014773574
1.510369987464356,0.030705701566729478,0.031831864347665356,0.01712115674686206,0.02415880191664962,-0.008819674379940075
1.5104415046192825,0.025671938650474672,0.03255627728084216,0.016152578444133103,0.02577206809189681,-0.010690712272193745
1.510513021774209,0.02230380117340663,0.03372037695845721,0.01595046449902194,0.027625239639651203,-0.01228740861431395
1.5105845389291357,0.02110478427342222,0.03167254167443121,0.014310671393420193,0.026437289702031814,-0.012337757983395573
1.5106560560840623,0.022087028251984653,0.026045490248977256,0.011927341615445858,0.020628916300867467,-0.009164691121785295
1.5107275732389889,0.02474352062355467,0.017600331866199186,0.008315005741078718,0.013202294805712072,-0.005451345391198753
1.5107990903939155,0.028206425428266402,0.011340443917172278,0.006455089330600415,0.006465068931388215,-0.001223497884676706
1.510870607548842,0.03156791810921427,0.00864287996566718,0.006924877381908108,0.0023104390923974786,0.0023643458480217573
1.5109421247037687,0.034217944840168574,0.00916366917132768,0.0085255112555674,0.0024637897717810523,0.0032135412746084804
1.5110136418586952,0.036025983655989566,0.012610466324015353,0.01161661354179527,0.004975209880344691,0.0030925728910022082
1.5110851590136218,0.03729532439305516,0.014322623854117318,0.013294021431409462,0.007411545061016515,0.0021736280383121173
1.5111566761685484,0.03854470610167679,0.01299516663178187,0.013163190298163863,0.009538047384610868,0.0004036980737205227
1.511228193323475,0.04022460916569971,0.011704468593641505,0.013651672900344249,0.009314288918347046,0.000878016304718041
1.5112997104784016,0.04246467581659284,0.012694907909443453,0.01442102957265151,0.010169254685004599,0.0006652090772440323
1.5113712276333282,0.04493429586497486,0.017776619783949135,0.016921655013448497,0.014148676914106177,-0.0009808782174004116
1.5114427447882548,0.04689231770787431,0.023773734763128954,0.019784155718843215,0.019126629342055616,-0.003201255193838038
1.5115142619431814,0.047454803887083834,0.026361235345845405,0.02007376929597759,0.02212950826210904,-0.0054133304810290266
