freq,gls,usurper,pdc_unbiased,shape_periodogram,shift_periodogram
1.5,0.031605246424144244,0.030150791750031603,0.022003088454338578,0.02219457188770209,0.009339784135580793
1.5000715171549266,0.028595336453250155,0.0230176784290226,0.01679692217781675,0.016892485677542684,0.007151049371328989
1.5001430343098532,0.024797888546036324,0.016966956487023125,0.011419584810450916,0.012742867615602196,0.0042820841105529975
1.5002145514647798,0.020789812632417533,0.014921880096232262,0.008796510756732951,0.00920565838598635,0.003578753216438279
1.5002860686197064,0.017345459787468324,0.01728428903975096,0.009479677332466734,0.00771533803969636,0.004870738620469406
1.500357585774633,0.015271945925960987,0.021630641211880325,0.011714688134418397,0.008504616110455271,0.006492856038289791
1.5004291029295596,0.015165201318802408,0.026760474724446114,0.01415548030345099,0.011670071190312251,0.007205475795782093
1.5005006200844861,0.01716595655706576,0.031547160674437025,0.016954003693511403,0.014147388078576259,0.008552582813487801
1.5005721372394127,0.02086274426290797,0.035311227118459076,0.019187221778694714,0.016758082264292706,0.009336553831982439
1.5006436543943393,0.02544081002802935,0.038746692169421025,0.02137618975240262,0.019728272817398144,0.009916328526558823
1.500715171549266,0.03000884122307953,0.042652285340889384,0.02421994995090846,0.021901727049276884,0.011444713255612547
1.5007866887041925,0.03391266896856934,0.04728991955540221,0.02666061786266369,0.02699937817803323,0.011271493967647643
1.500858205859119,0.0368882624749449,0.05245447028568937,0.029368029530911475,0.032907538434561304,0.010963664943507105
1.5009297230140457,0.0390355018056212,0.05801991435810379,0.03287087235373193,0.03989492884042768,0.010868460938840613
1.5010012401689723,0.04067274274449097,0.060335369812755016,0.0349635290275476,0.04485818815939746,0.010449648030527513
1.5010727573238989,0.04213722341942038,0.06089008420643367,0.036798409825528795,0.04758558209630039,0.010829733984290785
1.5011442744788255,0.043587855733941964,0.06119036423059732,0.03793328428010061,0.05025162769546028,0.010614876215924215
1.501215791633752,0.044880915226329254,0.06133701268774352,0.03824814004694497,0.053046907539987524,0.00960999970410138
1.5012873087886787,0.045592465454410994,0.0626430998543185,0.03896037083855539,0.055463578002571796,0.009133214780576982
1.5013588259436053,0.04519857422015515,0.062008682278518676,0.038338310339186395,0.05523414457475377,0.008684333096559683
1.5014303430985318,0.04331902735671992,0.05818937797750651,0.03525172960142179,0.055705502045268696,0.005716958336214806
1.5015018602534584,0.03989064242203222,0.05000763007400943,0.029380562295107576,0.053537617339650345,0.001485324632214524
1.501573377408385,0.035207008956161204,0.040432509301868515,0.02275340008029923,0.05072101517122048,-0.0031166429034585074
1.5016448945633116,0.029854908046904056,0.03170899375951915,0.01716592382272006,0.04512710840855636,-0.005510632794379858
1.5017164117182382,0.02460404968418353,0.02437042142884846,0.01272729457488559,0.038448214215717175,-0.006381397981331598
1.5017879288731648,0.020274028275387688,0.01989102151012973,0.010756457121333964,0.03291689078829439,-0.00558676025777758
1.5018594460280914,0.01756978332877583,0.017544593581166897,0.009814843547662735,0.030097681628414703,-0.005126009475022691
1.501930963183018,0.016887968997375314,0.016792247479108548,0.009773529530205848,0.02776350928271407,-0.004088665940844551
1.5020024803379446,0.018154766828972088,0.015796963271235986,0.009545857603491862,0.02567412320999175,-0.003329642849019262
1.5020739974928712,0.020807783027131654,0.016279746588404982,0.00997328939183271,0.024731364960392185,-0.002516200077997025
1.5021455146477978,0.023992628107040868,0.018817642423417612,0.01144212206274167,0.02468347873965819,-0.001189222181810242
1.5022170318027244,0.026898257150269028,0.023479368454914693,0.014028974316248104,0.02682034187124194,0.00012629402776165386
1.502288548957651,0.029041972437567,0.028361875191786467,0.016679671046279716,0.029318802717337576,0.001332624161743046
1.5023600661125776,0.03036170293294545,0.03353963349320879,0.019990738498687276,0.03237333694824005,0.002870716240580799
1.5024315832675041,0.031115659296329378,0.03430356121594972,0.02077896981185265,0.03353254721370371,0.003038269502916797
1.5025031004224307,0.031680428730509906,0.03147481616256561,0.019519808615351825,0.03291248979089081,0.0022040594256598376
1.5025746175773573,0.032340192227813126,0.027757403837593404,0.018649627815208736,0.03015653541532693,0.0026982101337961716
1.502646134732284,0.033131945974426154,0.025250341224218716,0.017871043624403338,0.026821106679573905,0.003540240935506505
1.5027176518872105,0.033797027787609374,0.02502494437541313,0.01799769758677829,0.024663709480140232,0.004644912623896183
1.502789169042137,0.033871437590867574,0.023907403886790767,0.017486670760106647,0.02129137816699175,0.0057414467162829426
1.5028606861970637,0.03289397904446062,0.0205856584324228,0.015274482970942199,0.018836554873150745,0.0049046228330819445
1.5029322033519903,0.030638444170610023,0.016567806849743422,0.012011118949132128,0.01717350280017268,0.002770228324228599
1.5030037205069169,0.02725242384486997,0.01419130844226424,0.009441040885373031,0.016492196851810328,0.000800581323406385
1.5030752376618435,0.023245599290448483,0.015281518048795439,0.008606550278537486,0.01621197950677287,0.00018822585270668413
1.50314675481677,0.019358366958489085,0.018392728526723044,0.008953985446160287,0.01630398669589525,0.00045451430161919456
1.5032182719716967,0.01638051368297583,0.022574386645813387,0.010426555451109277,0.016572821382285417,0.0016388953474196868
1.5032897891266233,0.01497089818834955,0.026651569461866767,0.012350463029946239,0.017752585516855764,0.0028053887112703345
1.5033613062815498,0.015499460648454992,0.02985260883545496,0.013981854206916533,0.018517857692113032,0.0039027657051552015
1.5034328234364764,0.01793079665045714,0.03015319760705392,0.01416864675154985,0.017262885691073638,0.0046457647600812715
1.503504340591403,0.021792554285279486,0.029551036580952622,0.013806564009865633,0.015905510576298378,0.004948223693654066
1.5035758577463296,0.026283745634476982,0.032321074056278,0.015751292513310384,0.017321375579862897,0.006024894408882619
1.5036473749012562,0.03053094650102892,0.03792655540218463,0.019003856556851165,0.02270287714907135,0.006440661259126597
1.5037188920561828,0.03389868374654469,0.04544809327125146,0.02304438568669538,0.030273768822837544,0.006551077591809353
1.5037904092111094,0.03619247413189749,0.05457508668567987,0.02836367437687625,0.03774243113781739,0.007847515614986198
1.503861926366036,0.03764566473947448,0.061583176666484093,0.03246316988130233,0.044015999489683835,0.008610860662255552
1.5039334435209626,0.038716510453014726,0.06508875284550296,0.03408384953452373,0.0500280194116832,0.007288827946702708
1.5040049606758892,0.0398171228344044,0.06693799450342608,0.03557140334761458,0.053890878405650475,0.006836776029321617
1.5040764778308158,0.041095739566223526,0.07061407718658538,0.037525773851031737,0.057683771591678014,0.0068331107800457935
1.5041479949857424,0.04234364882306056,0.07432281803597174,0.038887791087543686,0.06165686237894302,0.006218791071906201
1.504219512140669,0.043051695709888996,0.07608010311467224,0.03921573232033744,0.0645259986606956,0.005190392149362334
1.5042910292955955,0.04260283060723393,0.07169410142219847,0.036347749549566495,0.06553478333098045,0.00216817756568126
1.5043625464505221,0.04053910287302065,0.06083352422024808,0.030363706364527798,0.0631381732964628,-0.0020613291778602653
1.5044340636054487,0.03679439695722014,0.047046449738845926,0.02344001313236871,0.05653975845646898,-0.0051863016059680534
1.5045055807603753,0.03178229372791513,0.03491067037465643,0.01698689592080203,0.05009816492648576,-0.007959735097710915
1.504577097915302,0.026296542555493532,0.02655444317342162,0.012446934359831944,0.0443156975515348,-0.009332638901518062
1.5046486150702285,0.021278189004975218,0.023361311054820005,0.011187449324425095,0.03903175488337182,-0.008018678725256823
1.504720132225155,0.017555651134353225,0.02225987857699659,0.011283372248322305,0.035369522093744214,-0.00624741145134082
1.5047916493800817,0.01564621916050789,0.020929614312907838,0.010644076718018416,0.03306844024968248,-0.005756371518910918
1.5048631665350083,0.015656872938766518,0.01840922082203858,0.009217644422453899,0.03010721603302882,-0.005661003318534104
1.5049346836899349,0.017286051262519187,0.01661589105030761,0.008230188330603324,0.027060602346367837,-0.005136383997877419
1.5050062008448615,0.019918755698584013,0.016231386634791335,0.007905738300784866,0.024642823255771364,-0.004312214374937283
1.505077717999788,0.022804926807040774,0.01822972905622534,0.009361654152707073,0.023088035277371907,-0.002303606227373071
1.5051492351547147,0.025289013466251117,0.023074909118357058,0.011726326065843064,0.026444286177429787,-0.001746715376816049
1.5052207523096413,0.027015644551186973,0.02801049830735109,0.014241445734319206,0.029370374489338238,-0.0008579705716512256
1.5052922694645678,0.028012475009877,0.03049825389461962,0.015961322224474977,0.02948634915206189,0.0006171240975285361
1.5053637866194944,0.028596359216805502,0.027199242189959116,0.014919408532213189,0.02620547563946417,0.0012003543440124037
1.505435303774421,0.02915112616185344,0.020744886947527876,0.013309044659559194,0.02034751077875618,0.0024636726259127423
1.5055068209293476,0.029900153036102176,0.016365065991023782,0.012321918805932341,0.015850859023258612,0.0036545103831883965
1.5055783380842742,0.030782681811496897,0.015921597554072676,0.01250866989698158,0.013659836341261025,0.00482784282310314
1.5056498552392008,0.03146961942071043,0.018471335359882126,0.013496870470295333,0.014061732119782264,0.0055208581491817624
1.5057213723941274,0.03149161794629547,0.019818863332331363,0.013134126432083434,0.015492532131055163,0.004540764650386429
1.505792889549054,0.030427310908792447,0.019258004806449236,0.011855838401314541,0.018127359168637478,0.002193653970272759
1.5058644067039806,0.02809465201809536,0.016959265032073245,0.009674998552531539,0.019113137312357992,-0.00019696635239676395
1.5059359238589072,0.024683284499830333,0.01309517495118043,0.006168765257997816,0.01874488731258966,-0.003141991589866655
1.5060074410138338,0.020766913938386953,0.010682026458118329,0.003987129865862614,0.017625183743278393,-0.004564626330179778
1.5060789581687604,0.017165658691511196,0.011693556784881933,0.004506773893992003,0.016058948270641114,-0.003382719363084984
1.506150475323687,0.014695536880755058,0.01413608016462474,0.005603202541494299,0.01612195376409733,-0.0024379103023086826
1.5062219924786135,0.013907828977730352,0.016268904637570258,0.006474304461408025,0.016120846469005416,-0.0016637185538354547
1.5062935096335401,0.014929925183180436,0.0166683395303037,0.007024475314287043,0.01436023933200636,-0.00036537308737207296
1.5063650267884667,0.01746107614733839,0.015725707803837762,0.006681651925523114,0.013806809575314454,-0.00041534225284272725
1.5064365439433933,0.020900617081537138,0.01750541940683753,0.008103902228742074,0.01422741963877365,0.0006544260889511753
1.50650806109832,0.024545654709518663,0.021989276534782953,0.01119024144466396,0.014594800219869555,0.003226830517977764
1.5065795782532465,0.027795889555703463,0.029607400342559466,0.015188716512202768,0.01897043408158481,0.004766865870987305
1.506651095408173,0.030315638754338018,0.03939035502253396,0.02020329875354711,0.02462198361475931,0.006624262011928862
1.5067226125630997,0.03210575674634778,0.049107614685558944,0.02516307524326057,0.03093427772838445,0.008131168914073112
1.5067941297180263,0.03344435853615213,0.05476982344700355,0.02809340030703321,0.03592276812701044,0.008443758381792692
1.5068656468729529,0.03469846610783441,0.05544595614497896,0.028836225363534616,0.03762242395402664,0.008323097024091505
1.5069371640278795,0.03608805388876267,0.05466278480531987,0.029158238083419115,0.03801851202225418,0.00842746357075456
1.507008681182806,0.03753193323000867,0.05475121901808324,0.029645090979329304,0.03968876412946336,0.00809263892016162
1.5070801983377327,0.038657419159163646,0.05522836574352457,0.03000532215028713,0.041009604308487844,0.007805809324277571
1.5071517154926592,0.038950459296790155,0.054258963114557614,0.029635790998015537,0.04034915225496296,0.007780692649291326
1.5072232326475858,0.03795818995272562,0.04873113468979625,0.026170643808596194,0.03984109078150947,0.004931392881754001
1.5072947498025124,0.035465807062779846,0.04153725789080384,0.02167628316777021,0.038911628493720235,0.0013615001376418598
1.507366266957439,0.03160750390290827,0.03548916040282186,0.01779655130545853,0.03719330403300793,-0.0012975379638144554
1.5074377841123656,0.02689036393457737,0.030389329898715397,0.014369878001425985,0.03533844327780906,-0.003489973821850246
1.5075093012672922,0.022110982309926926,0.025956436054112856,0.012274203971852665,0.032137772343894436,-0.0038794943522690436
1.5075808184222188,0.018158898886019043,0.023049719043467396,0.010838451012952628,0.0305573797858031,-0.004428046057189842
1.5076523355771454,0.015750547010193554,0.02104192662031437,0.009985828883372298,0.029248720142840013,-0.0045834307407409845
1.507723852732072,0.015198153002695225,0.01748329385648621,0.008495434228764531,0.026248829917858908,-0.004527241920029298
1.5077953698869986,0.01632710132796861,0.012855449406993838,0.006411917338543193,0.02180819602899286,-0.004335113634182192
1.5078668870419252,0.01858159605132472,0.009484773155516648,0.00521914285473996,0.01729481538399812,-0.0033184585700388237
1.5079384041968518,0.02125563485920751,0.007559550603670552,0.005152249488431391,0.012695951730339243,-0.0012627890764895693
1.5080099213517784,0.023737553869918368,0.007436944756464504,0.0057615299185219465,0.009986841801352196,0.0005241377023555021
1.508081438506705,0.025680396681245936,0.009456055033963176,0.007453924502377228,0.00826825453460751,0.00281741205651716
1.5081529556616315,0.027059576075294776,0.011311254431673697,0.008842952470356694,0.006946120037569,0.004658935653952888
1.5082244728165581,0.028112039179855254,0.010567485782482405,0.008942296206187028,0.004722882810613399,0.005769382136811674
1.5082959899714847,0.029172386947160022,0.008342092129586245,0.008780907310022895,0.0021393888488465502,0.006813908417029016
1.5083675071264113,0.03045818310099522,0.008295078994757416,0.010026451111954632,0.000596554094398595,0.008629371624636444
1.508439024281338,0.03190386747651281,0.012530098805592844,0.012747040105629182,0.0016555750129415478,0.010558521365537865
1.5085105414362645,0.03314377564440417,0.018793840451291618,0.01600259242207933,0.005095723542269831,0.011868382387389532
1.508582058591191,0.03366149064758627,0.024028432236538954,0.0186299276568245,0.008311814811018097,0.01272376138124907
1.5086535757461177,0.03301661123576188,0.023777218665524055,0.017302793300784304,0.010216267368683167,0.010669501077081122
1.5087250929010443,0.031031763736761156,0.019438714744257048,0.013978643770450466,0.01106691857069405,0.0073256933345092765
1.5087966100559709,0.02787943173947238,0.013801506801024764,0.009773118861112214,0.010125795332370674,0.004023038395191916
1.5088681272108975,0.024071143965329337,0.008657305880580425,0.005405399448016361,0.00955581543745948,0.00040606798230761
1.508939644365824,0.020368522042175177,0.004658045189141372,0.002619426200917792,0.007349178979836236,-0.0010533258301535045
1.5090111615207507,0.017622660517009992,0.0028919078229686936,0.001280243020763253,0.00626484214231083,-0.001743929627730609
1.5090826786756772,0.016549556574789192,0.002394365626277329,0.001094148915450876,0.007176222144695482,-0.002328284934243421
1.5091541958306038,0.01749078347259404,0.0025255112044105838,0.001728275756159572,0.007268517520812493,-0.0018076055919133297
1.5092257129855304,0.02026609634215111,0.0031237371210148085,0.002622344403247119,0.006066979376712027,-0.0004611209033937586
1.509297230140457,0.024225306810832306,0.006768867275817424,0.005090188490138515,0.0057861605894756925,0.001859557449242869
1.5093687472953836,0.028505184243561566,0.01528849336009052,0.010396256019729185,0.007581225599759216,0.00574643948409308
1.5094402644503102,0.032363241212534366,0.027036138924847377,0.017181792517199104,0.011875061671892574,0.009799510861774583
1.5095117816052368,0.035420479974014,0.03992652927081456,0.023785576506019895,0.0173809950860657,0.013136277265076886
1.5095832987601634,0.03772295943106026,0.04946451889972969,0.028541189697550762,0.02150772559687432,0.015466927809407602
1.50965481591509,0.039632532833370364,0.05239855222328532,0.030196375009199177,0.02347375654011903,0.016035236763846734
1.5097263330700166,0.041605230836871475,0.04762624175437564,0.028415936049993602,0.02189573807187932,0.015177309260806226
1.5097978502249432,0.04392716574129624,0.040202473060829816,0.026087173799228647,0.016377647401499988,0.015642723329315548
1.5098693673798698,0.04649881119729661,0.036029567957346374,0.025125670272120693,0.011618300997649432,0.016975067781567724
1.5099408845347964,0.048782229516577,0.03639624077456773,0.025898717163670308,0.010749500616740569,0.018061107700753903
1.510012401689723,0.04998265464348263,0.03955778945960131,0.027970420605425636,0.011748511791885682,0.019442992743593013
1.5100839188446495,0.04939582665258717,0.040045465308200405,0.02744804663090382,0.012979377599748933,0.018413359947448648
1.5101554359995761,0.046726633743720845,0.037323736033248886,0.024915387052692306,0.014151983418421806,0.015624053514999537
1.5102269531545027,0.04221494386441091,0.03407934203804858,0.022036546886626967,0.014924796316674966,0.012710874924040159
1.5102984703094293,0.0365554045951188,0.032075100983675754,0.019143160662124768,0.01654499182254603,0.00939535828708102
1.510369987464356,0.030705701566729478,0.03175049590004634,0.01712115674686206,0.018561166280584428,0.0066719498034034696
1.5104415046192825,0.025671938650474672,0.032654190706637505,0.016152578444133103,0.020123245246249304,0.005093161589852404
1.510513021774209,0.02230380117340663,0.03408123904017857,0.01595046449902194,0.022301446299635784,0.00391198875219043
1.5105845389291357,0.02110478427342222,0.03226503501397262,0.014310671393420193,0.022511428813793595,0.0023584323269725247
1.5106560560840623,0.022087028251984653,0.02664731457463411,0.011927341615445858,0.01867180694505278,0.002006799900197513
1.5107275732389889,0.02474352062355467,0.017941644508694923,0.008315005741078718,0.012510023438122225,0.0016316764541447753
1.5107990903939155,0.028206425428266402,0.011308445834342117,0.006455089330600415,0.006368356497689985,0.0028039662999135725
1.510870607548842,0.03156791810921427,0.008256274962118474,0.006924877381908108,0.0017974896675078415,0.005322879270733327
1.5109421247037687,0.034217944840168574,0.00870571136034274,0.0085255112555674,-0.0005015015596916248,0.007801356804505159
1.5110136418586952,0.036025983655989566,0.01222548769360184,0.01161661354179527,-0.0010062813910685724,0.010778426551266129
1.5110851590136218,0.03729532439305516,0.01407496119549799,0.013294021431409462,-0.000787173351716643,0.012167294708365911
1.5111566761685484,0.03854470610167679,0.01272963657378443,0.013163190298163863,-0.00045056085069155065,0.011896356953101164
1.511228193323475,0.04022460916569971,0.011227921887188727,0.013651672900344249,-0.0023217027421318405,0.013190386016826476
1.5112997104784016,0.04246467581659284,0.01214144559738312,0.01442102957265151,-0.0027613279941895636,0.014075706145209943
1.5113712276333282,0.04493429586497486,0.01731771242273869,0.016921655013448497,-0.0009477585120749361,0.015462663731299642
1.5114427447882548,0.04689231770787431,0.023444404710137166,0.019784155718843215,0.0017672036016313228,0.016756964825004196
1.5115142619431814,0.047454803887083834,0.02607970851890731,0.02007376929597759,0.0046326246307315634,0.015697250997185636
