freq,gls,usurper,pdc_unbiased,shape_periodogram,shift_periodogram
1.5,0.031605246424144244,0.035671459670569845,0.022003088454338578,0.03622378725896744,-0.003960539563315442
1.5000715171549266,0.028595336453250155,0.02796996740595349,0.01679692217781675,0.02925233009419496,-0.003979043210511864
1.5001430343098532,0.024797888546036324,0.021763699094710195,0.011419584810450916,0.02423613354969558,-0.005301394763982653
1.5002145514647798,0.020789812632417533,0.02002730292605532,0.008796510756732951,0.020412477544973776,-0.005124122776132648
1.5002860686197064,0.017345459787468324,0.02316472924721357,0.009479677332466734,0.01916055688664674,-0.0038284310258884058
1.500357585774633,0.015271945925960987,0.02853938667901934,0.011714688134418397,0.01937814239838622,-0.0021643214158441884
1.5004291029295596,0.015165201318802408,0.034814552407688146,0.01415548030345099,0.02279553801599411,-0.002244934527569898
1.5005006200844861,0.01716595655706576,0.040407751477708795,0.016954003693511403,0.02600564428314902,-0.0019143617806423143
1.5005721372394127,0.02086274426290797,0.04464105724194635,0.019187221778694714,0.029830712811727816,-0.0024046812065829405
1.5006436543943393,0.02544081002802935,0.048582552192428734,0.02137618975240262,0.0340039187694964,-0.0031383794200409145
1.500715171549266,0.03000884122307953,0.05295570318044747,0.02421994995090846,0.03683737258086229,-0.0025456185413287743
1.5007866887041925,0.03391266896856934,0.0584630690337673,0.02666061786266369,0.042605056330274095,-0.00402925522539416
1.500858205859119,0.0368882624749449,0.06444860504963713,0.029368029530911475,0.049309852695725374,-0.0058589423221566996
1.5009297230140457,0.0390355018056212,0.07061983760808313,0.03287087235373193,0.05741824634551588,-0.007888822248112189
1.5010012401689723,0.04067274274449097,0.0726737163398119,0.0349635290275476,0.06287519889095759,-0.009468903660832358
1.5010727573238989,0.04213722341942038,0.0723841281991622,0.036798409825528795,0.0658060840076421,-0.009745181580889556
1.5011442744788255,0.043587855733941964,0.07194226659560837,0.03793328428010061,0.06848268871852126,-0.010433252311199185
1.501215791633752,0.044880915226329254,0.0714695474256706,0.03824814004694497,0.07068827431057788,-0.011500391595703442
1.5012873087886787,0.045592465454410994,0.07255438019584738,0.03896037083855539,0.07316343596993873,-0.012409034831527967
1.5013588259436053,0.04519857422015515,0.07160979036893161,0.038338310339186395,0.07234239030474117,-0.012418595683243125
1.5014303430985318,0.04331902735671992,0.06735720056368467,0.03525172960142179,0.07080895987704024,-0.013987365114988147
1.5015018602534584,0.03989064242203222,0.05836579039886012,0.029380562295107576,0.06674538292682004,-0.016281175081453447
1.501573377408385,0.035207008956161204,0.04773176037264609,0.02275340008029923,0.062355066010834015,-0.01898361671518132
1.5016448945633116,0.029854908046904056,0.03800218049923221,0.01716592382272006,0.056213155815471295,-0.019798267173011808
1.5017164117182382,0.02460404968418353,0.02982123191643384,0.01272729457488559,0.049164677540406466,-0.01914687478473416
1.5017879288731648,0.020274028275387688,0.024555917301425183,0.010756457121333964,0.04257117626794462,-0.016786949021938127
1.5018594460280914,0.01756978332877583,0.021779592519972323,0.009814843547662735,0.03849563796275887,-0.015107044664898612
1.501930963183018,0.016887968997375314,0.020744971837307107,0.009773529530205848,0.03485600142021334,-0.01296545200243623
1.5020024803379446,0.018154766828972088,0.019403257798023,0.009545857603491862,0.03220380027626367,-0.011563817752748418
1.5020739974928712,0.020807783027131654,0.01998304434116003,0.00997328939183271,0.03072968690280996,-0.010340179705386383
1.5021455146477978,0.023992628107040868,0.02325501413711603,0.01144212206274167,0.03098951442570138,-0.009316177598495637
1.5022170318027244,0.026898257150269028,0.029117158252480783,0.014028974316248104,0.033728578512597654,-0.008875216584491525
1.502288548957651,0.029041972437567,0.035129387459879285,0.016679671046279716,0.03740915242382845,-0.008945226632591622
1.5023600661125776,0.03036170293294545,0.04101256019533453,0.019990738498687276,0.04170406034958085,-0.008851631843095283
1.5024315832675041,0.031115659296329378,0.04172719841517817,0.02077896981185265,0.04409298055137336,-0.009645995208914111
1.5025031004224307,0.031680428730509906,0.038242013786019824,0.019519808615351825,0.044415872580450384,-0.010850800739135347
1.5025746175773573,0.032340192227813126,0.03336717215508095,0.018649627815208736,0.04240910956394266,-0.010350511642717252
1.502646134732284,0.033131945974426154,0.03007066658395607,0.017871043624403338,0.039620822830040585,-0.009309719136816304
1.5027176518872105,0.033797027787609374,0.029413141940176954,0.01799769758677829,0.03815756699964798,-0.008333673453047868
1.502789169042137,0.033871437590867574,0.027867978101333585,0.017486670760106647,0.035370938174615736,-0.007079385858595346
1.5028606861970637,0.03289397904446062,0.02399398481646929,0.015274482970942199,0.03217987468723812,-0.006949988059669168
1.5029322033519903,0.030638444170610023,0.019808944644207013,0.012011118949132128,0.02965252709118841,-0.008060842653456067
1.5030037205069169,0.02725242384486997,0.01762764166897986,0.009441040885373031,0.028316457393903514,-0.009326155232246756
1.5030752376618435,0.023245599290448483,0.019541053681299502,0.008606550278537486,0.028378515586072774,-0.01003307327742245
1.50314675481677,0.019358366958489085,0.023937953387277645,0.008953985446160287,0.028751953170413895,-0.009977209808447853
1.5032182719716967,0.01638051368297583,0.029506429058040316,0.010426555451109277,0.029017541884984132,-0.008953726931903605
1.5032897891266233,0.01497089818834955,0.03462531992748098,0.012350463029946239,0.029421879197059977,-0.00765065007809114
1.5033613062815498,0.015499460648454992,0.03846358620872564,0.013981854206916533,0.02965299619190069,-0.006478823779287202
1.5034328234364764,0.01793079665045714,0.03876034346360666,0.01416864675154985,0.028095631901967094,-0.005398831554229791
1.503504340591403,0.021792554285279486,0.038140617119085035,0.013806564009865633,0.02633352240647572,-0.004637367811662103
1.5035758577463296,0.026283745634476982,0.041542887116961,0.015751292513310384,0.02723113137091838,-0.003611828633022103
1.5036473749012562,0.03053094650102892,0.048451052059147084,0.019003856556851165,0.03224098440764995,-0.003991276775517945
1.5037188920561828,0.03389868374654469,0.057699144622502634,0.02304438568669538,0.04078429938967933,-0.005848181405557227
1.5037904092111094,0.03619247413189749,0.06824951405817158,0.02836367437687625,0.04914975129734875,-0.006571078083841286
1.503861926366036,0.03764566473947448,0.07611375020869984,0.03246316988130233,0.05646256596244877,-0.00764536172739897
1.5039334435209626,0.038716510453014726,0.08006738310423109,0.03408384953452373,0.0626828357713253,-0.010062195618130597
1.5040049606758892,0.0398171228344044,0.0818086870682905,0.03557140334761458,0.06682520611624015,-0.011343833333191283
1.5040764778308158,0.041095739566223526,0.0858773380062345,0.037525773851031737,0.07047161764668522,-0.01195283112860538
1.5041479949857424,0.04234364882306056,0.09017691799839798,0.038887791087543686,0.07452915076176507,-0.013285914212434673
1.504219512140669,0.043051695709888996,0.09218901672038593,0.03921573232033744,0.07787719185901354,-0.015028382225883536
1.5042910292955955,0.04260283060723393,0.08686955786121547,0.036347749549566495,0.0783590484640622,-0.01762969294578034
1.5043625464505221,0.04053910287302065,0.0739967865641405,0.030363706364527798,0.07470148444411279,-0.020257582496363023
1.5044340636054487,0.03679439695722014,0.05737725921222623,0.02344001313236871,0.06672027861446811,-0.021046023137278293
1.5045055807603753,0.03178229372791513,0.04278556920113655,0.01698689592080203,0.059421628328873585,-0.021862719559448088
1.504577097915302,0.026296542555493532,0.03278107643082341,0.012446934359831944,0.05242375457509588,-0.02132167176141972
1.5046486150702285,0.021278189004975218,0.02882609053309279,0.011187449324425095,0.04616906303201191,-0.018591963508932892
1.504720132225155,0.017555651134353225,0.027272746448680323,0.011283372248322305,0.040804642374104194,-0.0153079427046905
1.5047916493800817,0.01564621916050789,0.02561738859645832,0.010644076718018416,0.03675200078977014,-0.013399366811892886
1.5048631665350083,0.015656872938766518,0.022652208600006565,0.009217644422453899,0.03226521322419766,-0.01186397983724078
1.5049346836899349,0.017286051262519187,0.02048997826566489,0.008230188330603324,0.02850958376139541,-0.010413451339064034
1.5050062008448615,0.019918755698584013,0.020421592696475362,0.007905738300784866,0.02577226520114054,-0.009039204874942428
1.505077717999788,0.022804926807040774,0.023172592784735723,0.009361654152707073,0.02435343647507641,-0.007023387898214586
1.5051492351547147,0.025289013466251117,0.029453543889395802,0.011726326065843064,0.028515427094981297,-0.007610403201415607
1.5052207523096413,0.027015644551186973,0.035589292921897484,0.014241445734319206,0.03268547683268076,-0.008081529050189438
1.5052922694645678,0.028012475009877,0.03837691541395885,0.015961322224474977,0.03457324801953924,-0.007827988982288878
1.5053637866194944,0.028596359216805502,0.034277481607400025,0.014919408532213189,0.03253216413527579,-0.007445541325251647
1.505435303774421,0.02915112616185344,0.025957477404904554,0.013309044659559194,0.02747259950866238,-0.005716974441459193
1.5055068209293476,0.029900153036102176,0.020163921971020425,0.012321918805932341,0.023192904910987147,-0.003954176393927504
1.5055783380842742,0.030782681811496897,0.01931379894249332,0.01250866989698158,0.021206152199315112,-0.0026181844885944773
1.5056498552392008,0.03146961942071043,0.022298698742300775,0.013496870470295333,0.02256931469024173,-0.0026386375530018506
1.5057213723941274,0.03149161794629547,0.024131100140439923,0.013134126432083434,0.02464266873863585,-0.004167685359662066
1.505792889549054,0.030427310908792447,0.023667489274547756,0.011855838401314541,0.02664075315937898,-0.0063869544838951135
1.5058644067039806,0.02809465201809536,0.02109285540057103,0.009674998552531539,0.027264100460846367,-0.008509896259095647
1.5059359238589072,0.024683284499830333,0.016961524957317037,0.006168765257997816,0.027034363651757928,-0.011187015432544549
1.5060074410138338,0.020766913938386953,0.014356116856421965,0.003987129865862614,0.026416261279908,-0.012568772568472001
1.5060789581687604,0.017165658691511196,0.015619064496472566,0.004506773893992003,0.025371960305962022,-0.011528130095189411
1.506150475323687,0.014695536880755058,0.01871368578396692,0.005603202541494299,0.024796965260148792,-0.010304847350214764
1.5062219924786135,0.013907828977730352,0.021509435428249568,0.006474304461408025,0.023938974617878115,-0.009093409378621693
1.5062935096335401,0.014929925183180436,0.021916973969056914,0.007024475314287043,0.02105202364585836,-0.006928183832387342
1.5063650267884667,0.01746107614733839,0.020725667090787134,0.006681651925523114,0.019088572025633358,-0.006031157738992711
1.5064365439433933,0.020900617081537138,0.02281912411097404,0.008103902228742074,0.01822807585973481,-0.004376012306815754
1.50650806109832,0.024545654709518663,0.02819813923285125,0.01119024144466396,0.01777964240906917,-0.0016311242975866787
1.5065795782532465,0.027795889555703463,0.03755077977528616,0.015188716512202768,0.022070211711701274,-0.0009823937180875382
1.506651095408173,0.030315638754338018,0.049430009667542116,0.02020329875354711,0.02811845686787586,-0.000566221789807881
1.5067226125630997,0.03210575674634778,0.06109889640155885,0.02516307524326057,0.034966490440207804,-0.0006703426705949085
1.5067941297180263,0.03344435853615213,0.06797413696750179,0.02809340030703321,0.04026627545955636,-0.001480124730840162
1.5068656468729529,0.03469846610783441,0.0687931784949095,0.028836225363534616,0.042427504537986556,-0.0021738849749800182
1.5069371640278795,0.03608805388876267,0.06769726220954697,0.029158238083419115,0.04316423778477243,-0.002355077922962504
1.507008681182806,0.03753193323000867,0.06760743725429709,0.029645090979329304,0.045126481161715755,-0.003135936105256352
1.5070801983377327,0.038657419159163646,0.06806530568846202,0.03000532215028713,0.046951726082803076,-0.0039369004963809035
1.5071517154926592,0.038950459296790155,0.06656099457789799,0.029635790998015537,0.04666782160931982,-0.004064465096708735
1.5072232326475858,0.03795818995272562,0.05989103343305988,0.026170643808596194,0.04521328795681449,-0.00598174957405122
1.5072947498025124,0.035465807062779846,0.051264057899037783,0.02167628316777021,0.04258625416421296,-0.008024403988565309
1.507366266957439,0.03160750390290827,0.043897419300344555,0.01779655130545853,0.03973928342352069,-0.009440345351122877
1.5074377841123656,0.02689036393457737,0.03765220810096375,0.014369878001425985,0.037647646408459697,-0.010942814949511348
1.5075093012672922,0.022110982309926926,0.03199535205311545,0.012274203971852665,0.033943616821789833,-0.010412685126269998
1.5075808184222188,0.018158898886019043,0.028373213070886215,0.010838451012952628,0.0316593125276393,-0.010200891179111288
1.5076523355771454,0.015750547010193554,0.025794878079462045,0.009985828883372298,0.029054802544129416,-0.009329781095454383
1.507723852732072,0.015198153002695225,0.02134119526965298,0.008495434228764531,0.02460389481822313,-0.007868227232809588
1.5077953698869986,0.01632710132796861,0.01555434906256836,0.006411917338543193,0.019457423691103995,-0.006467831275056467
1.5078668870419252,0.01858159605132472,0.011160400984749337,0.00521914285473996,0.014641438860149271,-0.00455023602022943
1.5079384041968518,0.02125563485920751,0.008687909580810439,0.005152249488431391,0.009676624268221893,-0.0016406455624478472
1.5080099213517784,0.023737553869918368,0.008579780765838053,0.0057615299185219465,0.007176621856965328,0.0003403007323218561
1.508081438506705,0.025680396681245936,0.010905303295534614,0.007453924502377228,0.006238498023861933,0.0022582588553348728
1.5081529556616315,0.027059576075294776,0.013093925062697449,0.008842952470356694,0.00601238393586764,0.0035078769778364286
1.5082244728165581,0.028112039179855254,0.012211417815145943,0.008942296206187028,0.004629351852087465,0.004412928744613516
1.5082959899714847,0.029172386947160022,0.009526896104218108,0.008780907310022895,0.002917922707199499,0.005304704593875165
1.5083675071264113,0.03045818310099522,0.0092810302876614,0.010026451111954632,0.0022807285656914473,0.006684452639940907
1.508439024281338,0.03190386747651281,0.014189090680330285,0.012747040105629182,0.00434732196624125,0.007634573158571378
1.5085105414362645,0.03314377564440417,0.021693243676279162,0.01600259242207933,0.008972198720294965,0.0074878654164608005
1.508582058591191,0.03366149064758627,0.027693542760196043,0.0186299276568245,0.013260212035248043,0.007038354798564033
1.5086535757461177,0.03301661123576188,0.02767870637351147,0.017302793300784304,0.015000897683061048,0.004934183879737647
1.5087250929010443,0.031031763736761156,0.02272656688729793,0.013978643770450466,0.015030979746777659,0.0022476880213492543
1.5087966100559709,0.02787943173947238,0.016136265425328082,0.009773118861112214,0.01359242621918303,-0.0002693403450166891
1.5088681272108975,0.024071143965329337,0.010270446195932835,0.005405399448016361,0.013018527711436249,-0.0034320855377683104
1.508939644365824,0.020368522042175177,0.005725685013038947,0.002619426200917792,0.011155769087994387,-0.004555928709782405
1.5090111615207507,0.017622660517009992,0.0038151670122851264,0.001280243020763253,0.010613064071245227,-0.00530661463223795
1.5090826786756772,0.016549556574789192,0.0032024666458332976,0.001094148915450876,0.010710976863290199,-0.005514378501266996
1.5091541958306038,0.01749078347259404,0.0030503876047160376,0.001728275756159572,0.009779004495655216,-0.004449304208659774
1.5092257129855304,0.02026609634215111,0.003507103788498331,0.002622344403247119,0.007906190701887233,-0.002614140201629644
1.509297230140457,0.024225306810832306,0.00755844283192182,0.005090188490138515,0.007281697291841599,-0.00026113331088036695
1.5093687472953836,0.028505184243561566,0.01755578309441101,0.010396256019729185,0.008949306488027699,0.0030017969100669495
1.5094402644503102,0.032363241212534366,0.03167041872404927,0.017181792517199104,0.01336476600756331,0.005813385484573208
1.5095117816052368,0.035420479974014,0.04739996225380417,0.023785576506019895,0.019362920680675313,0.007536858893806369
1.5095832987601634,0.03772295943106026,0.05917653393408149,0.028541189697550762,0.023730388473944593,0.00875123138993375
1.50965481591509,0.039632532833370364,0.06295799262002395,0.030196375009199177,0.025619221068087464,0.00895431404910166
1.5097263330700166,0.041605230836871475,0.057573288266714505,0.028415936049993602,0.024349850070934112,0.00828096464635744
1.5097978502249432,0.04392716574129624,0.048670031320195505,0.026087173799228647,0.01926039534877214,0.009446713959615325
1.5098693673798698,0.04649881119729661,0.043593106924985144,0.025125670272120693,0.014649074815501161,0.011425532618429103
1.5099408845347964,0.048782229516577,0.04392752352747677,0.025898717163670308,0.014193680436578668,0.01231803170332263
1.510012401689723,0.04998265464348263,0.0474355968361872,0.027970420605425636,0.015572255180962339,0.013159632204708227
1.5100839188446495,0.04939582665258717,0.04821606015718806,0.02744804663090382,0.01630701977536635,0.012301749459073719
1.5101554359995761,0.046726633743720845,0.04522191846937385,0.024915387052692306,0.015823239138545254,0.010556177165850939
1.5102269531545027,0.04221494386441091,0.04157049088266078,0.022036546886626967,0.015078630938422845,0.00868856208582956
1.5102984703094293,0.0365554045951188,0.03951380572528494,0.019143160662124768,0.01611037086237796,0.005749684767602426
1.510369987464356,0.030705701566729478,0.0396357465341636,0.01712115674686206,0.01824924549839751,0.00284979183250877
1.5104415046192825,0.025671938650474672,0.041297009986457044,0.016152578444133103,0.020724850053616618,0.0005945502397741774
1.510513021774209,0.02230380117340663,0.0432633441975575,0.01595046449902194,0.023323224425123617,-0.0011187788126402112
1.5105845389291357,0.02110478427342222,0.04115321560955334,0.014310671393420193,0.023480963841807923,-0.0025295306716371308
1.5106560560840623,0.022087028251984653,0.03385751741764496,0.011927341615445858,0.019260864765541168,-0.0019236144539291392
1.5107275732389889,0.02474352062355467,0.02268013481709478,0.008315005741078718,0.013133408428876527,-0.0011656235411927585
1.5107990903939155,0.028206425428266402,0.013963181335338876,0.006455089330600415,0.006985480094475628,0.0010109323678985397
1.510870607548842,0.03156791810921427,0.009673700007641313,0.006924877381908108,0.0025430652996617184,0.0040390182689799365
1.5109421247037687,0.034217944840168574,0.009942641214778086,0.0085255112555674,0.001285200911238556,0.006074071293698922
1.5110136418586952,0.036025983655989566,0.013873963796951647,0.01161661354179527,0.0018688760185684428,0.008206286645427137
1.5110851590136218,0.03729532439305516,0.015994477112716152,0.013294021431409462,0.002886466620622213,0.00894522430384653
1.5111566761685484,0.03854470610167679,0.014378693789461171,0.013163190298163863,0.0038006519528445298,0.008294744845778614
1.511228193323475,0.04022460916569971,0.012377013166126053,0.013651672900344249,0.0027517202392874224,0.00931264975197183
1.5112997104784016,0.04246467581659284,0.013492055977653968,0.01442102957265151,0.0029014122592016006,0.009840768116773592
1.5113712276333282,0.04493429586497486,0.01972934567233791,0.016921655013448497,0.005747498440712584,0.010149615739899729
1.5114427447882548,0.04689231770787431,0.027173948337727915,0.019784155718843215,0.009561187186061913,0.010172024254899437
1.5115142619431814,0.047454803887083834,0.030660667741998847,0.02007376929597759,0.012451815163952877,0.008679888369913017
