freq,gls,usurper,pdc_unbiased,shape_periodogram,shift_periodogram
1.5,0.031605246424144244,0.0312743808366336,0.022003088454338578,0.04399225788073086,-0.0186053905292204
1.5000715171549266,0.028595336453250155,0.024599994930026917,0.01679692217781675,0.036652799810242935,-0.01651084119333244
1.5001430343098532,0.024797888546036324,0.018897542313594744,0.011419584810450916,0.03160059439804868,-0.016251803866545324
1.5002145514647798,0.020789812632417533,0.017117967682309054,0.008796510756732951,0.0284317335670328,-0.015595171169639049
1.5002860686197064,0.017345459787468324,0.0197508110538008,0.009479677332466734,0.028498235942994003,-0.015195006046879001
1.500357585774633,0.015271945925960987,0.024312587170118336,0.011714688134418397,0.03017854702942102,-0.014986792332031042
1.5004291029295596,0.015165201318802408,0.029491866048664776,0.01415548030345099,0.034800666294484084,-0.016857681404238333
1.5005006200844861,0.01716595655706576,0.034292070368973214,0.016954003693511403,0.03813332276890192,-0.017522192639173585
1.5005721372394127,0.02086274426290797,0.037886977831716746,0.019187221778694714,0.04148732056772777,-0.018575684720483765
1.5006436543943393,0.02544081002802935,0.04106071509115896,0.02137618975240262,0.0453654270873173,-0.020053504177153843
1.500715171549266,0.03000884122307953,0.0444742139538341,0.02421994995090846,0.04841819109796495,-0.020477745520362935
1.5007866887041925,0.03391266896856934,0.04842782061773309,0.02666061786266369,0.05498737191293676,-0.023819073123358136
1.500858205859119,0.0368882624749449,0.05284931596292579,0.029368029530911475,0.06283414184121786,-0.027950616456567642
1.5009297230140457,0.0390355018056212,0.05769118346262762,0.03287087235373193,0.07199758017920271,-0.03255511743707071
1.5010012401689723,0.04067274274449097,0.059317235134815315,0.0349635290275476,0.07835407648240286,-0.03597549080921601
1.5010727573238989,0.04213722341942038,0.059510010598604605,0.036798409825528795,0.08195879076596783,-0.03748816123770166
1.5011442744788255,0.043587855733941964,0.05955294390456548,0.03793328428010061,0.08554182626422156,-0.03944820328196036
1.501215791633752,0.044880915226329254,0.059261954257513946,0.03824814004694497,0.08852476120834621,-0.04149743594463749
1.5012873087886787,0.045592465454410994,0.06025878331579806,0.03896037083855539,0.09245112400330907,-0.04399928590528377
1.5013588259436053,0.04519857422015515,0.05949091424291451,0.038338310339186395,0.09271203447281448,-0.04460825063337731
1.5014303430985318,0.04331902735671992,0.055743323481118934,0.03525172960142179,0.09079160162032078,-0.04519430954686558
1.5015018602534584,0.03989064242203222,0.04791509441142263,0.029380562295107576,0.0852194999295469,-0.0448549935130352
1.501573377408385,0.035207008956161204,0.03880284110119187,0.02275340008029923,0.07829637100905888,-0.04399280353367747
1.5016448945633116,0.029854908046904056,0.030539300858028525,0.01716592382272006,0.06995194239423969,-0.04137318408334817
1.5017164117182382,0.02460404968418353,0.023734045886364727,0.01272729457488559,0.061365078976345085,-0.037817828287621515
1.5017879288731648,0.020274028275387688,0.01976270877325306,0.010756457121333964,0.05387063791932973,-0.033464804014857255
1.5018594460280914,0.01756978332877583,0.017886803068189093,0.009814843547662735,0.04897437791557405,-0.030394821426892867
1.501930963183018,0.016887968997375314,0.01759068386015543,0.009773529530205848,0.04416297135898386,-0.02679687478274817
1.5020024803379446,0.018154766828972088,0.016970859571752896,0.009545857603491862,0.04032129240997171,-0.024053180677152182
1.5020739974928712,0.020807783027131654,0.017742698879237094,0.00997328939183271,0.0382047459828749,-0.022177517353284062
1.5021455146477978,0.023992628107040868,0.020424908298582862,0.01144212206274167,0.03855746047651855,-0.021475128382731006
1.5022170318027244,0.026898257150269028,0.024993851666003267,0.014028974316248104,0.042215199144593096,-0.02252501127106316
1.502288548957651,0.029041972437567,0.029663994483081154,0.016679671046279716,0.04709852023571579,-0.02445665064413861
1.5023600661125776,0.03036170293294545,0.03452441523570686,0.019990738498687276,0.05212696108149468,-0.026063140815872212
1.5024315832675041,0.031115659296329378,0.03500120835199954,0.02077896981185265,0.054856502618766526,-0.02760114353578124
1.5025031004224307,0.031680428730509906,0.03215986392981406,0.019519808615351825,0.05489959699123302,-0.028464085157500246
1.5025746175773573,0.032340192227813126,0.02865716957234932,0.018649627815208736,0.05261392652226267,-0.027314672335574885
1.502646134732284,0.033131945974426154,0.026199996966206885,0.017871043624403338,0.049484658985421905,-0.025469326167805624
1.5027176518872105,0.033797027787609374,0.02586550737577941,0.01799769758677829,0.048606916691475245,-0.02472429794497005
1.502789169042137,0.033871437590867574,0.024698004957157984,0.017486670760106647,0.04686761301613069,-0.0237505599368375
1.5028606861970637,0.03289397904446062,0.02149231014968846,0.015274482970942199,0.04387861180942835,-0.022957029912123367
1.5029322033519903,0.030638444170610023,0.01774718906767796,0.012011118949132128,0.04107370617249473,-0.022995227506021083
1.5030037205069169,0.02725242384486997,0.01568359248920862,0.009441040885373031,0.03961952861625576,-0.023593725050828015
1.5030752376618435,0.023245599290448483,0.01697351663590028,0.008606550278537486,0.04011769880748441,-0.024518790226788195
1.50314675481677,0.019358366958489085,0.020231569994817768,0.008953985446160287,0.04128206307874585,-0.025166816315115758
1.5032182719716967,0.01638051368297583,0.024485676915980293,0.010426555451109277,0.04264683586618059,-0.025224450740305448
1.5032897891266233,0.01497089818834955,0.028602923612937127,0.012350463029946239,0.04329440290508047,-0.024444337876788586
1.5033613062815498,0.015499460648454992,0.03177591290910567,0.013981854206916533,0.04310737625546003,-0.023228146211603403
1.5034328234364764,0.01793079665045714,0.03206241820730688,0.01416864675154985,0.04061138900648246,-0.021224889507995386
1.503504340591403,0.021792554285279486,0.03144715072044596,0.013806564009865633,0.038191443116674446,-0.01964100502533521
1.5035758577463296,0.026283745634476982,0.034149289721410916,0.015751292513310384,0.03884071570505433,-0.01884792353797268
1.5036473749012562,0.03053094650102892,0.0394778605296152,0.019003856556851165,0.04422281763724437,-0.020757328756204958
1.5037188920561828,0.03389868374654469,0.0465277307256071,0.02304438568669538,0.05382935958018209,-0.02533227853336192
1.5037904092111094,0.03619247413189749,0.05496156850504021,0.02836367437687625,0.06416038014592905,-0.029614571820299942
1.503861926366036,0.03764566473947448,0.06119887162250434,0.03246316988130233,0.07363437618962225,-0.034060902017752775
1.5039334435209626,0.038716510453014726,0.06409375471752285,0.03408384953452373,0.08131193165135765,-0.03879308518779446
1.5040049606758892,0.0398171228344044,0.06557148830212614,0.03557140334761458,0.0868298987456686,-0.04198422095125908
1.5040764778308158,0.041095739566223526,0.0688622655366734,0.037525773851031737,0.09153092937854465,-0.04425101392198354
1.5041479949857424,0.04234364882306056,0.072143531089641,0.038887791087543686,0.0961250190311041,-0.046830505255808216
1.504219512140669,0.043051695709888996,0.07359865207189606,0.03921573232033744,0.09942567502109108,-0.049115415329478974
1.5042910292955955,0.04260283060723393,0.06901210403620012,0.036347749549566495,0.09805605996145629,-0.04997324181764909
1.5043625464505221,0.04053910287302065,0.05831198683598125,0.030363706364527798,0.0913103385289888,-0.04881576531179407
1.5044340636054487,0.03679439695722014,0.04493659141847448,0.02344001313236871,0.0803013253360828,-0.045055501901896146
1.5045055807603753,0.03178229372791513,0.03322928562930039,0.01698689592080203,0.07044493182017991,-0.04186341849246786
1.504577097915302,0.026296542555493532,0.02528033295219843,0.012446934359831944,0.06193188323622123,-0.038430133173772356
1.5046486150702285,0.021278189004975218,0.02245705801866388,0.011187449324425095,0.055516446588232946,-0.03442162845549168
1.504720132225155,0.017555651134353225,0.021729836306923215,0.011283372248322305,0.05031017524964195,-0.03043387136768946
1.5047916493800817,0.01564621916050789,0.020741954558453693,0.010644076718018416,0.045991498041086196,-0.027600810103389342
1.5048631665350083,0.015656872938766518,0.01868108368198494,0.009217644422453899,0.04066279038367219,-0.024526659860802193
1.5049346836899349,0.017286051262519187,0.017269973862574135,0.008230188330603324,0.03641481622334314,-0.02197830173325573
1.5050062008448615,0.019918755698584013,0.01727456119896264,0.007905738300784866,0.033309701890092705,-0.019854195096763262
1.505077717999788,0.022804926807040774,0.019606580386837817,0.009361654152707073,0.03159554547829516,-0.017604300731728455
1.5051492351547147,0.025289013466251117,0.024505463744795584,0.011726326065843064,0.035937402184759173,-0.019314809157490443
1.5052207523096413,0.027015644551186973,0.02934613396624467,0.014241445734319206,0.04072232815007938,-0.02126045977935418
1.5052922694645678,0.028012475009877,0.03167289961694639,0.015961322224474977,0.04285898436716012,-0.021736088491580288
1.5053637866194944,0.028596359216805502,0.028303660645386173,0.014919408532213189,0.04086294474874304,-0.02091944338588185
1.505435303774421,0.02915112616185344,0.02193502272683742,0.013309044659559194,0.03618104445470539,-0.01845504115065302
1.5055068209293476,0.029900153036102176,0.017586679678372734,0.012321918805932341,0.03219491301109479,-0.0161044757120288
1.5055783380842742,0.030782681811496897,0.017031929672243852,0.01250866989698158,0.03098705403473501,-0.015072079698325587
1.5056498552392008,0.03146961942071043,0.019402026323786906,0.013496870470295333,0.03376684842969305,-0.016513453811972487
1.5057213723941274,0.03149161794629547,0.020574622853847743,0.013134126432083434,0.03720178780075339,-0.019338985037444384
1.505792889549054,0.030427310908792447,0.02001950763471171,0.011855838401314541,0.03917476098143193,-0.021667350669214144
1.5058644067039806,0.02809465201809536,0.01778353125656974,0.009674998552531539,0.0388142301748058,-0.02283307781696633
1.5059359238589072,0.024683284499830333,0.013980728137058201,0.006168765257997816,0.03753888252467542,-0.02418294878033601
1.5060074410138338,0.020766913938386953,0.011648849896711675,0.003987129865862614,0.036081475636503345,-0.024522820741961892
1.5060789581687604,0.017165658691511196,0.012779949334708158,0.004506773893992003,0.03468760299570653,-0.023131046313656662
1.506150475323687,0.014695536880755058,0.015319307209952364,0.005603202541494299,0.03404128939396351,-0.021922107158294683
1.5062219924786135,0.013907828977730352,0.01750544885133971,0.006474304461408025,0.03259743175855999,-0.02026116605693185
1.5062935096335401,0.014929925183180436,0.017966727039111122,0.007024475314287043,0.028684291749009428,-0.016952998618562184
1.5063650267884667,0.01746107614733839,0.01703617514392656,0.006681651925523114,0.025505241849027204,-0.014786195891709642
1.5064365439433933,0.020900617081537138,0.018746700501194907,0.008103902228742074,0.024350729234524898,-0.012980097484040878
1.50650806109832,0.024545654709518663,0.02300120986782863,0.01119024144466396,0.024781323679711656,-0.011270096772047194
1.5065795782532465,0.027795889555703463,0.030167672821835145,0.015188716512202768,0.03136037317591612,-0.013586393178792072
1.506651095408173,0.030315638754338018,0.03947072472003039,0.02020329875354711,0.04021903775051558,-0.016950252207375973
1.5067226125630997,0.03210575674634778,0.0486443888145794,0.02516307524326057,0.049561257191527625,-0.020716878683605684
1.5067941297180263,0.03344435853615213,0.053914345069929176,0.02809340030703321,0.056007703367389784,-0.023642683352667653
1.5068656468729529,0.03469846610783441,0.05444138599763754,0.028836225363534616,0.058126794210538485,-0.024750434536043333
1.5069371640278795,0.03608805388876267,0.05355673500115686,0.029158238083419115,0.05791142644494468,-0.02437538521069224
1.507008681182806,0.03753193323000867,0.053434987272006615,0.029645090979329304,0.05871603405157375,-0.024660805672002985
1.5070801983377327,0.038657419159163646,0.05373750311811033,0.03000532215028713,0.059451518911401706,-0.02497772205254242
1.5071517154926592,0.038950459296790155,0.052594040760725366,0.029635790998015537,0.05854755517437691,-0.02453986565988169
1.5072232326475858,0.03795818995272562,0.04695937619407136,0.026170643808596194,0.05532158426173673,-0.02439448105701592
1.5072947498025124,0.035465807062779846,0.03983845643955152,0.02167628316777021,0.05033772427065147,-0.023602656614600252
1.507366266957439,0.03160750390290827,0.033928519168711264,0.01779655130545853,0.045982426766723435,-0.022879234333875075
1.5074377841123656,0.02689036393457737,0.028926431311724773,0.014369878001425985,0.04304941504091371,-0.02292870144258934
1.5075093012672922,0.022110982309926926,0.02466046228264402,0.012274203971852665,0.03936394038705206,-0.02153408335738779
1.5075808184222188,0.018158898886019043,0.022008024123839773,0.010838451012952628,0.03757143433654798,-0.021130435953089065
1.5076523355771454,0.015750547010193554,0.02034105161543828,0.009985828883372298,0.035148433742699735,-0.019867836253176077
1.507723852732072,0.015198153002695225,0.017147719416509336,0.008495434228764531,0.02968463608646323,-0.016736662826689355
1.5077953698869986,0.01632710132796861,0.012887882155249476,0.006411917338543193,0.023121003362041835,-0.013169637821826702
1.5078668870419252,0.01858159605132472,0.009772040483163382,0.00521914285473996,0.01719738627356666,-0.009498308674606515
1.5079384041968518,0.02125563485920751,0.008024702787754101,0.005152249488431391,0.01164881717840655,-0.005367924766274313
1.5080099213517784,0.023737553869918368,0.008002005778535267,0.0057615299185219465,0.009330203069706146,-0.0032221651188202275
1.508081438506705,0.025680396681245936,0.01002027730319642,0.007453924502377228,0.009838413511719771,-0.002489240190668772
1.5081529556616315,0.027059576075294776,0.011802039159388244,0.008842952470356694,0.011109652833279426,-0.0025302029779022705
1.5082244728165581,0.028112039179855254,0.011042621139851341,0.008942296206187028,0.010667322970922231,-0.0021319738008166856
1.5082959899714847,0.029172386947160022,0.008999292561467732,0.008780907310022895,0.009921819234593237,-0.0016775036313570395
1.5083675071264113,0.03045818310099522,0.00913836162522371,0.010026451111954632,0.010249406670004407,-0.0011030945487221781
1.508439024281338,0.03190386747651281,0.013364092285470364,0.012747040105629182,0.013656787046666648,-0.0018733622005305819
1.5085105414362645,0.03314377564440417,0.019527231870151887,0.01600259242207933,0.01959972550532376,-0.004198615946959801
1.508582058591191,0.03366149064758627,0.024511779723142866,0.0186299276568245,0.0252330835289884,-0.006705435865880355
1.5086535757461177,0.03301661123576188,0.024039892002913274,0.017302793300784304,0.027184535080924777,-0.009049237095392675
1.5087250929010443,0.031031763736761156,0.01966806671055285,0.013978643770450466,0.025641950841189892,-0.01007980494121736
1.5087966100559709,0.02787943173947238,0.014076422256654024,0.009773118861112214,0.022005468861246033,-0.010115120727247814
1.5088681272108975,0.024071143965329337,0.008938699584644128,0.005405399448016361,0.019522327178952914,-0.011124912249787376
1.508939644365824,0.020368522042175177,0.004996491098742218,0.002619426200917792,0.016684282790076884,-0.010825246130490332
1.5090111615207507,0.017622660517009992,0.0032373863216748856,0.001280243020763253,0.016184678433393277,-0.011331716780165087
1.5090826786756772,0.016549556574789192,0.0027532340780540353,0.001094148915450876,0.016171953688166856,-0.011444754194420289
1.5091541958306038,0.01749078347259404,0.0028993743635256255,0.001728275756159572,0.014618868459364463,-0.00985848040131089
1.5092257129855304,0.02026609634215111,0.003564946621934499,0.002622344403247119,0.012371515022793137,-0.007578641069086256
1.509297230140457,0.024225306810832306,0.007186512627563982,0.005090188490138515,0.01233064189740509,-0.005921763901948895
1.5093687472953836,0.028505184243561566,0.01552307956188193,0.010396256019729185,0.015319218586815276,-0.004673469401958834
1.5094402644503102,0.032363241212534366,0.026937522244340418,0.017181792517199104,0.021775475320720716,-0.005058331270902107
1.5095117816052368,0.035420479974014,0.03934746766647151,0.023785576506019895,0.030375583506298345,-0.007175501675476693
1.5095832987601634,0.03772295943106026,0.04846291624513738,0.028541189697550762,0.036021705576291724,-0.008287891770348785
1.50965481591509,0.039632532833370364,0.051064089553183555,0.030196375009199177,0.0375117806897555,-0.008317210747874686
1.5097263330700166,0.041605230836871475,0.04629818782632702,0.028415936049993602,0.035098331595500645,-0.0076753464313792825
1.5097978502249432,0.04392716574129624,0.0391054406433751,0.026087173799228647,0.028553583751028767,-0.004285575908845409
1.5098693673798698,0.04649881119729661,0.035120260745921415,0.025125670272120693,0.022591306917895092,-0.0004331686347282881
1.5099408845347964,0.048782229516577,0.035610325828773964,0.025898717163670308,0.021099884682313236,0.001198956298902941
1.510012401689723,0.04998265464348263,0.03882010750038761,0.027970420605425636,0.02213918502867659,0.001783882749572516
1.5100839188446495,0.04939582665258717,0.039352202310227055,0.02744804663090382,0.022398026124736098,0.0012444605448635165
1.5101554359995761,0.046726633743720845,0.03667025174044321,0.024915387052692306,0.02115084828628676,0.0005119182831513739
1.5102269531545027,0.04221494386441091,0.03357660210620287,0.022036546886626967,0.01931362364236421,-4.647543303634765e-06
1.5102984703094293,0.0365554045951188,0.03166711638370035,0.019143160662124768,0.019979486368506882,-0.0024136853321041177
1.510369987464356,0.030705701566729478,0.03148755960426452,0.01712115674686206,0.022265646246024184,-0.005467160029973941
1.5104415046192825,0.025671938650474672,0.03250482904967535,0.016152578444133103,0.02528699521428201,-0.008379473597700568
1.510513021774209,0.02230380117340663,0.034002986596454524,0.01595046449902194,0.028355037612571007,-0.010821890084367196
1.5105845389291357,0.02110478427342222,0.03223969484346635,0.014310671393420193,0.027952155170728115,-0.011599707695236506
1.5106560560840623,0.022087028251984653,0.02672528228886391,0.011927341615445858,0.022235847074894743,-0.008868646692526648
1.5107275732389889,0.02474352062355467,0.018199340427971004,0.008315005741078718,0.014467918838411326,-0.005404619379404227
1.5107990903939155,0.028206425428266402,0.011761523710353126,0.006455089330600415,0.007542371639979981,-0.0014202126989801493
1.510870607548842,0.03156791810921427,0.008834378732671727,0.006924877381908108,0.003359733242680229,0.0020356860733451755
1.5109421247037687,0.034217944840168574,0.00921099521951876,0.0085255112555674,0.003681282885142413,0.0028485712602277576
1.5110136418586952,0.036025983655989566,0.012610117585398664,0.01161661354179527,0.0063819705142160775,0.002854144024311648
1.5110851590136218,0.03729532439305516,0.014271868160120856,0.013294021431409462,0.00891996710207805,0.0020505423021180704
1.5111566761685484,0.03854470610167679,0.012828041887382928,0.013163190298163863,0.011161790776651928,0.00027789827907584317
1.511228193323475,0.04022460916569971,0.011421324327840507,0.013651672900344249,0.011381476617179554,0.00043460694486034397
1.5112997104784016,0.04246467581659284,0.012342297957893789,0.01442102957265151,0.012343996650405947,0.00021764751938174005
1.5113712276333282,0.04493429586497486,0.017482941068519706,0.016921655013448497,0.016395944246506564,-0.0011822175307020383
1.5114427447882548,0.04689231770787431,0.023610830163741613,0.019784155718843215,0.021349949097254278,-0.003022186268965509
1.5115142619431814,0.047454803887083834,0.02633891560010236,0.02007376929597759,0.02396931789591397,-0.004802248495922434
