freq,gls,usurper,pdc_unbiased,shape_periodogram,shift_periodogram
1.5,0.031605246424144244,0.035084027848007744,0.022003088454338578,0.04329941122657738,0.00021142572260893913
1.5000715171549266,0.028595336453250155,0.02874506194218993,0.01679692217781675,0.04134560627876999,-0.003568004486538603
1.5001430343098532,0.024797888546036324,0.023617415060283066,0.011419584810450916,0.04044314747901929,-0.007971482115534612
1.5002145514647798,0.020789812632417533,0.022461766507891466,0.008796510756732951,0.039647692148605244,-0.009959063803775097
1.5002860686197064,0.017345459787468324,0.026271689641008098,0.009479677332466734,0.040655686473558064,-0.009801754237936146
1.500357585774633,0.015271945925960987,0.0316976417595335,0.011714688134418397,0.04238849926437172,-0.00858282101908129
1.5004291029295596,0.015165201318802408,0.038281430591349724,0.01415548030345099,0.04462521345093304,-0.007406208136349535
1.5005006200844861,0.01716595655706576,0.04406933395387666,0.016954003693511403,0.044406125952726506,-0.00480414096838409
1.5005721372394127,0.02086274426290797,0.0483442520960582,0.019187221778694714,0.042123160572746364,-0.0017792841094940656
1.5006436543943393,0.02544081002802935,0.05153880422950604,0.02137618975240262,0.04001634782430914,0.0011265061860209547
1.500715171549266,0.03000884122307953,0.054663634897056834,0.02421994995090846,0.03709381996365013,0.004984507666341188
1.5007866887041925,0.03391266896856934,0.058147161979101386,0.02666061786266369,0.0367825542508167,0.0073083710709882285
1.500858205859119,0.0368882624749449,0.06272120532436604,0.029368029530911475,0.038920376807713736,0.008771249536893407
1.5009297230140457,0.0390355018056212,0.06864004541661449,0.03287087235373193,0.042396112539191025,0.010346332961236814
1.5010012401689723,0.04067274274449097,0.07156331934465278,0.0349635290275476,0.04625771347475192,0.01048632621990592
1.5010727573238989,0.04213722341942038,0.07299296416300649,0.036798409825528795,0.04992117732400811,0.010484915746893279
1.5011442744788255,0.043587855733941964,0.074321559090751,0.03793328428010061,0.05406928081684953,0.00963865621321954
1.501215791633752,0.044880915226329254,0.07434021109597631,0.03824814004694497,0.057465311735988615,0.008394889074336416
1.5012873087886787,0.045592465454410994,0.07544128981567172,0.03896037083855539,0.061689007228567384,0.007135048337409261
1.5013588259436053,0.04519857422015515,0.07568729165311563,0.038338310339186395,0.06514811955168079,0.00502129779788529
1.5014303430985318,0.04331902735671992,0.07255636794961523,0.03525172960142179,0.06785280687124134,0.001034836298574719
1.5015018602534584,0.03989064242203222,0.06478951064079974,0.029380562295107576,0.06967994156491684,-0.0050542171880546445
1.501573377408385,0.035207008956161204,0.055383671218861605,0.02275340008029923,0.0701538873513021,-0.011208704669285387
1.5016448945633116,0.029854908046904056,0.046703627269390056,0.01716592382272006,0.0679695699431353,-0.015228927065344084
1.5017164117182382,0.02460404968418353,0.03941743653820893,0.01272729457488559,0.06463161792943689,-0.017697074290004302
1.5017879288731648,0.020274028275387688,0.03459036693036872,0.010756457121333964,0.06058113263174138,-0.017634029348751832
1.5018594460280914,0.01756978332877583,0.03180469510617173,0.009814843547662735,0.057179857566061004,-0.01694309791593409
1.501930963183018,0.016887968997375314,0.030179990243599908,0.009773529530205848,0.052190997197074415,-0.014732052224594096
1.5020024803379446,0.018154766828972088,0.028279466314067088,0.009545857603491862,0.046232076072538104,-0.012252255451443685
1.5020739974928712,0.020807783027131654,0.027226348809909703,0.00997328939183271,0.04107051940675901,-0.009547033811723754
1.5021455146477978,0.023992628107040868,0.02764236626147335,0.01144212206274167,0.03814088081021364,-0.006915691470493845
1.5022170318027244,0.026898257150269028,0.030253292607306095,0.014028974316248104,0.03762555056976059,-0.004370676868919503
1.502288548957651,0.029041972437567,0.03406193243910627,0.016679671046279716,0.039206880215896696,-0.002711066789367643
1.5023600661125776,0.03036170293294545,0.038931280856878636,0.019990738498687276,0.04086535365216139,-0.0004947872293806016
1.5024315832675041,0.031115659296329378,0.040245493597761826,0.02077896981185265,0.0427377243577167,-0.0006314202445851782
1.5025031004224307,0.031680428730509906,0.03829913926149849,0.019519808615351825,0.043569921616658146,-0.0021323523135039876
1.5025746175773573,0.032340192227813126,0.034927735255340944,0.018649627815208736,0.04255335836722869,-0.0024537339202299877
1.502646134732284,0.033131945974426154,0.031942800497621826,0.017871043624403338,0.040509125034853696,-0.002230958880914662
1.5027176518872105,0.033797027787609374,0.031020499445159062,0.01799769758677829,0.03959085349561396,-0.0017047420093917352
1.502789169042137,0.033871437590867574,0.03028924978935095,0.017486670760106647,0.03952924952012287,-0.0021341717375430234
1.5028606861970637,0.03289397904446062,0.027538638931341376,0.015274482970942199,0.03977925034986404,-0.004225323513427267
1.5029322033519903,0.030638444170610023,0.024221997197368072,0.012011118949132128,0.04040972704491757,-0.007427467142742023
1.5030037205069169,0.02725242384486997,0.022838452429577126,0.009441040885373031,0.042756425010433835,-0.010781594015070462
1.5030752376618435,0.023245599290448483,0.025037886774297115,0.008606550278537486,0.0458178534470659,-0.012905766937821908
1.50314675481677,0.019358366958489085,0.029356893454811583,0.008953985446160287,0.04827212328103019,-0.013700068195436515
1.5032182719716967,0.01638051368297583,0.034201891981109206,0.010426555451109277,0.05005004494373509,-0.013183654517199024
1.5032897891266233,0.01497089818834955,0.03810260782070068,0.012350463029946239,0.05009132269569003,-0.011481292143169059
1.5033613062815498,0.015499460648454992,0.0414033203249778,0.013981854206916533,0.04774420902857446,-0.008965212816056091
1.5034328234364764,0.01793079665045714,0.04199255749698093,0.01416864675154985,0.04266853131239011,-0.006514058501376335
1.503504340591403,0.021792554285279486,0.040502945436790165,0.013806564009865633,0.0364337008896969,-0.0040336157939419096
1.5035758577463296,0.026283745634476982,0.041391385576443326,0.015751292513310384,0.03240129235874148,-0.0004817195302835616
1.5036473749012562,0.03053094650102892,0.045207408905905515,0.019003856556851165,0.03176028620660074,0.002715065139281851
1.5037188920561828,0.03389868374654469,0.051501057642002704,0.02304438568669538,0.03529344438693483,0.0047416762972755004
1.5037904092111094,0.03619247413189749,0.06083298299217291,0.02836367437687625,0.040512877469318566,0.00715680331648718
1.503861926366036,0.03764566473947448,0.0689116724822522,0.03246316988130233,0.04561895339536712,0.008533525885789142
1.5039334435209626,0.038716510453014726,0.07372059564841082,0.03408384953452373,0.05084508466084749,0.007637216988082235
1.5040049606758892,0.0398171228344044,0.07648517349475213,0.03557140334761458,0.05562385610496538,0.006822619183302748
1.5040764778308158,0.041095739566223526,0.0803026765069721,0.037525773851031737,0.06051037715725271,0.006378166864044884
1.5041479949857424,0.04234364882306056,0.08357888883524951,0.038887791087543686,0.0642415307099131,0.005922105396012867
1.504219512140669,0.043051695709888996,0.08484309949369846,0.03921573232033744,0.06754793468057207,0.004729044722910687
1.5042910292955955,0.04260283060723393,0.08056757078328002,0.036347749549566495,0.06853474103831254,0.0017112139840826832
1.5043625464505221,0.04053910287302065,0.07036413758503626,0.030363706364527798,0.06730392987906555,-0.0031021044157300173
1.5044340636054487,0.03679439695722014,0.0577880022219581,0.02344001313236871,0.06443514737262919,-0.008015233236392034
1.5045055807603753,0.03178229372791513,0.04711304513550751,0.01698689592080203,0.06167949154480489,-0.012552702079850273
1.504577097915302,0.026296542555493532,0.039168259942833406,0.012446934359831944,0.05843947371169951,-0.015155838040179798
1.5046486150702285,0.021278189004975218,0.03612713964551752,0.011187449324425095,0.05693352563643518,-0.015604048340872659
1.504720132225155,0.017555651134353225,0.03487808722615157,0.011283372248322305,0.05506358111499253,-0.014675569638743004
1.5047916493800817,0.01564621916050789,0.03325014138873966,0.010644076718018416,0.052202740820698965,-0.013958638694211751
1.5048631665350083,0.015656872938766518,0.030021864975920826,0.009217644422453899,0.04770600589005407,-0.013209366276299045
1.5049346836899349,0.017286051262519187,0.027160590279261026,0.008230188330603324,0.0420176287136569,-0.011531809921623021
1.5050062008448615,0.019918755698584013,0.025203722749412336,0.007905738300784866,0.03750134136340183,-0.009789850450016898
1.505077717999788,0.022804926807040774,0.025375728151718728,0.009361654152707073,0.03411109028148388,-0.006963426939648691
1.5051492351547147,0.025289013466251117,0.028364943404210245,0.011726326065843064,0.03529472942790823,-0.005381557020192011
1.5052207523096413,0.027015644551186973,0.033056049114124,0.014241445734319206,0.03838971847421957,-0.004524318298035375
1.5052922694645678,0.028012475009877,0.03610331237004939,0.015961322224474977,0.03963353644101188,-0.00354546352902743
1.5053637866194944,0.028596359216805502,0.03420994785679078,0.014919408532213189,0.03934607213992774,-0.004348083206105898
1.505435303774421,0.02915112616185344,0.02892425434372072,0.013309044659559194,0.03752775466983773,-0.004970507511414641
1.5055068209293476,0.029900153036102176,0.024837385563222826,0.012321918805932341,0.03563224771258533,-0.005000791412919735
1.5055783380842742,0.030782681811496897,0.02401503308011545,0.01250866989698158,0.03433119545751772,-0.004248786635838027
1.5056498552392008,0.03146961942071043,0.026151032436851983,0.013496870470295333,0.034679413794578486,-0.0035217494356079046
1.5057213723941274,0.03149161794629547,0.02778600488707265,0.013134126432083434,0.03649520669956371,-0.004662586151687263
1.505792889549054,0.030427310908792447,0.027867910063670755,0.011855838401314541,0.0386235923799302,-0.00676286946017274
1.5058644067039806,0.02809465201809536,0.026860123225258017,0.009674998552531539,0.04044445278577304,-0.009532067561834553
1.5059359238589072,0.024683284499830333,0.024910161661953308,0.006168765257997816,0.04303432854355131,-0.013832469053239553
1.5060074410138338,0.020766913938386953,0.0235031992898581,0.003987129865862614,0.044695107050958846,-0.016530496380959107
1.5060789581687604,0.017165658691511196,0.024949188691422604,0.004506773893992003,0.04588167655051798,-0.01660020354718582
1.506150475323687,0.014695536880755058,0.0270341349036882,0.005603202541494299,0.046021374956777904,-0.015682849252558508
1.5062219924786135,0.013907828977730352,0.02823855108762293,0.006474304461408025,0.04411988376290435,-0.014047946295193379
1.5062935096335401,0.014929925183180436,0.02773914603383609,0.007024475314287043,0.03956880995781563,-0.011507854779269548
1.5063650267884667,0.01746107614733839,0.025013391961518482,0.006681651925523114,0.03218344907381358,-0.008492269473339208
1.5064365439433933,0.020900617081537138,0.024146404221512766,0.008103902228742074,0.026002765430493267,-0.004442314937849653
1.50650806109832,0.024545654709518663,0.0265163097250073,0.01119024144466396,0.021686627850290362,0.00025591820860443765
1.5065795782532465,0.027795889555703463,0.03305787334218527,0.015188716512202768,0.0229823551913167,0.0032478576524264794
1.506651095408173,0.030315638754338018,0.04334682226903872,0.02020329875354711,0.027902081897646043,0.005521214451589962
1.5067226125630997,0.03210575674634778,0.054382170982032595,0.02516307524326057,0.034409961708438914,0.007034177242677609
1.5067941297180263,0.03344435853615213,0.061343817369158074,0.02809340030703321,0.040749450937417275,0.006808576259440885
1.5068656468729529,0.03469846610783441,0.06315832055915388,0.028836225363534616,0.04420620489793663,0.005920340661318068
1.5069371640278795,0.03608805388876267,0.06242345806423448,0.029158238083419115,0.04578008962605034,0.005501358216480968
1.507008681182806,0.03753193323000867,0.061355295821093406,0.029645090979329304,0.046552263062695616,0.005590289267670538
1.5070801983377327,0.038657419159163646,0.059948490421856994,0.03000532215028713,0.04494359016297039,0.006635806968159137
1.5071517154926592,0.038950459296790155,0.05800066488751333,0.029635790998015537,0.04285064977826099,0.007245340385804035
1.5072232326475858,0.03795818995272562,0.052288209889568504,0.026170643808596194,0.03973125587505454,0.005545056499139161
1.5072947498025124,0.035465807062779846,0.045160331935393094,0.02167628316777021,0.03723238641018974,0.0026463665459212607
1.507366266957439,0.03160750390290827,0.04025071360667626,0.01779655130545853,0.036573920699692404,-0.0005282552446693848
1.5074377841123656,0.02689036393457737,0.03633795819843091,0.014369878001425985,0.03663761365237166,-0.0036215587738315856
1.5075093012672922,0.022110982309926926,0.032772281674634265,0.012274203971852665,0.03685394376880979,-0.005592852827718956
1.5075808184222188,0.018158898886019043,0.03065019285940437,0.010838451012952628,0.038537307476844154,-0.007633789822379021
1.5076523355771454,0.015750547010193554,0.029258689422219417,0.009985828883372298,0.03866182220744887,-0.008452164763832936
1.507723852732072,0.015198153002695225,0.0259133174253451,0.008495434228764531,0.034749146577751425,-0.008024753184222785
1.5077953698869986,0.01632710132796861,0.021335085477747297,0.006411917338543193,0.029092473703713553,-0.007343525514513277
1.5078668870419252,0.01858159605132472,0.01687379445648744,0.00521914285473996,0.02256508537348254,-0.005475319859397526
1.5079384041968518,0.02125563485920751,0.013298413325751317,0.005152249488431391,0.016467340462213025,-0.0027948459452594742
1.5080099213517784,0.023737553869918368,0.012172340918518912,0.0057615299185219465,0.013494468162868504,-0.0009146894690603435
1.508081438506705,0.025680396681245936,0.01466550283540028,0.007453924502377228,0.01349898388431792,0.0005955303803133356
1.5081529556616315,0.027059576075294776,0.01795504256957378,0.008842952470356694,0.015623045041598158,0.000882492769274945
1.5082244728165581,0.028112039179855254,0.018477065806837847,0.008942296206187028,0.017230473161416716,0.0002490816600004132
1.5082959899714847,0.029172386947160022,0.01760204308451648,0.008780907310022895,0.018857433659114946,-0.0006261519246166059
1.5083675071264113,0.03045818310099522,0.018492254207109295,0.010026451111954632,0.02138905227525295,-0.0006505347124125732
1.508439024281338,0.03190386747651281,0.0224834081116528,0.012747040105629182,0.0245394730784625,0.00036554928609468414
1.5085105414362645,0.03314377564440417,0.027970120976443965,0.01600259242207933,0.027329834563385707,0.0020221406459467995
1.508582058591191,0.03366149064758627,0.03253043768448527,0.0186299276568245,0.02926510809361532,0.003501843698555883
1.5086535757461177,0.03301661123576188,0.03251125464427325,0.017302793300784304,0.029776569342575648,0.0020852639571635476
1.5087250929010443,0.031031763736761156,0.028378647752240728,0.013978643770450466,0.029532034783567866,-0.0007770838217357166
1.5087966100559709,0.02787943173947238,0.022971782836331174,0.009773118861112214,0.028212874464008456,-0.003943761776868713
1.5088681272108975,0.024071143965329337,0.01798994695074888,0.005405399448016361,0.027840212462542622,-0.007680097116770466
1.508939644365824,0.020368522042175177,0.013840056985291864,0.002619426200917792,0.026892847251522866,-0.00974391720788314
1.5090111615207507,0.017622660517009992,0.011514893795749761,0.001280243020763253,0.02682379725754199,-0.010909566856279824
1.5090826786756772,0.016549556574789192,0.010227804646368611,0.001094148915450876,0.026341606820161012,-0.010859063269652183
1.5091541958306038,0.01749078347259404,0.00976090708989102,0.001728275756159572,0.02396913953309878,-0.009225866952692554
1.5092257129855304,0.02026609634215111,0.010221599523104375,0.002622344403247119,0.020053133405849015,-0.0066668294497899145
1.509297230140457,0.024225306810832306,0.013092318908546612,0.005090188490138515,0.01570065755006697,-0.002505809636952841
1.5093687472953836,0.028505184243561566,0.019685123889047768,0.010396256019729185,0.014568290037704898,0.002744433712456877
1.5094402644503102,0.032363241212534366,0.029750054192394373,0.017181792517199104,0.016920082069914355,0.007752600748475862
1.5095117816052368,0.035420479974014,0.041575636168296654,0.023785576506019895,0.021522104946944686,0.01158993036838391
1.5095832987601634,0.03772295943106026,0.05087704073644356,0.028541189697550762,0.025128615533765403,0.014224038396317565
1.50965481591509,0.039632532833370364,0.05367787845838919,0.030196375009199177,0.026661771610052815,0.015016574009503394
1.5097263330700166,0.041605230836871475,0.049659627777828536,0.028415936049993602,0.026430996374576844,0.01352736435598829
1.5097978502249432,0.04392716574129624,0.04303111953186294,0.026087173799228647,0.023946154146835073,0.012559881096526272
1.5098693673798698,0.04649881119729661,0.038733652912340405,0.025125670272120693,0.02083997920743501,0.013094513333584846
1.5099408845347964,0.048782229516577,0.03789236266909978,0.025898717163670308,0.019062917736488917,0.014583529447769042
1.510012401689723,0.04998265464348263,0.039549907129873545,0.027970420605425636,0.017628490996197257,0.01707989103470898
1.5100839188446495,0.04939582665258717,0.03930926380397069,0.02744804663090382,0.016325522455563037,0.01719757563528646
1.5101554359995761,0.046726633743720845,0.03589961022981363,0.024915387052692306,0.015443333838097083,0.015329112362508675
1.5102269531545027,0.04221494386441091,0.03254869099486557,0.022036546886626967,0.014845148488575889,0.01302400812686504
1.5102984703094293,0.0365554045951188,0.031189112690818414,0.019143160662124768,0.01699246520694896,0.009473335140827807
1.510369987464356,0.030705701566729478,0.0316213728397563,0.01712115674686206,0.02034663371952258,0.006159372157166625
1.5104415046192825,0.025671938650474672,0.03351140184949149,0.016152578444133103,0.02382058583227745,0.0037329377184347496
1.510513021774209,0.02230380117340663,0.03587992164487725,0.01595046449902194,0.026221192876770272,0.002473678861605742
1.5105845389291357,0.02110478427342222,0.03518222143999805,0.014310671393420193,0.024952350584397095,0.0015778078871759261
1.5106560560840623,0.022087028251984653,0.030746606596613373,0.011927341615445858,0.020143094331439584,0.0016082541904072262
1.5107275732389889,0.02474352062355467,0.022977250234821896,0.008315005741078718,0.012620662989039494,0.0017595578588402415
1.5107990903939155,0.028206425428266402,0.0168920536167512,0.006455089330600415,0.005818535625121576,0.003153369318954654
1.510870607548842,0.03156791810921427,0.013844556997951257,0.006924877381908108,0.0016952738844247053,0.005425300633514098
1.5109421247037687,0.034217944840168574,0.014990345116708015,0.0085255112555674,0.0022604137411710652,0.006601527213183321
1.5110136418586952,0.036025983655989566,0.020234279776089024,0.01161661354179527,0.0055254150960425755,0.007896851471779126
1.5110851590136218,0.03729532439305516,0.02375060217579019,0.013294021431409462,0.009125236407466255,0.007778886258194191
1.5111566761685484,0.03854470610167679,0.024538784489051963,0.013163190298163863,0.012799918347796127,0.006011483384532235
1.511228193323475,0.04022460916569971,0.025068063541374516,0.013651672900344249,0.015791564779235278,0.0051042650023025
1.5112997104784016,0.04246467581659284,0.0272600815579473,0.01442102957265151,0.019422444546592796,0.004160898772654726
1.5113712276333282,0.04493429586497486,0.03259910511414667,0.016921655013448497,0.024041384649809237,0.004321310563240865
1.5114427447882548,0.04689231770787431,0.03763405356193918,0.019784155718843215,0.027507325948510002,0.005323731012763131
1.5115142619431814,0.047454803887083834,0.03858178791509557,0.02007376929597759,0.02865641788322973,0.005066499488939773
1.511585779098108,0.04599085839647899,0.03386010219366666,0.017243949592298295,0.02783669238825481,0.0029043144435341077
