freq,gls,usurper,pdc_unbiased,shape_periodogram,shift_periodogram
1.5,0.031605246424144244,0.035226913870333325,0.022003088454338578,0.0330900097883688,0.0064206048683316756
1.5000715171549266,0.028595336453250155,0.02806522057427708,0.01679692217781675,0.02612335671225747,0.004543253955364209
1.5001430343098532,0.024797888546036324,0.02237253953980359,0.011419584810450916,0.020073782481077152,0.0021340478458162625
1.5002145514647798,0.020789812632417533,0.02121448225728067,0.008796510756732951,0.014782607457807628,0.001923835316469088
1.5002860686197064,0.017345459787468324,0.024678426736454217,0.009479677332466734,0.011141998869554531,0.004046609659486889
1.500357585774633,0.015271945925960987,0.030016553238055924,0.011714688134418397,0.009802391570859915,0.006635358673316012
1.5004291029295596,0.015165201318802408,0.035908775865484195,0.01415548030345099,0.011481530543371246,0.008167996556431622
1.5005006200844861,0.01716595655706576,0.04110735950633564,0.016954003693511403,0.013747179896757495,0.009785357158032594
1.5005721372394127,0.02086274426290797,0.044973534169468254,0.019187221778694714,0.01695521571451539,0.010499657379243523
1.5006436543943393,0.02544081002802935,0.04849814351094789,0.02137618975240262,0.020004096308757012,0.011239592052739793
1.500715171549266,0.03000884122307953,0.05243240573483462,0.02421994995090846,0.021595779695236083,0.013177193007983458
1.5007866887041925,0.03391266896856934,0.05758076275499785,0.02666061786266369,0.02605814482989005,0.0135657465947863
1.500858205859119,0.0368882624749449,0.06342231726093284,0.029368029530911475,0.03186651275134764,0.013644302319833223
1.5009297230140457,0.0390355018056212,0.06948335918630363,0.03287087235373193,0.03897690450404011,0.013914080152903073
1.5010012401689723,0.04067274274449097,0.07144085484966511,0.0349635290275476,0.044819990255760715,0.013419333143552202
1.5010727573238989,0.04213722341942038,0.07097783890695131,0.036798409825528795,0.04844662092138424,0.013602393730594155
1.5011442744788255,0.043587855733941964,0.07030238982929701,0.03793328428010061,0.052037505734344035,0.013160850631424354
1.501215791633752,0.044880915226329254,0.06984640493587385,0.03824814004694497,0.05521651629321205,0.012139285863477884
1.5012873087886787,0.045592465454410994,0.07095084569711448,0.03896037083855539,0.059564338522872434,0.010999278754634254
1.5013588259436053,0.04519857422015515,0.07016609889664877,0.038338310339186395,0.061195461358926874,0.009758024811531246
1.5014303430985318,0.04331902735671992,0.06628229118827662,0.03525172960142179,0.062146982566768864,0.006542548568311858
1.5015018602534584,0.03989064242203222,0.05789535856823007,0.029380562295107576,0.060419012859045156,0.0018876304176132202
1.501573377408385,0.035207008956161204,0.047729581207795274,0.02275340008029923,0.057764443667010855,-0.0030715551236076854
1.5016448945633116,0.029854908046904056,0.038388986716481,0.01716592382272006,0.052438289173274,-0.005973837700609466
1.5017164117182382,0.02460404968418353,0.03054969954315764,0.01272729457488559,0.04558462152791269,-0.007194377916356862
1.5017879288731648,0.020274028275387688,0.025286895402935557,0.010756457121333964,0.03935534932146003,-0.006421071017433408
1.5018594460280914,0.01756978332877583,0.02231104759650074,0.009814843547662735,0.03563044789297502,-0.0057429119036513125
1.501930963183018,0.016887968997375314,0.021240316299558276,0.009773529530205848,0.03270132308348327,-0.004572374892555264
1.5020024803379446,0.018154766828972088,0.01988704498639284,0.009545857603491862,0.030855564527290616,-0.004018731456597482
1.5020739974928712,0.020807783027131654,0.02044867363614597,0.00997328939183271,0.029923715843266963,-0.003244781631602839
1.5021455146477978,0.023992628107040868,0.023784733493205597,0.01144212206274167,0.030248978183513766,-0.0020397540846074417
1.5022170318027244,0.026898257150269028,0.029799659806029305,0.014028974316248104,0.03265783641147712,-0.0006742438961265927
1.502288548957651,0.029041972437567,0.035890121527239166,0.016679671046279716,0.03577063445570467,0.00045972403692802634
1.5023600661125776,0.03036170293294545,0.04186545752411097,0.019990738498687276,0.03938889381178328,0.0019883583100958947
1.5024315832675041,0.031115659296329378,0.042686799423016834,0.02077896981185265,0.041677755218047396,0.0017638002039099367
1.5025031004224307,0.031680428730509906,0.039237899901021285,0.019519808615351825,0.042569220327923186,0.00024715868004203487
1.5025746175773573,0.032340192227813126,0.034049158087819,0.018649627815208736,0.04078895710914487,0.00018740305698683555
1.502646134732284,0.033131945974426154,0.030439405321164566,0.017871043624403338,0.03772135202546954,0.0007421108093930695
1.5027176518872105,0.033797027787609374,0.029655095193737963,0.01799769758677829,0.03651055181794934,0.001356888062336505
1.502789169042137,0.033871437590867574,0.027996110376581913,0.017486670760106647,0.03424779118923648,0.001823646924888297
1.5028606861970637,0.03289397904446062,0.024238428505413565,0.015274482970942199,0.03184276024942147,0.0007976042545650694
1.5029322033519903,0.030638444170610023,0.02056517294343826,0.012011118949132128,0.029605681310347513,-0.001255737751869638
1.5030037205069169,0.02725242384486997,0.018848926857977736,0.009441040885373031,0.02775744098930124,-0.0028367762394505345
1.5030752376618435,0.023245599290448483,0.021320043949416743,0.008606550278537486,0.026677814022417694,-0.0031523465340050987
1.50314675481677,0.019358366958489085,0.026130320661429077,0.008953985446160287,0.02514282770978112,-0.0022027938441803183
1.5032182719716967,0.01638051368297583,0.031623722415814966,0.010426555451109277,0.023237951099745958,-7.524448448040623e-05
1.5032897891266233,0.01497089818834955,0.03623764131065997,0.012350463029946239,0.02178755458443595,0.0022762950112241763
1.5033613062815498,0.015499460648454992,0.0395172422657207,0.013981854206916533,0.020461113314570196,0.004310047647708792
1.5034328234364764,0.01793079665045714,0.03946905422027589,0.01416864675154985,0.01790497993560033,0.005533563349272392
1.503504340591403,0.021792554285279486,0.038516809556657476,0.013806564009865633,0.015225480165931287,0.006307524929219241
1.5035758577463296,0.026283745634476982,0.041526662394107364,0.015751292513310384,0.014872155416062245,0.008225665582563527
1.5036473749012562,0.03053094650102892,0.04811058641776926,0.019003856556851165,0.01836767828430819,0.009750697513220804
1.5037188920561828,0.03389868374654469,0.057066715565800154,0.02304438568669538,0.02550557468019094,0.01049494384112977
1.5037904092111094,0.03619247413189749,0.06781345308873701,0.02836367437687625,0.0330186430607971,0.012253374037519516
1.503861926366036,0.03764566473947448,0.0759038692436541,0.03246316988130233,0.04002623996145279,0.013109751008686136
1.5039334435209626,0.038716510453014726,0.08023675032233304,0.03408384953452373,0.04706797963619791,0.011689910042774584
1.5040049606758892,0.0398171228344044,0.0821144983674494,0.03557140334761458,0.052619520498408394,0.010762216497125466
1.5040764778308158,0.041095739566223526,0.08634316444140241,0.037525773851031737,0.05802343512149489,0.01032222590949819
1.5041479949857424,0.04234364882306056,0.09086675596162855,0.038887791087543686,0.06374489814520191,0.009209751073950475
1.504219512140669,0.043051695709888996,0.09301027576104923,0.03921573232033744,0.0689381196466339,0.007368209549088341
1.5042910292955955,0.04260283060723393,0.08783860884879247,0.036347749549566495,0.0714291689157329,0.003715069175073187
1.5043625464505221,0.04053910287302065,0.07525159446827623,0.030363706364527798,0.07010016672895003,-0.001211205259770399
1.5044340636054487,0.03679439695722014,0.05887506865658719,0.02344001313236871,0.06429781436977439,-0.005143174447458274
1.5045055807603753,0.03178229372791513,0.04456041329363563,0.01698689592080203,0.05825777593773625,-0.008541202410348876
1.504577097915302,0.026296542555493532,0.035013959473106746,0.012446934359831944,0.052145576181848174,-0.010159526952825642
1.5046486150702285,0.021278189004975218,0.031224286721112354,0.011187449324425095,0.04629952753915163,-0.008894198144328366
1.504720132225155,0.017555651134353225,0.029454981071631053,0.011283372248322305,0.04168470258254079,-0.006901756248732337
1.5047916493800817,0.01564621916050789,0.02764458784480026,0.010644076718018416,0.038898742537712194,-0.006335151039369002
1.5048631665350083,0.015656872938766518,0.024722360491736255,0.009217644422453899,0.035603130185773206,-0.0062761692013691165
1.5049346836899349,0.017286051262519187,0.022715256538893593,0.008230188330603324,0.03226172124918652,-0.005798130881493764
1.5050062008448615,0.019918755698584013,0.022691107185258564,0.007905738300784866,0.028585234544986828,-0.004577680001078009
1.505077717999788,0.022804926807040774,0.025362828436165497,0.009361654152707073,0.025559372814214436,-0.0020029094276400607
1.5051492351547147,0.025289013466251117,0.03153265705364065,0.011726326065843064,0.02734043107846909,-0.0005814864023439544
1.5052207523096413,0.027015644551186973,0.037557896753067956,0.014241445734319206,0.029978670826431263,0.0006240753148320299
1.5052922694645678,0.028012475009877,0.040270571935657355,0.015961322224474977,0.03060353702704994,0.001934802090325756
1.5053637866194944,0.028596359216805502,0.03611675970993179,0.014919408532213189,0.029096415206944448,0.0016059535364563204
1.505435303774421,0.02915112616185344,0.027417555208580482,0.013309044659559194,0.02477116389527604,0.0019204885806597567
1.5055068209293476,0.029900153036102176,0.021143450690763753,0.012321918805932341,0.020995596785580023,0.0025766553704268517
1.5055783380842742,0.030782681811496897,0.020028000535710848,0.01250866989698158,0.019505457583055507,0.003360968986188046
1.5056498552392008,0.03146961942071043,0.02291078781796878,0.013496870470295333,0.021120174880093403,0.0035963615971553523
1.5057213723941274,0.03149161794629547,0.024929654521341247,0.013134126432083434,0.023506906180073766,0.0022820835692783487
1.505792889549054,0.030427310908792447,0.024991441321663605,0.011855838401314541,0.026024370291216993,7.910845232289973e-05
1.5058644067039806,0.02809465201809536,0.0228497296335633,0.009674998552531539,0.026487436766265686,-0.0020998851314785005
1.5059359238589072,0.024683284499830333,0.01912636022810789,0.006168765257997816,0.025492782567488107,-0.004885809508758234
1.5060074410138338,0.020766913938386953,0.01681555075868181,0.003987129865862614,0.023631132844888283,-0.006106595165620532
1.5060789581687604,0.017165658691511196,0.018075459749457103,0.004506773893992003,0.02044857365383223,-0.004320914972979472
1.506150475323687,0.014695536880755058,0.020761865335305718,0.005603202541494299,0.018384990596153162,-0.0024710550471743454
1.5062219924786135,0.013907828977730352,0.02300527619708391,0.006474304461408025,0.017130775493368368,-0.0011602321713927314
1.5062935096335401,0.014929925183180436,0.022800277237884175,0.007024475314287043,0.014128616101776443,0.0005784437237305668
1.5063650267884667,0.01746107614733839,0.021169953060795613,0.006681651925523114,0.01226218119082572,0.0010351974805120126
1.5064365439433933,0.020900617081537138,0.022694016560074155,0.008103902228742074,0.010939364544904141,0.0028763727724519417
1.50650806109832,0.024545654709518663,0.027601674420863514,0.01119024144466396,0.009064290678657013,0.006461529916327196
1.5065795782532465,0.027795889555703463,0.03667194001673741,0.015188716512202768,0.010930244334708386,0.009336790322644041
1.506651095408173,0.030315638754338018,0.04852852546054924,0.02020329875354711,0.015006784473640105,0.012228433077615687
1.5067226125630997,0.03210575674634778,0.060517767598081265,0.02516307524326057,0.0205736492160757,0.014458124947463333
1.5067941297180263,0.03344435853615213,0.06775807212165694,0.02809340030703321,0.026247793445703736,0.014794662505901248
1.5068656468729529,0.03469846610783441,0.0687870310697761,0.028836225363534616,0.030111860315761615,0.013881487349555997
1.5069371640278795,0.03608805388876267,0.06776589551940096,0.029158238083419115,0.032569606596246435,0.013163358809623736
1.507008681182806,0.03753193323000867,0.0675333194603358,0.029645090979329304,0.035982908868820086,0.012202129402250437
1.5070801983377327,0.038657419159163646,0.0679093935561844,0.03000532215028713,0.0395605092223635,0.011057523550448449
1.5071517154926592,0.038950459296790155,0.06649649633581732,0.029635790998015537,0.041432250446089516,0.009949141320068742
1.5072232326475858,0.03795818995272562,0.06041514018865122,0.026170643808596194,0.04240281882332532,0.006385794736230302
1.5072947498025124,0.035465807062779846,0.052634394267825575,0.02167628316777021,0.04211166372813269,0.0024037294197299824
1.507366266957439,0.03160750390290827,0.04607040619723317,0.01779655130545853,0.0407386364531292,-0.0005701564300872234
1.5074377841123656,0.02689036393457737,0.040473843029872926,0.014369878001425985,0.03918717433042998,-0.0030561141790664673
1.5075093012672922,0.022110982309926926,0.03524365324448718,0.012274203971852665,0.03582955178158474,-0.003582430629310954
1.5075808184222188,0.018158898886019043,0.031613718465228494,0.010838451012952628,0.033465501706264444,-0.003916587224333563
1.5076523355771454,0.015750547010193554,0.02877458357003062,0.009985828883372298,0.030830290002304566,-0.003607190231146758
1.507723852732072,0.015198153002695225,0.023924980852269587,0.008495434228764531,0.0267767141903882,-0.003294412572261027
1.5077953698869986,0.01632710132796861,0.017786688513237878,0.006411917338543193,0.02191464468655761,-0.0031889927305517817
1.5078668870419252,0.01858159605132472,0.012968186470174186,0.00521914285473996,0.016917801055851004,-0.0022163090096089014
1.5079384041968518,0.02125563485920751,0.009912241392403452,0.005152249488431391,0.011378943827534592,5.498684713031881e-06
1.5080099213517784,0.023737553869918368,0.009233775085278421,0.0057615299185219465,0.007272747908772361,0.0022527995752744633
1.508081438506705,0.025680396681245936,0.011131004909555705,0.007453924502377228,0.004073901430270027,0.005113022924798762
1.5081529556616315,0.027059576075294776,0.013255816174545475,0.008842952470356694,0.0016557592648892706,0.0073750593978520644
1.5082244728165581,0.028112039179855254,0.01243166705539141,0.008942296206187028,-0.0008145450768287917,0.008483435997373653
1.5082959899714847,0.029172386947160022,0.009610440863999373,0.008780907310022895,-0.002949650166555544,0.009216153021513252
1.5083675071264113,0.03045818310099522,0.009052577271744296,0.010026451111954632,-0.0038565735136192433,0.0107247170785737
1.508439024281338,0.03190386747651281,0.013708766118172325,0.012747040105629182,-0.0016855280136236874,0.012309040159685867
1.5085105414362645,0.03314377564440417,0.021090173068570427,0.01600259242207933,0.003430077426783243,0.01316807005178706
1.508582058591191,0.03366149064758627,0.026956417872476407,0.0186299276568245,0.008478973354826422,0.013482819015543475
1.5086535757461177,0.03301661123576188,0.027293645559723877,0.017302793300784304,0.011149152986673861,0.011173429627519599
1.5087250929010443,0.031031763736761156,0.02283475906754456,0.013978643770450466,0.011862240451761175,0.0078499863540146
1.5087966100559709,0.02787943173947238,0.01676839504405926,0.009773118861112214,0.010539043488479961,0.004562468712475678
1.5088681272108975,0.024071143965329337,0.011316695667183132,0.005405399448016361,0.009636750875285963,0.0009541303937904254
1.508939644365824,0.020368522042175177,0.006960800021519821,0.002619426200917792,0.007141103501391427,-0.0005560210280731066
1.5090111615207507,0.017622660517009992,0.004757483061959513,0.001280243020763253,0.0049735238392410175,-0.0008830043923943684
1.5090826786756772,0.016549556574789192,0.0035187348860478205,0.001094148915450876,0.0043917465319245315,-0.0008128227006822155
1.5091541958306038,0.01749078347259404,0.0028355932823390354,0.001728275756159572,0.0038002035562102786,8.732663023770673e-06
1.5092257129855304,0.02026609634215111,0.0027918377737466958,0.002622344403247119,0.0019431011371637778,0.0015886416115606014
1.509297230140457,0.024225306810832306,0.006370671544742044,0.005090188490138515,0.0010512582068663132,0.004204738842299039
1.5093687472953836,0.028505184243561566,0.015733450030472988,0.010396256019729185,0.0023922037413453535,0.008486981411211262
1.5094402644503102,0.032363241212534366,0.029445977718318594,0.017181792517199104,0.006001964449937228,0.013183274846251435
1.5095117816052368,0.035420479974014,0.04521951800240874,0.023785576506019895,0.01086958841240481,0.017197655591839
1.5095832987601634,0.03772295943106026,0.05718445590550694,0.028541189697550762,0.015062461580795702,0.019807281157795023
1.50965481591509,0.039632532833370364,0.06108002846852124,0.030196375009199177,0.017259840669212347,0.02041228620886614
1.5097263330700166,0.041605230836871475,0.05565020879360691,0.028415936049993602,0.016350684182045556,0.01916284975141458
1.5097978502249432,0.04392716574129624,0.046536271323309314,0.026087173799228647,0.011564137480403946,0.019009864390047933
1.5098693673798698,0.04649881119729661,0.041285475640240786,0.025125670272120693,0.00727140308729649,0.019900625196429458
1.5099408845347964,0.048782229516577,0.04148225902796605,0.025898717163670308,0.007388646457839288,0.020556991993427323
1.510012401689723,0.04998265464348263,0.0450818379265467,0.027970420605425636,0.010229393600962011,0.021276144688921993
1.5100839188446495,0.04939582665258717,0.04647078986123296,0.02744804663090382,0.013222606929645225,0.019567862439877695
1.5101554359995761,0.046726633743720845,0.04456214736647016,0.024915387052692306,0.015278798488421216,0.016412285741122277
1.5102269531545027,0.04221494386441091,0.04196380516534125,0.022036546886626967,0.016385691902281996,0.013331835717307226
1.5102984703094293,0.0365554045951188,0.04088307146500186,0.019143160662124768,0.017994834575226135,0.010031272748742368
1.510369987464356,0.030705701566729478,0.04193215428652965,0.01712115674686206,0.020001092686762475,0.007361434305538802
1.5104415046192825,0.025671938650474672,0.044094207660424094,0.016152578444133103,0.02089263044452446,0.0061111119436764215
1.510513021774209,0.02230380117340663,0.04602912794943649,0.01595046449902194,0.022004808901573004,0.005468602000534288
1.5105845389291357,0.02110478427342222,0.043840911502123873,0.014310671393420193,0.02166981120702476,0.004111727962218566
1.5106560560840623,0.022087028251984653,0.03616083449583122,0.011927341615445858,0.017607083950427885,0.0036133705919394227
1.5107275732389889,0.02474352062355467,0.024347530375171282,0.008315005741078718,0.011405332838624244,0.002876737926953544
1.5107990903939155,0.028206425428266402,0.014679384491504056,0.006455089330600415,0.004404312709775656,0.004066744687052084
1.510870607548842,0.03156791810921427,0.00931354729536647,0.006924877381908108,-0.0014497446513211981,0.006906991804740505
1.5109421247037687,0.034217944840168574,0.008645480638726775,0.0085255112555674,-0.004882961463019309,0.00978010078562721
1.5110136418586952,0.036025983655989566,0.012023623378982851,0.01161661354179527,-0.006063358635736084,0.013082873478770699
1.5110851590136218,0.03729532439305516,0.013972522259588236,0.013294021431409462,-0.006141412258249826,0.014643346149351567
1.5111566761685484,0.03854470610167679,0.012277398600190474,0.013163190298163863,-0.005927422476452716,0.014435970807291549
1.511228193323475,0.04022460916569971,0.010190266388678898,0.013651672900344249,-0.00728864976447072,0.015441923887088602
1.5112997104784016,0.04246467581659284,0.011353219981851934,0.01442102957265151,-0.007813715578344814,0.01635923882715095
1.5113712276333282,0.04493429586497486,0.017645057604463946,0.016921655013448497,-0.00590902505263816,0.01785279288161076
1.5114427447882548,0.04689231770787431,0.025036072167536602,0.019784155718843215,-0.0027691083612575943,0.019167466965765108
1.5115142619431814,0.047454803887083834,0.0286978449628985,0.02007376929597759,0.0007605714203500708,0.017977545352586832
