freq,gls,usurper,pdc_unbiased,shape_periodogram,shift_periodogram
1.5,0.031605246424144244,0.02927864331765925,0.022003088454338578,0.028282441310997813,0.003922106760578724
1.5000715171549266,0.028595336453250155,0.02268669886717432,0.01679692217781675,0.022137621582646757,0.0027053845337427543
1.5001430343098532,0.024797888546036324,0.016984737391892345,0.011419584810450916,0.017052171661675636,0.0007891447301769305
1.5002145514647798,0.020789812632417533,0.015144959334408565,0.008796510756732951,0.01254685849575959,0.0009160658685382204
1.5002860686197064,0.017345459787468324,0.017492830907111866,0.009479677332466734,0.010531353744979606,0.0025543582576947953
1.500357585774633,0.015271945925960987,0.02166765372676751,0.011714688134418397,0.010705883525640609,0.0043667381908997875
1.5004291029295596,0.015165201318802408,0.026539882513268703,0.01415548030345099,0.0138494518933084,0.004798606295271412
1.5005006200844861,0.01716595655706576,0.031234932708139918,0.016954003693511403,0.016548692245643228,0.005768448943954937
1.5005721372394127,0.02086274426290797,0.03486638475971989,0.019187221778694714,0.01939850077681798,0.00617806105819653
1.5006436543943393,0.02544081002802935,0.03804201268976126,0.02137618975240262,0.022553448910611222,0.006390380663242755
1.500715171549266,0.03000884122307953,0.04157558609963811,0.02421994995090846,0.02478969926969107,0.007642770740277262
1.5007866887041925,0.03391266896856934,0.04550313933055555,0.02666061786266369,0.03027060906709979,0.0068516749739521016
1.500858205859119,0.0368882624749449,0.04989244898414743,0.029368029530911475,0.03712729247673791,0.005567319861764115
1.5009297230140457,0.0390355018056212,0.05467664336025533,0.03287087235373193,0.045343920368185554,0.004249073405275164
1.5010012401689723,0.04067274274449097,0.056383807173973774,0.0349635290275476,0.051561906716842014,0.0027748413351645356
1.5010727573238989,0.04213722341942038,0.05654929236782642,0.036798409825528795,0.05550295653541704,0.002274842594980995
1.5011442744788255,0.043587855733941964,0.05647185193047648,0.03793328428010061,0.058912108607722995,0.0014556616245018574
1.501215791633752,0.044880915226329254,0.05618129545330677,0.03824814004694497,0.06186713286358345,0.00017345605460762046
1.5012873087886787,0.045592465454410994,0.057140457270431065,0.03896037083855539,0.06498391782535042,-0.0008542726593199691
1.5013588259436053,0.04519857422015515,0.056517949301972306,0.038338310339186395,0.06533083818344007,-0.0015686085455574705
1.5014303430985318,0.04331902735671992,0.05285585594174065,0.03525172960142179,0.06553655195071785,-0.004316362221601693
1.5015018602534584,0.03989064242203222,0.045190744028193314,0.029380562295107576,0.06276210603695397,-0.007876370308670676
1.501573377408385,0.035207008956161204,0.036307247524440714,0.02275340008029923,0.05885018212365042,-0.011479801750039969
1.5016448945633116,0.029854908046904056,0.028405681146200717,0.01716592382272006,0.05207640313153735,-0.01268814088924574
1.5017164117182382,0.02460404968418353,0.021815841753120083,0.01272729457488559,0.0443491853780434,-0.012414778460485
1.5017879288731648,0.020274028275387688,0.017971878102722404,0.010756457121333964,0.037757939743616194,-0.010634813809840141
1.5018594460280914,0.01756978332877583,0.016078779906894727,0.009814843547662735,0.03380788136017078,-0.009364583553462341
1.501930963183018,0.016887968997375314,0.015797809399985832,0.009773529530205848,0.03024863728339689,-0.007532645667885669
1.5020024803379446,0.018154766828972088,0.015264439703777019,0.009545857603491862,0.026985157069902895,-0.006015011598625065
1.5020739974928712,0.020807783027131654,0.016023970407833467,0.00997328939183271,0.024815170571495956,-0.004512896518184624
1.5021455146477978,0.023992628107040868,0.018564868471141215,0.01144212206274167,0.02432051305427028,-0.0030020225932952008
1.5022170318027244,0.026898257150269028,0.022875765448461153,0.014028974316248104,0.026698825153095906,-0.002044719016483486
1.502288548957651,0.029041972437567,0.02737077926710089,0.016679671046279716,0.030202282290934832,-0.0016226372241928391
1.5023600661125776,0.03036170293294545,0.03219543335614139,0.019990738498687276,0.03462755596220894,-0.0011205711417047316
1.5024315832675041,0.031115659296329378,0.03280754134426697,0.02077896981185265,0.03736953571645277,-0.001886581632737777
1.5025031004224307,0.031680428730509906,0.029964666847961622,0.019519808615351825,0.03824241269064155,-0.00341824982594346
1.5025746175773573,0.032340192227813126,0.02648341201994383,0.018649627815208736,0.03650243302521833,-0.0032474815559547523
1.502646134732284,0.033131945974426154,0.02416542100546933,0.017871043624403338,0.0335639074127438,-0.0023699820835177523
1.5027176518872105,0.033797027787609374,0.023874366054775935,0.01799769758677829,0.03215028701511508,-0.001520634504170385
1.502789169042137,0.033871437590867574,0.022794709823910585,0.017486670760106647,0.029650665443912042,-0.0006454923527175477
1.5028606861970637,0.03289397904446062,0.019601282616061828,0.015274482970942199,0.02738134936553357,-0.001341126918391153
1.5029322033519903,0.030638444170610023,0.015828913002086848,0.012011118949132128,0.02544877088457197,-0.003108777695152352
1.5030037205069169,0.02725242384486997,0.013701254205565977,0.009441040885373031,0.024062157958563635,-0.004571526108888497
1.5030752376618435,0.023245599290448483,0.014838378204022399,0.008606550278537486,0.022926915831338657,-0.004687228157119462
1.50314675481677,0.019358366958489085,0.01783006668197269,0.008953985446160287,0.02208438095841447,-0.003949474437536152
1.5032182719716967,0.01638051368297583,0.02180589277443196,0.010426555451109277,0.021694428991085733,-0.002490448140541771
1.5032897891266233,0.01497089818834955,0.025703150660532144,0.012350463029946239,0.02195557544570824,-0.0009881535100198118
1.5033613062815498,0.015499460648454992,0.028863233437694216,0.013981854206916533,0.021959136026826732,0.0004000563099834721
1.5034328234364764,0.01793079665045714,0.0293739936597039,0.01416864675154985,0.019972551179069476,0.0016005865087445645
1.503504340591403,0.021792554285279486,0.02896831637871902,0.013806564009865633,0.01772594804317843,0.0024696467849683675
1.5035758577463296,0.026283745634476982,0.031650269885666674,0.015751292513310384,0.0184486847638163,0.0037478660622666006
1.5036473749012562,0.03053094650102892,0.03676714028363136,0.019003856556851165,0.023329244844905592,0.003961690777521258
1.5037188920561828,0.03389868374654469,0.043492677890649735,0.02304438568669538,0.03140211292426542,0.0031745810372566987
1.5037904092111094,0.03619247413189749,0.05175711357258138,0.02836367437687625,0.04003776231002374,0.0031842793224395203
1.503861926366036,0.03764566473947448,0.057965392657975505,0.03246316988130233,0.047914061007475285,0.002552862977656463
1.5039334435209626,0.038716510453014726,0.06066360844422521,0.03408384953452373,0.05564444024637634,-0.00011922476437628453
1.5040049606758892,0.0398171228344044,0.0619536701296321,0.03557140334761458,0.06119845413064419,-0.0017640425211320598
1.5040764778308158,0.041095739566223526,0.06510324734071608,0.037525773851031737,0.06618591399254274,-0.0027128433952295513
1.5041479949857424,0.04234364882306056,0.06817209769221518,0.038887791087543686,0.07136686571593107,-0.004270608153935578
1.504219512140669,0.043051695709888996,0.06949582020405426,0.03921573232033744,0.07561379838083936,-0.006223361124891676
1.5042910292955955,0.04260283060723393,0.06506462674501985,0.036347749549566495,0.0773477195785488,-0.009590483123117069
1.5043625464505221,0.04053910287302065,0.05470300463056833,0.030363706364527798,0.07477709125052491,-0.013355988054492288
1.5044340636054487,0.03679439695722014,0.041913819591440506,0.02344001313236871,0.06745070779892955,-0.0154162975623875
1.5045055807603753,0.03178229372791513,0.030818528408431113,0.01698689592080203,0.059690260211956364,-0.016842589682816548
1.504577097915302,0.026296542555493532,0.023277549078342605,0.012446934359831944,0.052183424448355234,-0.01676880418886917
1.5046486150702285,0.021278189004975218,0.02059444356793109,0.011187449324425095,0.04565609147582828,-0.014413706430151444
1.504720132225155,0.017555651134353225,0.01991096114266671,0.011283372248322305,0.04065503644041113,-0.011706260821216181
1.5047916493800817,0.01564621916050789,0.018980797499320183,0.010644076718018416,0.03701682202416053,-0.010341668244285344
1.5048631665350083,0.015656872938766518,0.01701204390809738,0.009217644422453899,0.03263739563860963,-0.009259394907875876
1.5049346836899349,0.017286051262519187,0.015741449590287802,0.008230188330603324,0.02844351441941275,-0.007900840206572399
1.5050062008448615,0.019918755698584013,0.015785894200696,0.007905738300784866,0.025010117306124555,-0.006376639503581034
1.505077717999788,0.022804926807040774,0.018060825697158656,0.009361654152707073,0.02272118685566301,-0.003936044811249644
1.5051492351547147,0.025289013466251117,0.022738717178967343,0.011726326065843064,0.02599535414610715,-0.0036380545131329367
1.5052207523096413,0.027015644551186973,0.027555782349248107,0.014241445734319206,0.029604123139671007,-0.003387135284412238
1.5052922694645678,0.028012475009877,0.03006882353873821,0.015961322224474977,0.030819113629082375,-0.002558419448287254
1.5053637866194944,0.028596359216805502,0.026990625928951937,0.014919408532213189,0.029011275452372386,-0.002498425779790918
1.505435303774421,0.02915112616185344,0.020906841890352978,0.013309044659559194,0.02427333044303295,-0.0013864895177146891
1.5055068209293476,0.029900153036102176,0.016788644919188297,0.012321918805932341,0.020255081581612714,-0.00012101815133899946
1.5055783380842742,0.030782681811496897,0.016254461471126004,0.01250866989698158,0.01851406825817212,0.0009507274700558977
1.5056498552392008,0.03146961942071043,0.01841218805814092,0.013496870470295333,0.019944515169690064,0.0010428850916890193
1.5057213723941274,0.03149161794629547,0.019319539263725205,0.013134126432083434,0.02245716196818923,-0.0005833746645695544
1.505792889549054,0.030427310908792447,0.018541972517985957,0.011855838401314541,0.02521978110081266,-0.0031210220908129875
1.5058644067039806,0.02809465201809536,0.016268610418681412,0.009674998552531539,0.02603354762693244,-0.005405941074046778
1.5059359238589072,0.024683284499830333,0.012567092326420665,0.006168765257997816,0.025235465276281812,-0.007974576268351023
1.5060074410138338,0.020766913938386953,0.01033921663524197,0.003987129865862614,0.023280099728420118,-0.008807588567406006
1.5060789581687604,0.017165658691511196,0.011502233387466239,0.004506773893992003,0.020933589105433963,-0.007134537713993007
1.506150475323687,0.014695536880755058,0.013935564074923782,0.005603202541494299,0.02029145297944992,-0.00586390225168663
1.5062219924786135,0.013907828977730352,0.016061587952397576,0.006474304461408025,0.01962189893377387,-0.004770825500630257
1.5062935096335401,0.014929925183180436,0.016644052535539303,0.007024475314287043,0.016898276986977767,-0.002874308209922204
1.5063650267884667,0.01746107614733839,0.015840889559073847,0.006681651925523114,0.014736614819339498,-0.002033175007324096
1.5064365439433933,0.020900617081537138,0.017579550548226165,0.008103902228742074,0.013529827956853192,-0.00018912833242495407
1.50650806109832,0.024545654709518663,0.021876064074866006,0.01119024144466396,0.012597444745433587,0.0029286374266927553
1.5065795782532465,0.027795889555703463,0.02884918531323906,0.015188716512202768,0.016418438237029535,0.004332568902921627
1.506651095408173,0.030315638754338018,0.037895370538810855,0.02020329875354711,0.022541612852043282,0.005396836887777188
1.5067226125630997,0.03210575674634778,0.046904152438598,0.02516307524326057,0.029938172716377387,0.00574873611992819
1.5067941297180263,0.03344435853615213,0.052034805053964545,0.02809340030703321,0.03640898678212159,0.004856309977821698
1.5068656468729529,0.03469846610783441,0.05242363278982739,0.028836225363534616,0.039787885378084094,0.003718566866819688
1.5069371640278795,0.03608805388876267,0.051511536299875704,0.029158238083419115,0.04145702018251903,0.00311810068116749
1.507008681182806,0.03753193323000867,0.051327511889790074,0.029645090979329304,0.044013946612994154,0.0021926242960592962
1.5070801983377327,0.038657419159163646,0.051535891650622855,0.03000532215028713,0.046370749762814086,0.0012638522265424393
1.5071517154926592,0.038950459296790155,0.050441172371977955,0.029635790998015537,0.047032226122792904,0.0006013430490481188
1.5072232326475858,0.03795818995272562,0.04496485639344725,0.026170643808596194,0.04705842235899172,-0.002370230166533851
1.5072947498025124,0.035465807062779846,0.038024826126754056,0.02167628316777021,0.04581922946680129,-0.0055548277350726824
1.507366266957439,0.03160750390290827,0.032304732553825655,0.01779655130545853,0.04352027957924424,-0.007657343250243469
1.5074377841123656,0.02689036393457737,0.02744317050804801,0.014369878001425985,0.04087090661156944,-0.009188527454773368
1.5075093012672922,0.022110982309926926,0.023253061493706352,0.012274203971852665,0.036736087327529726,-0.008805023404579785
1.5075808184222188,0.018158898886019043,0.02046743184217742,0.010838451012952628,0.03442565056554647,-0.008816401714041808
1.5076523355771454,0.015750547010193554,0.018716903094229995,0.009985828883372298,0.032393075330458404,-0.008476635810253754
1.507723852732072,0.015198153002695225,0.01571690396013427,0.008495434228764531,0.028482141869203448,-0.007695107746857839
1.5077953698869986,0.01632710132796861,0.011802083837879259,0.006411917338543193,0.02299688291128394,-0.0065935441582795
1.5078668870419252,0.01858159605132472,0.009124258324200675,0.00521914285473996,0.01731704607635596,-0.004631638349950858
1.5079384041968518,0.02125563485920751,0.007806751501134962,0.005152249488431391,0.011426755198784586,-0.0016009357029758261
1.5080099213517784,0.023737553869918368,0.008064708971561743,0.0057615299185219465,0.007789106600987169,0.0008246213334441914
1.508081438506705,0.025680396681245936,0.010283715666356663,0.007453924502377228,0.005809890836612824,0.003303380419037606
1.5081529556616315,0.027059576075294776,0.012326720391931986,0.008842952470356694,0.004704679777246026,0.005065669328345048
1.5082244728165581,0.028112039179855254,0.011736707291011454,0.008942296206187028,0.0029691191509666373,0.006059826666695423
1.5082959899714847,0.029172386947160022,0.009673059219630674,0.008780907310022895,0.001340457634332119,0.006775888242519008
1.5083675071264113,0.03045818310099522,0.009743085627999306,0.010026451111954632,0.0005718426457675364,0.008239507172140564
1.508439024281338,0.03190386747651281,0.013659689214971326,0.012747040105629182,0.00228089494440632,0.00966108837321884
1.5085105414362645,0.03314377564440417,0.019377756754509357,0.01600259242207933,0.0064960459700851144,0.010225478125401146
1.508582058591191,0.03366149064758627,0.024052266931945225,0.0186299276568245,0.010717444525881711,0.010251977706635707
1.5086535757461177,0.03301661123576188,0.023510764294913188,0.017302793300784304,0.01324312594877699,0.007797845136733439
1.5087250929010443,0.031031763736761156,0.019234691784561535,0.013978643770450466,0.013914744015126346,0.004613730779337222
1.5087966100559709,0.02787943173947238,0.013852355457564547,0.009773118861112214,0.012628237386699546,0.0017053158986893835
1.5088681272108975,0.024071143965329337,0.008860265912045487,0.005405399448016361,0.011475710614779592,-0.0014109774720764926
1.508939644365824,0.020368522042175177,0.00498819851068597,0.002619426200917792,0.008841361626450916,-0.0024030401705935917
1.5090111615207507,0.017622660517009992,0.0030734122175284794,0.001280243020763253,0.007758203435537706,-0.002975867425056317
1.5090826786756772,0.016549556574789192,0.002375761290398626,0.001094148915450876,0.008060485230476113,-0.0032927956748914763
1.5091541958306038,0.01749078347259404,0.0025572742162641854,0.001728275756159572,0.007483437924713249,-0.002450276298107569
1.5092257129855304,0.02026609634215111,0.003413145324476108,0.002622344403247119,0.005444897992158467,-0.0006203724224093174
1.509297230140457,0.024225306810832306,0.007122322015125625,0.005090188490138515,0.004277834719089145,0.002093111741259105
1.5093687472953836,0.028505184243561566,0.0153693467980928,0.010396256019729185,0.005324697852241179,0.006063758420246468
1.5094402644503102,0.032363241212534366,0.026565368507911646,0.017181792517199104,0.00928628654628991,0.009768057245197909
1.5095117816052368,0.035420479974014,0.03865797211884497,0.023785576506019895,0.015248861780382065,0.012271295727996998
1.5095832987601634,0.03772295943106026,0.0476350256098091,0.028541189697550762,0.020020970757564826,0.013825463521175429
1.50965481591509,0.039632532833370364,0.05027449994150608,0.030196375009199177,0.022578263052359097,0.013897394620070388
1.5097263330700166,0.041605230836871475,0.04560248598055448,0.028415936049993602,0.021754918678211818,0.012810420506018553
1.5097978502249432,0.04392716574129624,0.03872606314842324,0.026087173799228647,0.016849026287580865,0.013394832408004025
1.5098693673798698,0.04649881119729661,0.03500294165226647,0.025125670272120693,0.012396125540665224,0.014907736144437385
1.5099408845347964,0.048782229516577,0.03540044861470664,0.025898717163670308,0.011899614264148817,0.01582662121046317
1.510012401689723,0.04998265464348263,0.03841431431049214,0.027970420605425636,0.013546648830202785,0.01672975330283283
1.5100839188446495,0.04939582665258717,0.03870163798455484,0.02744804663090382,0.015490243665954948,0.015266569377159674
1.5101554359995761,0.046726633743720845,0.035814111888979865,0.024915387052692306,0.016742119462028693,0.012452012246986577
1.5102269531545027,0.04221494386441091,0.03261661451042438,0.022036546886626967,0.017279404221797124,0.009716825541165246
1.5102984703094293,0.0365554045951188,0.03056767920767369,0.019143160662124768,0.018713116131213542,0.006499685507096845
1.510369987464356,0.030705701566729478,0.030045689339762836,0.01712115674686206,0.020798140241828734,0.0036837871772141054
1.5104415046192825,0.025671938650474672,0.03068710056417559,0.016152578444133103,0.02307441041329286,0.001665215411619919
1.510513021774209,0.02230380117340663,0.031834322056334685,0.01595046449902194,0.0258461485465892,3.990751205789901e-05
1.5105845389291357,0.02110478427342222,0.03007691195777775,0.014310671393420193,0.026395370919836653,-0.0016455429664927726
1.5106560560840623,0.022087028251984653,0.025007264737646893,0.011927341615445858,0.022087588303253525,-0.0014178814112643034
1.5107275732389889,0.02474352062355467,0.017075155617332468,0.008315005741078718,0.015085052401093823,-0.0008245006802591005
1.5107990903939155,0.028206425428266402,0.011239911438574814,0.006455089330600415,0.007743663814102415,0.0014391604478123869
1.510870607548842,0.03156791810921427,0.008780692475164676,0.006924877381908108,0.0020352117207106607,0.004831025790207433
1.5109421247037687,0.034217944840168574,0.00940026044599595,0.0085255112555674,-0.0005525856054119825,0.007550444209807353
1.5110136418586952,0.036025983655989566,0.012965892875894171,0.01161661354179527,-0.0009840237275113262,0.01040917010377416
1.5110851590136218,0.03729532439305516,0.014812849428201307,0.013294021431409462,-0.00046650530081884843,0.011566625615740128
1.5111566761685484,0.03854470610167679,0.013395874724769427,0.013163190298163863,6.937006227130956e-05,0.011174393319538624
1.511228193323475,0.04022460916569971,0.012137235420744923,0.013651672900344249,-0.0014760250793363005,0.012400230920837656
1.5112997104784016,0.04246467581659284,0.013167083256734559,0.01442102957265151,-0.001912080400112771,0.013283980864468033
1.5113712276333282,0.04493429586497486,0.018164072538469737,0.016921655013448497,0.00025191071506566943,0.014279966725657975
1.5114427447882548,0.04689231770787431,0.024051778798470813,0.019784155718843215,0.0035957603555274247,0.014966406949641287
1.5115142619431814,0.047454803887083834,0.026442571743380376,0.02007376929597759,0.007032652423041985,0.013412615911147186
