freq,gls,usurper,pdc_unbiased,shape_periodogram,shift_periodogram
1.5,0.031605246424144244,0.031894267016846056,0.022003088454338578,0.051212463756811724,-0.028114006710799555
1.5000715171549266,0.028595336453250155,0.025355358017237307,0.01679692217781675,0.04358216935013651,-0.02506686010877968
1.5001430343098532,0.024797888546036324,0.019617059076689435,0.011419584810450916,0.038282341768977164,-0.023998986653906398
1.5002145514647798,0.020789812632417533,0.01789983728360199,0.008796510756732951,0.035485353590589484,-0.02330785257523587
1.5002860686197064,0.017345459787468324,0.020452911672472627,0.009479677332466734,0.036268223679438445,-0.023531621896564114
1.500357585774633,0.015271945925960987,0.024874979960377148,0.011714688134418397,0.038209744112213576,-0.023765069419885536
1.5004291029295596,0.015165201318802408,0.0298971316557249,0.01415548030345099,0.04288713065911214,-0.02607846479956211
1.5005006200844861,0.01716595655706576,0.03474804999829071,0.016954003693511403,0.04683907481019824,-0.027595817512622807
1.5005721372394127,0.02086274426290797,0.03850360962129464,0.019187221778694714,0.05081289783178156,-0.02946769895821459
1.5006436543943393,0.02544081002802935,0.04174807099986897,0.02137618975240262,0.054995126192359696,-0.03153457895748121
1.500715171549266,0.03000884122307953,0.04539098077823915,0.02421994995090846,0.05923105172483823,-0.033255941990583925
1.5007866887041925,0.03391266896856934,0.049443517158015905,0.02666061786266369,0.06658365149024675,-0.037731650541628914
1.500858205859119,0.0368882624749449,0.05402439709504125,0.029368029530911475,0.07530748626580923,-0.04315936008598565
1.5009297230140457,0.0390355018056212,0.059006384976534945,0.03287087235373193,0.08506994010404757,-0.0489589811945452
1.5010012401689723,0.04067274274449097,0.06082359628736916,0.0349635290275476,0.09173761083222906,-0.05310361197573813
1.5010727573238989,0.04213722341942038,0.06098191548291368,0.036798409825528795,0.09545173509248052,-0.05501552486647391
1.5011442744788255,0.043587855733941964,0.06070243531942959,0.03793328428010061,0.0983106412860721,-0.05665346835068725
1.501215791633752,0.044880915226329254,0.06001248747533118,0.03824814004694497,0.09971537687628379,-0.05760327027768375
1.5012873087886787,0.045592465454410994,0.060749808744606275,0.03896037083855539,0.10288383740979876,-0.05974519377319623
1.5013588259436053,0.04519857422015515,0.05998584233251889,0.038338310339186395,0.10318238779986605,-0.06035776214512818
1.5014303430985318,0.04331902735671992,0.05622377150327723,0.03525172960142179,0.10006374895101962,-0.05967045959858837
1.5015018602534584,0.03989064242203222,0.04858033313180635,0.029380562295107576,0.09368490318925383,-0.05800269468015874
1.501573377408385,0.035207008956161204,0.0395077108435407,0.02275340008029923,0.0855145571593652,-0.055338807413558164
1.5016448945633116,0.029854908046904056,0.03148187368262338,0.01716592382272006,0.07735205709012266,-0.05206798594534831
1.5017164117182382,0.02460404968418353,0.024772099556426397,0.01272729457488559,0.06909400382445187,-0.04804261369920366
1.5017879288731648,0.020274028275387688,0.02083662674461172,0.010756457121333964,0.061889588448674517,-0.043405327025631026
1.5018594460280914,0.01756978332877583,0.01887185552213968,0.009814843547662735,0.05647679376091947,-0.039603245580621456
1.501930963183018,0.016887968997375314,0.01855800997519757,0.009773529530205848,0.050825879715955924,-0.03507606248666519
1.5020024803379446,0.018154766828972088,0.018027756713940843,0.009545857603491862,0.04686835507034516,-0.032024610116381
1.5020739974928712,0.020807783027131654,0.01890439139189258,0.00997328939183271,0.044476891817374506,-0.029845138736499688
1.5021455146477978,0.023992628107040868,0.02176509328827003,0.01144212206274167,0.045401341007944886,-0.029716123624843077
1.5022170318027244,0.026898257150269028,0.026415767853814217,0.014028974316248104,0.0494432329551621,-0.03143263076258209
1.502288548957651,0.029041972437567,0.03127976317661381,0.016679671046279716,0.05553685678937696,-0.03476492893313092
1.5023600661125776,0.03036170293294545,0.0364325707614856,0.019990738498687276,0.061381856372609366,-0.03750619148995211
1.5024315832675041,0.031115659296329378,0.0372606666120418,0.02077896981185265,0.06496780825758622,-0.03992850320665914
1.5025031004224307,0.031680428730509906,0.03441402066143714,0.019519808615351825,0.06491255925063655,-0.04063289581609424
1.5025746175773573,0.032340192227813126,0.030612346490421535,0.018649627815208736,0.06181174451029502,-0.038650423083027775
1.502646134732284,0.033131945974426154,0.027739571024653225,0.017871043624403338,0.05740758071788651,-0.03556377576863706
1.5027176518872105,0.033797027787609374,0.027252325712033048,0.01799769758677829,0.05629155815285139,-0.03458913415459635
1.502789169042137,0.033871437590867574,0.02599827518601815,0.017486670760106647,0.054949188725333525,-0.03381147940377328
1.5028606861970637,0.03289397904446062,0.022722497515857438,0.015274482970942199,0.051801083036482364,-0.032591032877971514
1.5029322033519903,0.030638444170610023,0.01902864148755279,0.012011118949132128,0.048289563445690825,-0.03170338645410231
1.5030037205069169,0.02725242384486997,0.01699735319334547,0.009441040885373031,0.04624981591032595,-0.03158890917619229
1.5030752376618435,0.023245599290448483,0.01835664013659878,0.008606550278537486,0.046945067405415354,-0.03264471831180601
1.50314675481677,0.019358366958489085,0.02142421857361151,0.008953985446160287,0.04784918812444639,-0.03316616793091869
1.5032182719716967,0.01638051368297583,0.025315865302418056,0.010426555451109277,0.04905245010724235,-0.03325973810045448
1.5032897891266233,0.01497089818834955,0.028893131550887134,0.012350463029946239,0.048278322441887,-0.0314925738857928
1.5033613062815498,0.015499460648454992,0.03177809826350627,0.013981854206916533,0.04696243119638526,-0.029462887588453387
1.5034328234364764,0.01793079665045714,0.03207360886730385,0.01416864675154985,0.044573910119117474,-0.0274286274991631
1.503504340591403,0.021792554285279486,0.031469233320563665,0.013806564009865633,0.042230318638113405,-0.025757228414407005
1.5035758577463296,0.026283745634476982,0.03418073669912603,0.015751292513310384,0.04316363312086176,-0.025351898970637665
1.5036473749012562,0.03053094650102892,0.03950578904438555,0.019003856556851165,0.048515442672954115,-0.027726349216159123
1.5037188920561828,0.03389868374654469,0.04655224277679219,0.02304438568669538,0.058372557585471545,-0.03326363405070073
1.5037904092111094,0.03619247413189749,0.05514438646865048,0.02836367437687625,0.06921399467189927,-0.03883960431899028
1.503861926366036,0.03764566473947448,0.06164675581700802,0.03246316988130233,0.07925183101493678,-0.044501096856684005
1.5039334435209626,0.038716510453014726,0.06449758408375052,0.03408384953452373,0.08590974819997195,-0.0489152357834038
1.5040049606758892,0.0398171228344044,0.06579530970296257,0.03557140334761458,0.09075116333352883,-0.05194357632043185
1.5040764778308158,0.041095739566223526,0.06862635360425429,0.037525773851031737,0.09416556983503209,-0.05354124813633445
1.5041479949857424,0.04234364882306056,0.07144385981595586,0.038887791087543686,0.09732890894169122,-0.055289773542391146
1.504219512140669,0.043051695709888996,0.07254110725127233,0.03921573232033744,0.09909433873851332,-0.05652367712054038
1.5042910292955955,0.04260283060723393,0.06804224316740583,0.036347749549566495,0.0967572234572867,-0.05634065934531235
1.5043625464505221,0.04053910287302065,0.05777392629464723,0.030363706364527798,0.08945203419398647,-0.05399424668220096
1.5044340636054487,0.03679439695722014,0.0449108110091492,0.02344001313236871,0.07857728996208613,-0.049327110977232094
1.5045055807603753,0.03178229372791513,0.03368558596917024,0.01698689592080203,0.06891557494923771,-0.045367250510140344
1.504577097915302,0.026296542555493532,0.026079998589755696,0.012446934359831944,0.060878411058068904,-0.041585788463484145
1.5046486150702285,0.021278189004975218,0.023358476575053383,0.011187449324425095,0.05517287613841501,-0.03773702687108926
1.504720132225155,0.017555651134353225,0.022505738209723312,0.011283372248322305,0.04981676511652967,-0.0333658887135888
1.5047916493800817,0.01564621916050789,0.021341644204672057,0.010644076718018416,0.044471435454924844,-0.029441946522130075
1.5048631665350083,0.015656872938766518,0.019148459192093563,0.009217644422453899,0.038504705322555406,-0.02548724837811921
1.5049346836899349,0.017286051262519187,0.017785198396502444,0.008230188330603324,0.03436192164468562,-0.02274059693944491
1.5050062008448615,0.019918755698584013,0.01797798803017227,0.007905738300784866,0.0322762722924751,-0.021255396696999038
1.505077717999788,0.022804926807040774,0.020355679557867483,0.009361654152707073,0.03155994644464519,-0.01981335507257379
1.5051492351547147,0.025289013466251117,0.02523383683857506,0.011726326065843064,0.036160621997601214,-0.022109059178524577
1.5052207523096413,0.027015644551186973,0.030205997664050122,0.014241445734319206,0.041847519244318246,-0.025190428781402156
1.5052922694645678,0.028012475009877,0.03280072851056432,0.015961322224474977,0.04502977191875495,-0.026729429109981547
1.5053637866194944,0.028596359216805502,0.029838860255083945,0.014919408532213189,0.044207817686579685,-0.026687367501841804
1.505435303774421,0.02915112616185344,0.023762825007532132,0.013309044659559194,0.041288516629829845,-0.025294979251263366
1.5055068209293476,0.029900153036102176,0.019359098870639715,0.012321918805932341,0.03762470496700475,-0.022933106874619715
1.5055783380842742,0.030782681811496897,0.018557344251055947,0.01250866989698158,0.03619590805753623,-0.021672181404419073
1.5056498552392008,0.03146961942071043,0.020664078220048045,0.013496870470295333,0.03856423102027706,-0.022990476929189194
1.5057213723941274,0.03149161794629547,0.021706800119710174,0.013134126432083434,0.041699317585219185,-0.025729687919248075
1.505792889549054,0.030427310908792447,0.021330597303351347,0.011855838401314541,0.04252340022878163,-0.02715322173208397
1.5058644067039806,0.02809465201809536,0.019396379027124922,0.009674998552531539,0.041497319780624285,-0.027623962300909043
1.5059359238589072,0.024683284499830333,0.015784182403161,0.006168765257997816,0.040057910512299254,-0.028549790876520854
1.5060074410138338,0.020766913938386953,0.013442537975068666,0.003987129865862614,0.03861772436497175,-0.02868749727118956
1.5060789581687604,0.017165658691511196,0.014366114376924945,0.004506773893992003,0.03708727389275965,-0.02714708691578955
1.506150475323687,0.014695536880755058,0.01643585046535643,0.005603202541494299,0.035435224362289276,-0.02516600731679807
1.5062219924786135,0.013907828977730352,0.018157434221480046,0.006474304461408025,0.03255323743312663,-0.022329305277474332
1.5062935096335401,0.014929925183180436,0.018401356696867467,0.007024475314287043,0.02808362193059836,-0.01840642668755818
1.5063650267884667,0.01746107614733839,0.017285839844014418,0.006681651925523114,0.023839706306277162,-0.01519659352081563
1.5064365439433933,0.020900617081537138,0.01880310889131465,0.008103902228742074,0.022078505847790406,-0.01293431422337184
1.50650806109832,0.024545654709518663,0.0230930694742339,0.01119024144466396,0.023247308861575625,-0.012038872173343493
1.5065795782532465,0.027795889555703463,0.030257212632176716,0.015188716512202768,0.030367864906509383,-0.015388496086930974
1.506651095408173,0.030315638754338018,0.03941646341675345,0.02020329875354711,0.03926839684550055,-0.019567415696170272
1.5067226125630997,0.03210575674634778,0.04860728081143238,0.02516307524326057,0.048894070354086695,-0.02436555822135054
1.5067941297180263,0.03344435853615213,0.053897193159848554,0.02809340030703321,0.05506706865577963,-0.027593825027827985
1.5068656468729529,0.03469846610783441,0.05427435728651788,0.028836225363534616,0.05692990109132263,-0.028652653877489328
1.5069371640278795,0.03608805388876267,0.05304281798705149,0.029158238083419115,0.05528083460080373,-0.027131873161673953
1.507008681182806,0.03753193323000867,0.05254139836231793,0.029645090979329304,0.0540829872246336,-0.025876633988246172
1.5070801983377327,0.038657419159163646,0.052654430373611706,0.03000532215028713,0.0528022806297244,-0.024630132139817674
1.5071517154926592,0.038950459296790155,0.05151414437095357,0.029635790998015537,0.050502057434339054,-0.02299714558756172
1.5072232326475858,0.03795818995272562,0.04628034164998711,0.026170643808596194,0.04622245922382508,-0.021613998444659933
1.5072947498025124,0.035465807062779846,0.03967407098195175,0.02167628316777021,0.04025351587462843,-0.019483751342072468
1.507366266957439,0.03160750390290827,0.03424963285530831,0.01779655130545853,0.03559504742878322,-0.018043070566812175
1.5074377841123656,0.02689036393457737,0.029732645859980523,0.014369878001425985,0.03328874217728854,-0.018225751074032792
1.5075093012672922,0.022110982309926926,0.02569245900071425,0.012274203971852665,0.030714164896434044,-0.017400757023962234
1.5075808184222188,0.018158898886019043,0.022851521167306103,0.010838451012952628,0.029305581680574476,-0.017121426846253833
1.5076523355771454,0.015750547010193554,0.020994662088189592,0.009985828883372298,0.026644885546583733,-0.015488089027424984
1.507723852732072,0.015198153002695225,0.017830111124040194,0.008495434228764531,0.021440919546569345,-0.012188679663332501
1.5077953698869986,0.01632710132796861,0.013725424192388985,0.006411917338543193,0.01558212948815655,-0.00871604067362049
1.5078668870419252,0.01858159605132472,0.01084512945708666,0.00521914285473996,0.010909043808318815,-0.005667674529557022
1.5079384041968518,0.02125563485920751,0.009380762607118438,0.005152249488431391,0.007250421686306842,-0.0027657252000085016
1.5080099213517784,0.023737553869918368,0.009431227989087783,0.0057615299185219465,0.006268600742015854,-0.0016139959784293653
1.508081438506705,0.025680396681245936,0.0115935556217172,0.007453924502377228,0.008454453902170577,-0.002365070143768949
1.5081529556616315,0.027059576075294776,0.01367443040876486,0.008842952470356694,0.011768556815644185,-0.004203761536987511
1.5082244728165581,0.028112039179855254,0.013170200135151295,0.008942296206187028,0.013116138027747163,-0.005228265938592833
1.5082959899714847,0.029172386947160022,0.011214525292899223,0.008780907310022895,0.014185631414681418,-0.006184244811171098
1.5083675071264113,0.03045818310099522,0.011315025998372833,0.010026451111954632,0.015876040961678686,-0.006802805071585067
1.508439024281338,0.03190386747651281,0.015150623547471759,0.012747040105629182,0.019368848824438446,-0.007993530503525912
1.5085105414362645,0.03314377564440417,0.020908321312207018,0.01600259242207933,0.024268306462521996,-0.00999747392157815
1.508582058591191,0.03366149064758627,0.025633422076016682,0.0186299276568245,0.02872310909133296,-0.01201781071915069
1.5086535757461177,0.03301661123576188,0.02532269732296306,0.017302793300784304,0.02992140736015392,-0.0137715458456453
1.5087250929010443,0.031031763736761156,0.02126735194518619,0.013978643770450466,0.027209964656619533,-0.013567803448306489
1.5087966100559709,0.02787943173947238,0.01591155261893365,0.009773118861112214,0.02240390834506872,-0.012203344675719395
1.5088681272108975,0.024071143965329337,0.010913088714584334,0.005405399448016361,0.018805724702148075,-0.011906887850262667
1.508939644365824,0.020368522042175177,0.007108272688182138,0.002619426200917792,0.016589989382300902,-0.011781623501096244
1.5090111615207507,0.017622660517009992,0.005239950134705341,0.001280243020763253,0.016745878601254722,-0.012703228226465638
1.5090826786756772,0.016549556574789192,0.004425913912817119,0.001094148915450876,0.016448895271041115,-0.012575059947601577
1.5091541958306038,0.01749078347259404,0.004354840891347042,0.001728275756159572,0.014605928959326858,-0.010716061267304035
1.5092257129855304,0.02026609634215111,0.004963890175078739,0.002622344403247119,0.012744420726080757,-0.008687613304098509
1.509297230140457,0.024225306810832306,0.008557349276413835,0.005090188490138515,0.01341298422851886,-0.007757751016827357
1.5093687472953836,0.028505184243561566,0.016682752737782285,0.010396256019729185,0.016932314061930125,-0.007432282414387693
1.5094402644503102,0.032363241212534366,0.027708166759376016,0.017181792517199104,0.02347780474557699,-0.008660053759225675
1.5095117816052368,0.035420479974014,0.0396207045743056,0.023785576506019895,0.031560869282223875,-0.011232416671419656
1.5095832987601634,0.03772295943106026,0.048214765126237916,0.028541189697550762,0.03614313691797055,-0.012087980318780321
1.50965481591509,0.039632532833370364,0.050514278438924504,0.030196375009199177,0.036496722624626596,-0.011386607329217795
1.5097263330700166,0.041605230836871475,0.045851573911879315,0.028415936049993602,0.03403001440696492,-0.010462064963781529
1.5097978502249432,0.04392716574129624,0.03888817613532778,0.026087173799228647,0.028023788628757828,-0.00701642259060235
1.5098693673798698,0.04649881119729661,0.03484131830360779,0.025125670272120693,0.02152247528360785,-0.002359600963481439
1.5099408845347964,0.048782229516577,0.03501731375451607,0.025898717163670308,0.018572192431271707,0.0004731793094874024
1.510012401689723,0.04998265464348263,0.0379334091078462,0.027970420605425636,0.017642625689636565,0.0024540762828836834
1.5100839188446495,0.04939582665258717,0.03838337620916054,0.02744804663090382,0.01572209115152434,0.0036872731829612035
1.5101554359995761,0.046726633743720845,0.03599404785959868,0.024915387052692306,0.012691567304314378,0.0046161812876206075
1.5102269531545027,0.04221494386441091,0.033207003747620506,0.022036546886626967,0.009170610349809878,0.0057336168559900995
1.5102984703094293,0.0365554045951188,0.03151201750811777,0.019143160662124768,0.008644179868614077,0.004435266997001327
1.510369987464356,0.030705701566729478,0.03143665888485653,0.01712115674686206,0.010955496367196957,0.0013739923203089852
1.5104415046192825,0.025671938650474672,0.03245415901980804,0.016152578444133103,0.014856373504136886,-0.0023388379578147146
1.510513021774209,0.02230380117340663,0.03381090359054562,0.01595046449902194,0.018179184336551895,-0.00513114515581097
1.5105845389291357,0.02110478427342222,0.03222436567080764,0.014310671393420193,0.01857088765823511,-0.006421668004567834
1.5106560560840623,0.022087028251984653,0.02714372151902359,0.011927341615445858,0.014653495237528638,-0.004689104325736337
1.5107275732389889,0.02474352062355467,0.019031821234218115,0.008315005741078718,0.008919338241169668,-0.0022267753199796234
1.5107990903939155,0.028206425428266402,0.01302667238157873,0.006455089330600415,0.004826153386955479,-4.1803796589012275e-05
1.510870607548842,0.03156791810921427,0.010417474958704175,0.006924877381908108,0.0036857278547259256,0.001154475926248684
1.5109421247037687,0.034217944840168574,0.010916554093130571,0.0085255112555674,0.006977869369924283,-0.0005405732785427437
1.5110136418586952,0.036025983655989566,0.014364355564107962,0.01161661354179527,0.012003528897407915,-0.002743063882238513
1.5110851590136218,0.03729532439305516,0.016056975057694756,0.013294021431409462,0.0162794016124354,-0.005183647043495808
1.5111566761685484,0.03854470610167679,0.014752846313831452,0.013163190298163863,0.020374373990655382,-0.008554678691772018
1.511228193323475,0.04022460916569971,0.013606699582853713,0.013651672900344249,0.022796018722572538,-0.010211804533276447
1.5112997104784016,0.04246467581659284,0.014479037265991479,0.01442102957265151,0.024049211663395537,-0.010762129565909715
1.5113712276333282,0.04493429586497486,0.01931701640930142,0.016921655013448497,0.027760762767370373,-0.012260058349927787
1.5114427447882548,0.04689231770787431,0.0250036502157707,0.019784155718843215,0.03187002327346576,-0.013862845676835935
1.5115142619431814,0.047454803887083834,0.027210599965321505,0.02007376929597759,0.03222897951440544,-0.013979319648817446
1.511585779098108,0.04599085839647899,0.0240606566263691,0.017243949592298295,0.028461881628148014,-0.012632337726098895
