freq,gls,usurper,pdc_unbiased,shape_periodogram,shift_periodogram
1.5,0.031605246424144244,0.0318382979525445,0.022003088454338578,0.049698109595722385,-0.023352188025118296
1.5000715171549266,0.028595336453250155,0.024983142795837486,0.01679692217781675,0.040844347106973176,-0.020026217769873258
1.5001430343098532,0.024797888546036324,0.019155093156232633,0.011419584810450916,0.034105706143132436,-0.018419325466723875
1.5002145514647798,0.020789812632417533,0.01731283737808441,0.008796510756732951,0.029504690806781007,-0.01663889667685961
1.5002860686197064,0.017345459787468324,0.01996421862822619,0.009479677332466734,0.0290417714844435,-0.015842162983463054
1.500357585774633,0.015271945925960987,0.024598567183533513,0.011714688134418397,0.030669731296726396,-0.015619626823150231
1.5004291029295596,0.015165201318802408,0.029911153226692754,0.01415548030345099,0.03576721277700972,-0.017895677521224337
1.5005006200844861,0.01716595655706576,0.034808193123950004,0.016954003693511403,0.03959632717278886,-0.018976294299974883
1.5005721372394127,0.02086274426290797,0.03845348149314026,0.019187221778694714,0.042874675013063836,-0.020007932100615206
1.5006436543943393,0.02544081002802935,0.041659495963468116,0.02137618975240262,0.04659424978655235,-0.021403808185523114
1.500715171549266,0.03000884122307953,0.04508821737604541,0.02421994995090846,0.04952901198525237,-0.02177640278382143
1.5007866887041925,0.03391266896856934,0.049086844795229054,0.02666061786266369,0.05614062340143706,-0.02520641633650288
1.500858205859119,0.0368882624749449,0.05359447695032256,0.029368029530911475,0.06474690690864476,-0.029981800749232373
1.5009297230140457,0.0390355018056212,0.05857491815915913,0.03287087235373193,0.07571336582135024,-0.03603965863404359
1.5010012401689723,0.04067274274449097,0.06027309179105872,0.0349635290275476,0.08358874304696207,-0.040672443599199616
1.5010727573238989,0.04213722341942038,0.06050449345433366,0.036798409825528795,0.08884412437693724,-0.043480405114802334
1.5011442744788255,0.043587855733941964,0.060533444760022655,0.03793328428010061,0.09320742241263905,-0.046067886372209224
1.501215791633752,0.044880915226329254,0.060221520764848525,0.03824814004694497,0.09583880185654661,-0.047871065967775954
1.5012873087886787,0.045592465454410994,0.061185024044274776,0.03896037083855539,0.09923044387841798,-0.04999589693447503
1.5013588259436053,0.04519857422015515,0.06032817100061853,0.038338310339186395,0.09889433173617666,-0.05014608212873602
1.5014303430985318,0.04331902735671992,0.05648957213399449,0.03525172960142179,0.09647541764794929,-0.050317021990242114
1.5015018602534584,0.03989064242203222,0.04851456704868338,0.029380562295107576,0.09036134063690715,-0.04948652759884086
1.501573377408385,0.035207008956161204,0.03923844562138763,0.02275340008029923,0.0826075107157274,-0.04790022444239665
1.5016448945633116,0.029854908046904056,0.030829983361216035,0.01716592382272006,0.07336616408789341,-0.044506145320489424
1.5017164117182382,0.02460404968418353,0.023940172362284393,0.01272729457488559,0.06446733542708515,-0.04062947872949455
1.5017879288731648,0.020274028275387688,0.019944328315236983,0.010756457121333964,0.05702873779036064,-0.03625919599746064
1.5018594460280914,0.01756978332877583,0.018106549179002326,0.009814843547662735,0.05255656999260112,-0.03347488366335769
1.501930963183018,0.016887968997375314,0.017856907981123413,0.009773529530205848,0.048103991879277205,-0.03011966069713037
1.5020024803379446,0.018154766828972088,0.017240233431795444,0.009545857603491862,0.04398357558500424,-0.027139173471250635
1.5020739974928712,0.020807783027131654,0.018009672901888117,0.00997328939183271,0.04111770828226971,-0.024684667839722618
1.5021455146477978,0.023992628107040868,0.020751186566526834,0.01144212206274167,0.04155855352996859,-0.024061466551459552
1.5022170318027244,0.026898257150269028,0.025421622138798124,0.014028974316248104,0.0456416872498469,-0.025474527490737073
1.502288548957651,0.029041972437567,0.030191798886671433,0.016679671046279716,0.05134876058394644,-0.028080231732529576
1.5023600661125776,0.03036170293294545,0.03522197215461011,0.019990738498687276,0.0585447699983239,-0.031388462838428735
1.5024315832675041,0.031115659296329378,0.03581163481992953,0.02077896981185265,0.0634768965598926,-0.034624329185566814
1.5025031004224307,0.031680428730509906,0.03300111698983574,0.019519808615351825,0.06517160880849565,-0.03673499909705699
1.5025746175773573,0.032340192227813126,0.029430543134791657,0.018649627815208736,0.06332304925413715,-0.035896763862560487
1.502646134732284,0.033131945974426154,0.026903370443375235,0.017871043624403338,0.05942388533648463,-0.033439894091497835
1.5027176518872105,0.033797027787609374,0.026499452487204905,0.01799769758677829,0.057521669807691425,-0.03191123570807385
1.502789169042137,0.033871437590867574,0.02523514780119933,0.017486670760106647,0.05486277309766351,-0.03022380428228385
1.5028606861970637,0.03289397904446062,0.02191331133038039,0.015274482970942199,0.0506424243561219,-0.028460316169723644
1.5029322033519903,0.030638444170610023,0.018053772854367996,0.012011118949132128,0.046121383883482,-0.027154894682560486
1.5030037205069169,0.02725242384486997,0.015895444004144617,0.009441040885373031,0.04305941587583962,-0.02650585072277677
1.5030752376618435,0.023245599290448483,0.017157094997513552,0.008606550278537486,0.04214974768285273,-0.026359343842830122
1.50314675481677,0.019358366958489085,0.020460478385215287,0.008953985446160287,0.042558198855008,-0.02644289930221218
1.5032182719716967,0.01638051368297583,0.02480238670203124,0.010426555451109277,0.04374843580805494,-0.02638636275138951
1.5032897891266233,0.01497089818834955,0.029014624964575582,0.012350463029946239,0.04423899950330678,-0.025504178387611952
1.5033613062815498,0.015499460648454992,0.03225237641417664,0.013981854206916533,0.04399591358506684,-0.024255535447400823
1.5034328234364764,0.01793079665045714,0.0325154598887463,0.01416864675154985,0.04104190600362181,-0.021890877252352062
1.503504340591403,0.021792554285279486,0.03183493034636052,0.013806564009865633,0.03747871016902743,-0.019422275416273543
1.5035758577463296,0.026283745634476982,0.03452111772421171,0.015751292513310384,0.03720432676151432,-0.017945329751636357
1.5036473749012562,0.03053094650102892,0.03988999057817946,0.019003856556851165,0.042091822290877656,-0.019533207168502223
1.5037188920561828,0.03389868374654469,0.04704437552931011,0.02304438568669538,0.051853566822414876,-0.024309958210761456
1.5037904092111094,0.03619247413189749,0.055655981303017896,0.02836367437687625,0.06371478532303673,-0.029852887768379688
1.503861926366036,0.03764566473947448,0.062028520699989105,0.03246316988130233,0.07503154721227218,-0.03578690032729094
1.5039334435209626,0.038716510453014726,0.06501164543826982,0.03408384953452373,0.0842039838612113,-0.041716687168214035
1.5040049606758892,0.0398171228344044,0.06651983852341986,0.03557140334761458,0.09085461616756703,-0.04581693849082089
1.5040764778308158,0.041095739566223526,0.06986995285124586,0.037525773851031737,0.09605861341450808,-0.048511503512002827
1.5041479949857424,0.04234364882306056,0.07321586005778835,0.038887791087543686,0.1006983772458232,-0.05116513599821652
1.504219512140669,0.043051695709888996,0.07469710694940469,0.03921573232033744,0.10423573083249937,-0.053654758505942673
1.5042910292955955,0.04260283060723393,0.07003026151965842,0.036347749549566495,0.10282704571393918,-0.05445364572304919
1.5043625464505221,0.04053910287302065,0.059175737065231764,0.030363706364527798,0.0957362393422515,-0.05294693990894749
1.5044340636054487,0.03679439695722014,0.0455367228570204,0.02344001313236871,0.08391304154318695,-0.048447249410704406
1.5045055807603753,0.03178229372791513,0.03356985962844771,0.01698689592080203,0.07245470170384201,-0.043929084109652454
1.504577097915302,0.026296542555493532,0.02544820742686685,0.012446934359831944,0.06257503169380131,-0.03937327696295423
1.5046486150702285,0.021278189004975218,0.02259291986709787,0.011187449324425095,0.05604860287274882,-0.035233339651048155
1.504720132225155,0.017555651134353225,0.021907580185236388,0.011283372248322305,0.05111843739735032,-0.03142487176630333
1.5047916493800817,0.01564621916050789,0.02099163706147452,0.010644076718018416,0.047198931589026216,-0.028864675003463926
1.5048631665350083,0.015656872938766518,0.01893788489320063,0.009217644422453899,0.04205126269614983,-0.025886122833505117
1.5049346836899349,0.017286051262519187,0.017477087240182817,0.008230188330603324,0.03723542488866822,-0.022874438035280515
1.5050062008448615,0.019918755698584013,0.01749045995599917,0.007905738300784866,0.03384256374415727,-0.020511167525981346
1.505077717999788,0.022804926807040774,0.01986822604072202,0.009361654152707073,0.03223334218906905,-0.018340669157103234
1.5051492351547147,0.025289013466251117,0.024869006390382906,0.011726326065843064,0.036898942576873664,-0.020339108098328958
1.5052207523096413,0.027015644551186973,0.029817320477901782,0.014241445734319206,0.042763338499449424,-0.02315032669790879
1.5052922694645678,0.028012475009877,0.03226286079518812,0.015961322224474977,0.04688081585977705,-0.025155027058477015
1.5053637866194944,0.028596359216805502,0.028916736788069105,0.014919408532213189,0.046787721267239735,-0.0257640266493557
1.505435303774421,0.02915112616185344,0.022418553460518683,0.013309044659559194,0.04315283504918895,-0.024054250091837745
1.5055068209293476,0.029900153036102176,0.017965214435484517,0.012321918805932341,0.03921829048454654,-0.02171109888832427
1.5055783380842742,0.030782681811496897,0.017382867038589784,0.01250866989698158,0.037456168212148,-0.020251765059701398
1.5056498552392008,0.03146961942071043,0.01978954419902872,0.013496870470295333,0.039807250500984846,-0.021391799976225645
1.5057213723941274,0.03149161794629547,0.02097093275233466,0.013134126432083434,0.04273124100278291,-0.023848242956547215
1.505792889549054,0.030427310908792447,0.020395177045830874,0.011855838401314541,0.043840707190928946,-0.025524340592544388
1.5058644067039806,0.02809465201809536,0.018081951125650236,0.009674998552531539,0.042512723822764685,-0.02593823908006067
1.5059359238589072,0.024683284499830333,0.01419129849530516,0.006168765257997816,0.04033218079951259,-0.02656894666717612
1.5060074410138338,0.020766913938386953,0.01179462399655878,0.003987129865862614,0.03804745735560525,-0.026257010869451206
1.5060789581687604,0.017165658691511196,0.01289383576852293,0.004506773893992003,0.03592396225791553,-0.024306725294419317
1.506150475323687,0.014695536880755058,0.015485307201317966,0.005603202541494299,0.03494708941359962,-0.02285061459172672
1.5062219924786135,0.013907828977730352,0.017796567560376356,0.006474304461408025,0.03374459194367316,-0.021370174234103166
1.5062935096335401,0.014929925183180436,0.018299914094183058,0.007024475314287043,0.029651108233627953,-0.01790552409359225
1.5063650267884667,0.01746107614733839,0.017290310489871834,0.006681651925523114,0.02488061818023882,-0.01451014307129335
1.5064365439433933,0.020900617081537138,0.01895944221615561,0.008103902228742074,0.021988985663087178,-0.01138936672151565
1.50650806109832,0.024545654709518663,0.023204118871768334,0.01119024144466396,0.02108838370795545,-0.008693423919942477
1.5065795782532465,0.027795889555703463,0.030414103250191588,0.015188716512202768,0.026899259217760235,-0.010492864548262336
1.506651095408173,0.030315638754338018,0.03980571341466472,0.02020329875354711,0.035831761322788105,-0.013998439285255957
1.5067226125630997,0.03210575674634778,0.049146857575283656,0.02516307524326057,0.04669384857828166,-0.019007047569307163
1.5067941297180263,0.03344435853615213,0.05453491170478221,0.02809340030703321,0.05501027161022991,-0.023411402178115985
1.5068656468729529,0.03469846610783441,0.05510143104374896,0.028836225363534616,0.05901841816744582,-0.02597284077850901
1.5069371640278795,0.03608805388876267,0.05420596072084786,0.029158238083419115,0.05982222840331912,-0.026373592117838223
1.507008681182806,0.03753193323000867,0.05403887824950056,0.029645090979329304,0.060211895100136435,-0.02635176946283473
1.5070801983377327,0.038657419159163646,0.05431178537526183,0.03000532215028713,0.060210625701656195,-0.02611541950614309
1.5071517154926592,0.038950459296790155,0.05309913189578531,0.029635790998015537,0.05868999503508443,-0.02520073885382573
1.5072232326475858,0.03795818995272562,0.04736969772972613,0.026170643808596194,0.05478812142694423,-0.0244984924403804
1.5072947498025124,0.035465807062779846,0.04014018462261583,0.02167628316777021,0.04920903874384408,-0.023193999095152476
1.507366266957439,0.03160750390290827,0.03413800879809856,0.01779655130545853,0.04453461265134105,-0.022175866160921587
1.5074377841123656,0.02689036393457737,0.029069819640335774,0.014369878001425985,0.04126829250390476,-0.021931476926214152
1.5075093012672922,0.022110982309926926,0.024766171709898352,0.012274203971852665,0.03785670951055732,-0.02070871103581824
1.5075808184222188,0.018158898886019043,0.022140062628351612,0.010838451012952628,0.036730935174013074,-0.02079066495876881
1.5076523355771454,0.015750547010193554,0.020513207399836714,0.009985828883372298,0.034798921834571825,-0.019880462808853003
1.507723852732072,0.015198153002695225,0.017359548128414073,0.008495434228764531,0.029845023871168688,-0.01709344461869189
1.5077953698869986,0.01632710132796861,0.01305669986390871,0.006411917338543193,0.023159180318054917,-0.013380298527947162
1.5078668870419252,0.01858159605132472,0.009892048828989723,0.00521914285473996,0.01670366975369935,-0.009262139134352174
1.5079384041968518,0.02125563485920751,0.008096575888866076,0.005152249488431391,0.010629107460569368,-0.0046994600299340265
1.5080099213517784,0.023737553869918368,0.008056457259094605,0.0057615299185219465,0.007934869925198125,-0.002259296852299679
1.508081438506705,0.025680396681245936,0.010039447865025851,0.007453924502377228,0.008260705727421413,-0.001402731533529152
1.5081529556616315,0.027059576075294776,0.01183696142521222,0.008842952470356694,0.010371200684243572,-0.0020971319339317296
1.5082244728165581,0.028112039179855254,0.011089904134429123,0.008942296206187028,0.011437743676270278,-0.002841046425869288
1.5082959899714847,0.029172386947160022,0.009013455502996533,0.008780907310022895,0.012023881701782884,-0.0033907414186075597
1.5083675071264113,0.03045818310099522,0.00915467120670292,0.010026451111954632,0.013349437903564238,-0.0035835658326251493
1.508439024281338,0.03190386747651281,0.013460551026630938,0.012747040105629182,0.01709130305359191,-0.004646617402778688
1.5085105414362645,0.03314377564440417,0.01973889915074748,0.01600259242207933,0.022899383777072783,-0.006927789698362377
1.508582058591191,0.03366149064758627,0.024773928970333616,0.0186299276568245,0.028211874428326508,-0.00924334120936549
1.5086535757461177,0.03301661123576188,0.024284257376732166,0.017302793300784304,0.0299098226800586,-0.011397537620685664
1.5087250929010443,0.031031763736761156,0.019852591085147447,0.013978643770450466,0.02812367604556174,-0.012211167501310795
1.5087966100559709,0.02787943173947238,0.014157066939874674,0.009773118861112214,0.023908185115170347,-0.011756465981340176
1.5088681272108975,0.024071143965329337,0.00893132894685477,0.005405399448016361,0.020520413061937966,-0.012035235910748709
1.508939644365824,0.020368522042175177,0.004959240404740324,0.002619426200917792,0.017432445689597367,-0.011509945702286632
1.5090111615207507,0.017622660517009992,0.0032201766951436925,0.001280243020763253,0.016872369385422095,-0.011958379102762083
1.5090826786756772,0.016549556574789192,0.00280286690836199,0.001094148915450876,0.01710061257763163,-0.01225279528346493
1.5091541958306038,0.01749078347259404,0.0030227496065094897,0.001728275756159572,0.01585781380383338,-0.010896900303020561
1.5092257129855304,0.02026609634215111,0.0036907173286028273,0.002622344403247119,0.013016874513415462,-0.008159674333857031
1.509297230140457,0.024225306810832306,0.007291026625661365,0.005090188490138515,0.011539785069985362,-0.00543045442259037
1.5093687472953836,0.028505184243561566,0.0157028215136655,0.010396256019729185,0.013679900391181618,-0.0035929659678370827
1.5094402644503102,0.032363241212534366,0.027268428141324835,0.017181792517199104,0.01981996051383122,-0.003822894019061455
1.5095117816052368,0.035420479974014,0.03985183563338936,0.023785576506019895,0.0284555627806609,-0.006063168542470952
1.5095832987601634,0.03772295943106026,0.049111290162154146,0.028541189697550762,0.034696150991777495,-0.0076926575930617936
1.50965481591509,0.039632532833370364,0.051762261255137706,0.030196375009199177,0.03734100604628441,-0.008618570406176519
1.5097263330700166,0.041605230836871475,0.04687986378968522,0.028415936049993602,0.03567964446749784,-0.008520805945708393
1.5097978502249432,0.04392716574129624,0.03948140547124448,0.026087173799228647,0.029201170037609386,-0.005126103281765986
1.5098693673798698,0.04649881119729661,0.035362920269534893,0.025125670272120693,0.02260973162098581,-0.0007542347710846108
1.5099408845347964,0.048782229516577,0.035819116875920626,0.025898717163670308,0.0202034804687724,0.0015752043526674664
1.510012401689723,0.04998265464348263,0.03903996564033376,0.027970420605425636,0.020706551839332264,0.0025463178640266386
1.5100839188446495,0.04939582665258717,0.03959098696607112,0.02744804663090382,0.02075806054611322,0.0021661852886446786
1.5101554359995761,0.046726633743720845,0.03688404196867562,0.024915387052692306,0.01918397128672026,0.0017063724800380016
1.5102269531545027,0.04221494386441091,0.03373168554362312,0.022036546886626967,0.016805834322248706,0.001630660891080896
1.5102984703094293,0.0365554045951188,0.03179801761429023,0.019143160662124768,0.017077680904366222,-0.00046356200121339575
1.510369987464356,0.030705701566729478,0.03166268630376625,0.01712115674686206,0.0195620478956817,-0.0036668582721281102
1.5104415046192825,0.025671938650474672,0.03282912843663567,0.016152578444133103,0.02375267107694233,-0.007477150508203648
1.510513021774209,0.02230380117340663,0.034533939941798646,0.01595046449902194,0.02856467045567059,-0.011259334929465748
1.5105845389291357,0.02110478427342222,0.032950899385915715,0.014310671393420193,0.030162879484835044,-0.013541691164260378
1.5106560560840623,0.022087028251984653,0.027457210692112544,0.011927341615445858,0.02561989471004502,-0.011649839318494414
1.5107275732389889,0.02474352062355467,0.018773259047639008,0.008315005741078718,0.01728511426748314,-0.007684224619257497
1.5107990903939155,0.028206425428266402,0.012167377422839647,0.006455089330600415,0.00938890457197302,-0.0029095118740256015
1.510870607548842,0.03156791810921427,0.009094469722747758,0.006924877381908108,0.004194748405008025,0.0013350676469898223
1.5109421247037687,0.034217944840168574,0.009423446073250248,0.0085255112555674,0.004215184841557341,0.00236335493351297
1.5110136418586952,0.036025983655989566,0.01282739319659259,0.01161661354179527,0.007198188371365207,0.0021175791531157103
1.5110851590136218,0.03729532439305516,0.014541526655139064,0.013294021431409462,0.01093073300301697,0.00038160707656791516
1.5111566761685484,0.03854470610167679,0.013078964774870456,0.013163190298163863,0.014464648590536118,-0.0023833355541818713
1.511228193323475,0.04022460916569971,0.011585034350802883,0.013651672900344249,0.01524658641156626,-0.002657644600363087
1.5112997104784016,0.04246467581659284,0.01248207044538516,0.01442102957265151,0.016069855090070556,-0.002780076919886513
1.5113712276333282,0.04493429586497486,0.01766823646575252,0.016921655013448497,0.019737002271534618,-0.003929703975277309
1.5114427447882548,0.04689231770787431,0.023872655505360555,0.019784155718843215,0.024599577132700924,-0.005749902450188355
1.5115142619431814,0.047454803887083834,0.026655151809714537,0.02007376929597759,0.027276037933325347,-0.007591151118664106
