freq,gls,usurper,pdc_unbiased,shape_periodogram,shift_periodogram
1.5,0.031605246424144244,0.031888176318543515,0.022003088454338578,0.02633833263063349,0.0025229863319774955
1.5000715171549266,0.028595336453250155,0.024592702158712197,0.01679692217781675,0.020422304899260803,0.0017401391743544984
1.5001430343098532,0.024797888546036324,0.018482277666806966,0.011419584810450916,0.015878099601634547,1.956532729776951e-05
1.5002145514647798,0.020789812632417533,0.01650255050423316,0.008796510756732951,0.01211113233959303,8.47252818727391e-05
1.5002860686197064,0.017345459787468324,0.019159656245542507,0.009479677332466734,0.010760681052244717,0.0014273155083454423
1.500357585774633,0.015271945925960987,0.023848882834578138,0.011714688134418397,0.011328744430141206,0.002912220068553428
1.5004291029295596,0.015165201318802408,0.029287915673981976,0.01415548030345099,0.01469277801987294,0.0029342244604640424
1.5005006200844861,0.01716595655706576,0.03426649282894319,0.016954003693511403,0.0171841782633355,0.003756099971305797
1.5005721372394127,0.02086274426290797,0.03805483024469617,0.019187221778694714,0.019984618800034118,0.003938585477037759
1.5006436543943393,0.02544081002802935,0.041497205054827666,0.02137618975240262,0.02331751575509674,0.0037748752938681356
1.500715171549266,0.03000884122307953,0.04533736167825836,0.02421994995090846,0.025665219253281593,0.0047185452359985135
1.5007866887041925,0.03391266896856934,0.049922868231024264,0.02666061786266369,0.031048738222627527,0.00356439698290335
1.500858205859119,0.0368882624749449,0.054978544019985844,0.029368029530911475,0.03762104079808124,0.0019339247560204585
1.5009297230140457,0.0390355018056212,0.06039195483137214,0.03287087235373193,0.04563469979365312,0.0001098518692466341
1.5010012401689723,0.04067274274449097,0.06234614435238035,0.0349635290275476,0.051562679860363204,-0.0016459786645815764
1.5010727573238989,0.04213722341942038,0.0626706636820587,0.036798409825528795,0.05529289568552995,-0.002328852260568328
1.5011442744788255,0.043587855733941964,0.06292783616923076,0.03793328428010061,0.05880847030660928,-0.0034572469538913203
1.501215791633752,0.044880915226329254,0.06296915662186492,0.03824814004694497,0.06197491415468221,-0.005050907284195187
1.5012873087886787,0.045592465454410994,0.06424681066129358,0.03896037083855539,0.0649566323089681,-0.006212961799996354
1.5013588259436053,0.04519857422015515,0.06352768960250799,0.038338310339186395,0.06496357633753438,-0.006724562681753381
1.5014303430985318,0.04331902735671992,0.05943570086853317,0.03525172960142179,0.06458510423077236,-0.009020955458456763
1.5015018602534584,0.03989064242203222,0.050926805175825506,0.029380562295107576,0.06109843352833641,-0.011767887916839002
1.501573377408385,0.035207008956161204,0.04109312914632721,0.02275340008029923,0.05688361727079534,-0.014700780131971082
1.5016448945633116,0.029854908046904056,0.03218119014011717,0.01716592382272006,0.050032106087768154,-0.01524285903882579
1.5017164117182382,0.02460404968418353,0.024826223680063,0.01272729457488559,0.042482265234894616,-0.014442010776722983
1.5017879288731648,0.020274028275387688,0.020379600362603143,0.010756457121333964,0.03604828983816385,-0.0122873930085892
1.5018594460280914,0.01756978332877583,0.018157583901610912,0.009814843547662735,0.03228538907404306,-0.010856332556993776
1.501930963183018,0.016887968997375314,0.017536650985182995,0.009773529530205848,0.028786756255285224,-0.008848178456529677
1.5020024803379446,0.018154766828972088,0.016693220653399638,0.009545857603491862,0.02581673201710398,-0.007300288454613865
1.5020739974928712,0.020807783027131654,0.01740753452401334,0.00997328939183271,0.024015957350806156,-0.005902334773751186
1.5021455146477978,0.023992628107040868,0.020210110471842405,0.01144212206274167,0.023680062228994454,-0.004512602333149764
1.5022170318027244,0.026898257150269028,0.025110077684704205,0.014028974316248104,0.02597649927865083,-0.0037495663609013754
1.502288548957651,0.029041972437567,0.030140161907401646,0.016679671046279716,0.028970896106049623,-0.0033415122410403457
1.5023600661125776,0.03036170293294545,0.03525220754389791,0.019990738498687276,0.0328330381998669,-0.0029023702453816838
1.5024315832675041,0.031115659296329378,0.035751265027575245,0.02077896981185265,0.03494110045982362,-0.003491358070542891
1.5025031004224307,0.031680428730509906,0.0327034741248927,0.019519808615351825,0.0354418587601118,-0.004807774516399315
1.5025746175773573,0.032340192227813126,0.028981947732235745,0.018649627815208736,0.033828287792086416,-0.0045738467951922145
1.502646134732284,0.033131945974426154,0.02655810546103708,0.017871043624403338,0.03154772546119171,-0.003876243768180578
1.5027176518872105,0.033797027787609374,0.026315064692268516,0.01799769758677829,0.030394868356207683,-0.0031005957042404865
1.502789169042137,0.033871437590867574,0.025184553696373353,0.017486670760106647,0.02819645843308185,-0.002233543795272956
1.5028606861970637,0.03289397904446062,0.021697143815083593,0.015274482970942199,0.025791190777841106,-0.002628955690540127
1.5029322033519903,0.030638444170610023,0.017566956283101363,0.012011118949132128,0.023786692478142486,-0.004112334761587144
1.5030037205069169,0.02725242384486997,0.015212840863253908,0.009441040885373031,0.022690032261897794,-0.005561408478806864
1.5030752376618435,0.023245599290448483,0.016442835651961515,0.008606550278537486,0.021970132374521147,-0.005819629681507734
1.50314675481677,0.019358366958489085,0.01984931248778434,0.008953985446160287,0.022036078511943544,-0.0055757522100919965
1.5032182719716967,0.01638051368297583,0.024426751615900858,0.010426555451109277,0.022627203422459385,-0.0047238274485355
1.5032897891266233,0.01497089818834955,0.02884484980730614,0.012350463029946239,0.023747381910826752,-0.003813585362639815
1.5033613062815498,0.015499460648454992,0.03217288883745121,0.013981854206916533,0.024315634798499873,-0.002819005574563596
1.5034328234364764,0.01793079665045714,0.03249928635055421,0.01416864675154985,0.02271808626032523,-0.0017353148563499763
1.503504340591403,0.021792554285279486,0.03201438419045395,0.013806564009865633,0.020847991027641163,-0.0009388811614773437
1.5035758577463296,0.026283745634476982,0.035086605534070135,0.015751292513310384,0.02183953120641676,6.36073691392766e-05
1.5036473749012562,0.03053094650102892,0.04108062769931795,0.019003856556851165,0.026778589596141055,-0.000172788313351524
1.5037188920561828,0.03389868374654469,0.04897263252108161,0.02304438568669538,0.034583880972833075,-0.0014400498383739758
1.5037904092111094,0.03619247413189749,0.058175320434445774,0.02836367437687625,0.04286888838534317,-0.0019461674350631046
1.503861926366036,0.03764566473947448,0.06501398061673971,0.03246316988130233,0.05041346312047082,-0.003012286931833209
1.5039334435209626,0.038716510453014726,0.06827745185348942,0.03408384953452373,0.05763979616611125,-0.005912971088023015
1.5040049606758892,0.0398171228344044,0.07002380762256309,0.03557140334761458,0.06255152214691698,-0.007571138676078426
1.5040764778308158,0.041095739566223526,0.07376844314367952,0.037525773851031737,0.06705666349144397,-0.00861157294507684
1.5041479949857424,0.04234364882306056,0.0774412435097786,0.038887791087543686,0.07158414563163784,-0.010149021256125192
1.504219512140669,0.043051695709888996,0.07910654911596404,0.03921573232033744,0.0753477546698084,-0.012084474906749465
1.5042910292955955,0.04260283060723393,0.07418128837846576,0.036347749549566495,0.07609578577637616,-0.014863600504977675
1.5043625464505221,0.04053910287302065,0.06258713789238571,0.030363706364527798,0.07253880339526021,-0.017661495985424498
1.5044340636054487,0.03679439695722014,0.04811380911652701,0.02344001313236871,0.0648444244404576,-0.018798435242326782
1.5045055807603753,0.03178229372791513,0.03548077587003596,0.01698689592080203,0.05737458743722836,-0.01968099767610845
1.504577097915302,0.026296542555493532,0.02685696086027745,0.012446934359831944,0.05041733110751817,-0.019306126933160996
1.5046486150702285,0.021278189004975218,0.02366354839187352,0.011187449324425095,0.04456437282322463,-0.01691017023472748
1.504720132225155,0.017555651134353225,0.022697779562256975,0.011283372248322305,0.04027665246382617,-0.014327865712802144
1.5047916493800817,0.01564621916050789,0.021463176350465574,0.010644076718018416,0.03712496447579262,-0.013007315153042862
1.5048631665350083,0.015656872938766518,0.01904964633303423,0.009217644422453899,0.033085643103573335,-0.011808810361917832
1.5049346836899349,0.017286051262519187,0.01735311851060544,0.008230188330603324,0.028986052501698053,-0.01021879927584002
1.5050062008448615,0.019918755698584013,0.017240668077905384,0.007905738300784866,0.025431361964008137,-0.00840836211490031
1.505077717999788,0.022804926807040774,0.01967502131192964,0.009361654152707073,0.022960930029444975,-0.0057839518578954655
1.5051492351547147,0.025289013466251117,0.024976196963581245,0.011726326065843064,0.025937978537803507,-0.005598815202665974
1.5052207523096413,0.027015644551186973,0.030267620901726345,0.014241445734319206,0.02902458921037936,-0.005355157506572048
1.5052922694645678,0.028012475009877,0.03276385584725764,0.015961322224474977,0.030047945196622423,-0.004553980159041522
1.5053637866194944,0.028596359216805502,0.02916630385919637,0.014919408532213189,0.02798134697559145,-0.004195321099053259
1.505435303774421,0.02915112616185344,0.022442275807892476,0.013309044659559194,0.023345890246183946,-0.0028002331598336342
1.5055068209293476,0.029900153036102176,0.01798863326585198,0.012321918805932341,0.019667599892623695,-0.0014571261717982887
1.5055783380842742,0.030782681811496897,0.01757947273687203,0.01250866989698158,0.01833909608312932,-0.0005305427597930837
1.5056498552392008,0.03146961942071043,0.020227533042475602,0.013496870470295333,0.02001585494562147,-0.0007052744650737051
1.5057213723941274,0.03149161794629547,0.021505499630988443,0.013134126432083434,0.02235517603559816,-0.0023645300782851337
1.505792889549054,0.030427310908792447,0.02060414374736944,0.011855838401314541,0.024694938532349553,-0.004768374463811751
1.5058644067039806,0.02809465201809536,0.017941072196437764,0.009674998552531539,0.025378491739417565,-0.006939654106881338
1.5059359238589072,0.024683284499830333,0.013812338346008785,0.006168765257997816,0.02500233262919901,-0.009569563245059481
1.5060074410138338,0.020766913938386953,0.011309110800346295,0.003987129865862614,0.02384901194633562,-0.010669389958788114
1.5060789581687604,0.017165658691511196,0.012493743949696424,0.004506773893992003,0.022596144232028697,-0.00951625116960521
1.506150475323687,0.014695536880755058,0.01524199086280771,0.005603202541494299,0.02283118003174078,-0.00876246742177992
1.5062219924786135,0.013907828977730352,0.01763855437834304,0.006474304461408025,0.0226211571783561,-0.007932109809836356
1.5062935096335401,0.014929925183180436,0.01818377866215754,0.007024475314287043,0.020267281070218388,-0.006111952566248036
1.5063650267884667,0.01746107614733839,0.01736680141686121,0.006681651925523114,0.01891098534224224,-0.005599411791312066
1.5064365439433933,0.020900617081537138,0.019429925966197848,0.008103902228742074,0.018423721597622796,-0.004159508543584069
1.50650806109832,0.024545654709518663,0.024239510227478216,0.01119024144466396,0.01807402331019994,-0.0014474524431101331
1.5065795782532465,0.027795889555703463,0.03226896013930972,0.015188716512202768,0.022348992303627843,-0.0006908471638068039
1.506651095408173,0.030315638754338018,0.042564777204686155,0.02020329875354711,0.028493104236350486,-0.000197528891972064
1.5067226125630997,0.03210575674634778,0.0525656907238985,0.02516307524326057,0.03551668039878261,-0.0002605226350492252
1.5067941297180263,0.03344435853615213,0.0582766275519348,0.02809340030703321,0.04107859461131742,-0.0011212576218905825
1.5068656468729529,0.03469846610783441,0.058920350703291186,0.028836225363534616,0.043637543342694936,-0.002010113996763849
1.5069371640278795,0.03608805388876267,0.058086478045701204,0.029158238083419115,0.04468524865339363,-0.002359526251491314
1.507008681182806,0.03753193323000867,0.05807292997418846,0.029645090979329304,0.04665561120657346,-0.003113417212728402
1.5070801983377327,0.038657419159163646,0.058431989760318215,0.03000532215028713,0.04834613709280619,-0.0038071526103083285
1.5071517154926592,0.038950459296790155,0.057153449219746216,0.029635790998015537,0.048334831887040776,-0.004101506084721789
1.5072232326475858,0.03795818995272562,0.0508863839355612,0.026170643808596194,0.04734305651718033,-0.006343839720469271
1.5072947498025124,0.035465807062779846,0.04294377001983309,0.02167628316777021,0.04533757353858308,-0.008830603473456046
1.507366266957439,0.03160750390290827,0.03627244898637718,0.01779655130545853,0.04294476577385888,-0.010589584845497128
1.5074377841123656,0.02689036393457737,0.030674148536495683,0.014369878001425985,0.04066714677931772,-0.01204637615132616
1.5075093012672922,0.022110982309926926,0.025937205696977828,0.012274203971852665,0.037263895524684836,-0.0117632270342898
1.5075808184222188,0.018158898886019043,0.022986409919962564,0.010838451012952628,0.03576552583170691,-0.01205567005213491
1.5076523355771454,0.015750547010193554,0.02100096100105267,0.009985828883372298,0.034104759110950664,-0.011779277512133333
1.507723852732072,0.015198153002695225,0.017370086512514114,0.008495434228764531,0.02996789765593073,-0.01057619330938886
1.5077953698869986,0.01632710132796861,0.012634854677276415,0.006411917338543193,0.024366731525625566,-0.009001154108712094
1.5078668870419252,0.01858159605132472,0.00920687319224424,0.00521914285473996,0.018693588501627733,-0.006660967343078081
1.5079384041968518,0.02125563485920751,0.007358712601625404,0.005152249488431391,0.012875807278174188,-0.0033222557518274
1.5080099213517784,0.023737553869918368,0.007510648304075174,0.0057615299185219465,0.009533179329271852,-0.000877974546236028
1.508081438506705,0.025680396681245936,0.009850430200640132,0.007453924502377228,0.007656310087660263,0.0015914990854130101
1.5081529556616315,0.027059576075294776,0.011914407625947256,0.008842952470356694,0.006597515392515606,0.003337450699700305
1.5082244728165581,0.028112039179855254,0.011191482594014588,0.008942296206187028,0.004687299712254272,0.004531947645179185
1.5082959899714847,0.029172386947160022,0.009091244182461768,0.008780907310022895,0.0029615052033260198,0.005407056497773599
1.5083675071264113,0.03045818310099522,0.00936396998450807,0.010026451111954632,0.002349471265578167,0.006775869038877071
1.508439024281338,0.03190386747651281,0.014002030377937694,0.012747040105629182,0.004175530773034277,0.007921722417380888
1.5085105414362645,0.03314377564440417,0.020620515279329097,0.01600259242207933,0.008408746475224764,0.008099225302659855
1.508582058591191,0.03366149064758627,0.025948712834641726,0.0186299276568245,0.012648428197475253,0.007762895254278314
1.5086535757461177,0.03301661123576188,0.025316636474717772,0.017302793300784304,0.014677526913992973,0.005501172169776484
1.5087250929010443,0.031031763736761156,0.020430266163647806,0.013978643770450466,0.014958312746419464,0.002635669232362212
1.5087966100559709,0.02787943173947238,0.0142730978435033,0.009773118861112214,0.013634058379668624,-9.781791745402289e-06
1.5088681272108975,0.024071143965329337,0.008681786408229333,0.005405399448016361,0.012819990931447327,-0.0030840221641347545
1.508939644365824,0.020368522042175177,0.004470839488849989,0.002619426200917792,0.010668866159216337,-0.004093078738495903
1.5090111615207507,0.017622660517009992,0.002714991419071252,0.001280243020763253,0.010260469192063058,-0.004942914522852485
1.5090826786756772,0.016549556574789192,0.00230497759391524,0.001094148915450876,0.011295125865697213,-0.005697469658057805
1.5091541958306038,0.01749078347259404,0.00249652522522169,0.001728275756159572,0.011099017288818201,-0.005067926211947225
1.5092257129855304,0.02026609634215111,0.0032903112004838407,0.002622344403247119,0.00943966570498625,-0.0033739039613520073
1.509297230140457,0.024225306810832306,0.0072572111313610665,0.005090188490138515,0.008644612381048787,-0.0009052787436807773
1.5093687472953836,0.028505184243561566,0.016334099205296784,0.010396256019729185,0.010076868196779429,0.0025708267011347713
1.5094402644503102,0.032363241212534366,0.02879888319219656,0.017181792517199104,0.014244607947200932,0.005655231903327799
1.5095117816052368,0.035420479974014,0.042399383537856536,0.023785576506019895,0.020144405489392163,0.007584311399952313
1.5095832987601634,0.03772295943106026,0.05247180638667333,0.028541189697550762,0.024576649946231714,0.00886838818762523
1.50965481591509,0.039632532833370364,0.055434712731051994,0.030196375009199177,0.026505990534561662,0.009090319509035725
1.5097263330700166,0.041605230836871475,0.05041811432655602,0.028415936049993602,0.0248748478120267,0.008592642346258065
1.5097978502249432,0.04392716574129624,0.04283387374999676,0.026087173799228647,0.019733093069622322,0.00969583464612538
1.5098693673798698,0.04649881119729661,0.03870117738183413,0.025125670272120693,0.015241746035133348,0.01153194121122818
1.5099408845347964,0.048782229516577,0.03924543960372227,0.025898717163670308,0.014578911171389358,0.01254684966288931
1.510012401689723,0.04998265464348263,0.042561483645977956,0.027970420605425636,0.01596361411254891,0.013424495429747423
1.5100839188446495,0.04939582665258717,0.0428671153696742,0.02744804663090382,0.017314005907639235,0.012212643098302932
1.5101554359995761,0.046726633743720845,0.03956255265730058,0.024915387052692306,0.01779073858645363,0.00987515777919168
1.5102269531545027,0.04221494386441091,0.03581973748440439,0.022036546886626967,0.01791531905536142,0.007461698892184392
1.5102984703094293,0.0365554045951188,0.03342830297663156,0.019143160662124768,0.019262811676006433,0.004323655655775178
1.510369987464356,0.030705701566729478,0.03292896583570455,0.01712115674686206,0.021246239280495124,0.0015232156831000126
1.5104415046192825,0.025671938650474672,0.033799593232752355,0.016152578444133103,0.023262986364975986,-0.0004403999096246642
1.510513021774209,0.02230380117340663,0.0351665686163126,0.01595046449902194,0.02570475132934866,-0.002028981762779186
1.5105845389291357,0.02110478427342222,0.03306415873565187,0.014310671393420193,0.025686054418033812,-0.0033511368860505834
1.5106560560840623,0.022087028251984653,0.0269898689467533,0.011927341615445858,0.02105175204430714,-0.0025851253534810202
1.5107275732389889,0.02474352062355467,0.017814936263609183,0.008315005741078718,0.014103815749138684,-0.0014685630781427611
1.5107990903939155,0.028206425428266402,0.010953180748130635,0.006455089330600415,0.0071833647519990666,0.0010557324592979252
1.510870607548842,0.03156791810921427,0.00796944290276083,0.006924877381908108,0.0020453756786743943,0.004433274165351054
1.5109421247037687,0.034217944840168574,0.008710381611070015,0.0085255112555674,-0.00021302734572420365,0.007050471250234074
1.5110136418586952,0.036025983655989566,0.012618387236480476,0.01161661354179527,-0.00048583383315801726,0.009720875802955843
1.5110851590136218,0.03729532439305516,0.014666977372372684,0.013294021431409462,9.27639249458758e-05,0.010746392571061828
1.5111566761685484,0.03854470610167679,0.013292134142000867,0.013163190298163863,0.000558071144569847,0.010368824599128598
1.511228193323475,0.04022460916569971,0.01188894839428489,0.013651672900344249,-0.0008843218821188478,0.011606603777256062
1.5112997104784016,0.04246467581659284,0.013043754163985153,0.01442102957265151,-0.0010515167680935015,0.012329155787143097
1.5113712276333282,0.04493429586497486,0.018618779747306562,0.016921655013448497,0.0013008768681141809,0.01298961458932445
1.5114427447882548,0.04689231770787431,0.025244476158835197,0.019784155718843215,0.004691533104468625,0.013339288187493754
1.5115142619431814,0.047454803887083834,0.028168273681802806,0.02007376929597759,0.007824382448581635,0.011748563150004318
