freq,gls,usurper,pdc_unbiased,shape_periodogram,shift_periodogram
1.5,0.031605246424144244,0.03064348788406783,0.022003088454338578,0.05153180594900922,-0.028342683909747843
1.5000715171549266,0.028595336453250155,0.024585312104164033,0.01679692217781675,0.044863605268628086,-0.026074837856023415
1.5001430343098532,0.024797888546036324,0.019198615175396064,0.011419584810450916,0.04044143960721389,-0.025717122181485527
1.5002145514647798,0.020789812632417533,0.0176906651151994,0.008796510756732951,0.03867752328427413,-0.02585894866483145
1.5002860686197064,0.017345459787468324,0.020297137189885406,0.009479677332466734,0.04055628360051843,-0.026963893332952026
1.500357585774633,0.015271945925960987,0.024665413106687725,0.011714688134418397,0.043307841296007656,-0.02784785496368109
1.5004291029295596,0.015165201318802408,0.029444522889983435,0.01415548030345099,0.04838137633900723,-0.030478536938348073
1.5005006200844861,0.01716595655706576,0.033940689390253825,0.016954003693511403,0.05202636439187699,-0.03174729218266011
1.5005721372394127,0.02086274426290797,0.03721277824937853,0.019187221778694714,0.05496876837859722,-0.03278727456994865
1.5006436543943393,0.02544081002802935,0.03998901967730165,0.02137618975240262,0.05782039488315602,-0.033780823908656964
1.500715171549266,0.03000884122307953,0.04309772405373013,0.02421994995090846,0.06072501336825814,-0.034427375896512465
1.5007866887041925,0.03391266896856934,0.04658555080237442,0.02666061786266369,0.0667268059076159,-0.03781099245235401
1.500858205859119,0.0368882624749449,0.05056757706679115,0.029368029530911475,0.07415728034960441,-0.04219082286953063
1.5009297230140457,0.0390355018056212,0.05501663033115429,0.03287087235373193,0.08248401290164845,-0.04682468306238049
1.5010012401689723,0.04067274274449097,0.05664898763698701,0.0349635290275476,0.08834533816754439,-0.05031251048579238
1.5010727573238989,0.04213722341942038,0.05690943596638758,0.036798409825528795,0.09146164639243276,-0.05173746960218619
1.5011442744788255,0.043587855733941964,0.0567511963446182,0.03793328428010061,0.09385135416163924,-0.052993083960192894
1.501215791633752,0.044880915226329254,0.05608113052458319,0.03824814004694497,0.09509208873377654,-0.05380888173563853
1.5012873087886787,0.045592465454410994,0.0567339295204566,0.03896037083855539,0.09817374835134404,-0.05587745560576523
1.5013588259436053,0.04519857422015515,0.05597892742772476,0.038338310339186395,0.0988212507888361,-0.05677255366808411
1.5014303430985318,0.04331902735671992,0.052601683011092096,0.03525172960142179,0.09645793638465075,-0.056700663009508684
1.5015018602534584,0.03989064242203222,0.04554203973437995,0.029380562295107576,0.09082032113209926,-0.05563993569111698
1.501573377408385,0.035207008956161204,0.037160667821693034,0.02275340008029923,0.08325981032087312,-0.05347712920634009
1.5016448945633116,0.029854908046904056,0.029736698226709303,0.01716592382272006,0.07567623056925024,-0.05068067254976175
1.5017164117182382,0.02460404968418353,0.023541017559495375,0.01272729457488559,0.06814884235905978,-0.04725043083872549
1.5017879288731648,0.020274028275387688,0.020049572671360802,0.010756457121333964,0.06167758949013024,-0.04320769942718929
1.5018594460280914,0.01756978332877583,0.018416363114418924,0.009814843547662735,0.05672419678716697,-0.039777981440742356
1.501930963183018,0.016887968997375314,0.018278180195386125,0.009773529530205848,0.05120469973093906,-0.03535851768280846
1.5020024803379446,0.018154766828972088,0.017804897476058193,0.009545857603491862,0.04715116989462016,-0.032231222058402786
1.5020739974928712,0.020807783027131654,0.018592574535318304,0.00997328939183271,0.044536247326910035,-0.02987253801424324
1.5021455146477978,0.023992628107040868,0.021241472563991774,0.01144212206274167,0.04517034598973585,-0.029508839801261743
1.5022170318027244,0.026898257150269028,0.025557839565598876,0.014028974316248104,0.04881019799439121,-0.030899009642090344
1.502288548957651,0.029041972437567,0.0299773874853925,0.016679671046279716,0.05417820295016071,-0.03364332390777402
1.5023600661125776,0.03036170293294545,0.03466665785401509,0.019990738498687276,0.05896537348712149,-0.035528155993118815
1.5024315832675041,0.031115659296329378,0.03533999339715169,0.02077896981185265,0.06196869303908354,-0.037478727257413615
1.5025031004224307,0.031680428730509906,0.0326725646420053,0.019519808615351825,0.06156292011126388,-0.03790137039939353
1.5025746175773573,0.032340192227813126,0.029225177538365305,0.018649627815208736,0.05836116852670018,-0.03583980194902119
1.502646134732284,0.033131945974426154,0.026491579676142248,0.017871043624403338,0.05405680420001693,-0.03283639394725886
1.5027176518872105,0.033797027787609374,0.026037424355177155,0.01799769758677829,0.053276660808250734,-0.03213275921474461
1.502789169042137,0.033871437590867574,0.024896866621791868,0.017486670760106647,0.052732455271973414,-0.03199875496356717
1.5028606861970637,0.03289397904446062,0.02201743694937243,0.015274482970942199,0.05051014047136198,-0.03152622672214683
1.5029322033519903,0.030638444170610023,0.01874331636471544,0.012011118949132128,0.04799610433272242,-0.03144450808304951
1.5030037205069169,0.02725242384486997,0.01698588755124944,0.009441040885373031,0.0468722806134821,-0.0320691270772276
1.5030752376618435,0.023245599290448483,0.018367173270961677,0.008606550278537486,0.04854502766181306,-0.03391182541902736
1.50314675481677,0.019358366958489085,0.02131835961960157,0.008953985446160287,0.050454487954715195,-0.03524210233449704
1.5032182719716967,0.01638051368297583,0.024970956587787415,0.010426555451109277,0.05254360179728762,-0.03604794749178423
1.5032897891266233,0.01497089818834955,0.028247220096754868,0.012350463029946239,0.05216183362586861,-0.03459601750718641
1.5033613062815498,0.015499460648454992,0.03076856611113949,0.013981854206916533,0.05063329963221213,-0.03239467444623968
1.5034328234364764,0.01793079665045714,0.03076542118824147,0.01416864675154985,0.04767397582992445,-0.029901291389998773
1.503504340591403,0.021792554285279486,0.02987374864628726,0.013806564009865633,0.04470323183652342,-0.02772581385940679
1.5035758577463296,0.026283745634476982,0.03226271909674656,0.015751292513310384,0.04513092479289606,-0.026912457049103753
1.5036473749012562,0.03053094650102892,0.03709420806027208,0.019003856556851165,0.050043620016566245,-0.02893054031324487
1.5037188920561828,0.03389868374654469,0.04346115521126955,0.02304438568669538,0.05886426327382835,-0.03362830861258711
1.5037904092111094,0.03619247413189749,0.051293805163084294,0.02836367437687625,0.06853937424986156,-0.03825775527417478
1.503861926366036,0.03764566473947448,0.05720507434830047,0.03246316988130233,0.07761187135437062,-0.04313391956334616
1.5039334435209626,0.038716510453014726,0.05988889607294959,0.03408384953452373,0.08372563398938532,-0.047104366556817205
1.5040049606758892,0.0398171228344044,0.06122433748198683,0.03557140334761458,0.08826768765701784,-0.049887277666169925
1.5040764778308158,0.041095739566223526,0.06386742206904666,0.037525773851031737,0.09150284052853104,-0.051336932750316186
1.5041479949857424,0.04234364882306056,0.06651524656915077,0.038887791087543686,0.09468577357682491,-0.05309860185648876
1.504219512140669,0.043051695709888996,0.06759165958933294,0.03921573232033744,0.09657580766849792,-0.05443203758380426
1.5042910292955955,0.04260283060723393,0.06357381127924867,0.036347749549566495,0.094379465196373,-0.054365857619955306
1.5043625464505221,0.04053910287302065,0.05416892137669944,0.030363706364527798,0.08716267116257427,-0.05209833508711861
1.5044340636054487,0.03679439695722014,0.04229569738807372,0.02344001313236871,0.07616551824577,-0.04734207742959651
1.5045055807603753,0.03178229372791513,0.03184696017564633,0.01698689592080203,0.06639320992142896,-0.04330162132590421
1.504577097915302,0.026296542555493532,0.02484109306174548,0.012446934359831944,0.05867637486535303,-0.03978468944536778
1.5046486150702285,0.021278189004975218,0.022546148347012327,0.011187449324425095,0.053820694567320485,-0.03662354507177901
1.504720132225155,0.017555651134353225,0.02198653837853108,0.011283372248322305,0.04928260942882533,-0.03291305409921952
1.5047916493800817,0.01564621916050789,0.020988806308787945,0.010644076718018416,0.04443044182593701,-0.02938827675557515
1.5048631665350083,0.015656872938766518,0.018969150231202814,0.009217644422453899,0.03871657306265543,-0.02563977663984577
1.5049346836899349,0.017286051262519187,0.01763859216042181,0.008230188330603324,0.03458926414982777,-0.02290746110750838
1.5050062008448615,0.019918755698584013,0.01771508768775811,0.007905738300784866,0.03237988545240996,-0.02132362563074371
1.505077717999788,0.022804926807040774,0.019861605202343896,0.009361654152707073,0.03145604686423239,-0.01971425972766036
1.5051492351547147,0.025289013466251117,0.024310440134695684,0.011726326065843064,0.03558566500636856,-0.021628297128126764
1.5052207523096413,0.027015644551186973,0.02865443512491429,0.014241445734319206,0.04067587467690333,-0.024226225761223515
1.5052922694645678,0.028012475009877,0.030788948845011547,0.015961322224474977,0.04296321010112485,-0.02504292777625264
1.5053637866194944,0.028596359216805502,0.0278940688936306,0.014919408532213189,0.0415497546215489,-0.024525799333707226
1.505435303774421,0.02915112616185344,0.022253515248089176,0.013309044659559194,0.038253842028614794,-0.02283260500607971
1.5055068209293476,0.029900153036102176,0.01820722395901161,0.012321918805932341,0.03461283192064576,-0.020491300218876733
1.5055783380842742,0.030782681811496897,0.017509587582954646,0.01250866989698158,0.033495333291445314,-0.01948131753011543
1.5056498552392008,0.03146961942071043,0.019551477451742613,0.013496870470295333,0.03633447959351558,-0.02117677498020113
1.5057213723941274,0.03149161794629547,0.020636625883712095,0.013134126432083434,0.0401563160181539,-0.02446730372345382
1.505792889549054,0.030427310908792447,0.020573151082546898,0.011855838401314541,0.04167730871404948,-0.026451857947113237
1.5058644067039806,0.02809465201809536,0.018945365896468322,0.009674998552531539,0.040976688047814014,-0.027185905323009036
1.5059359238589072,0.024683284499830333,0.015572840355976962,0.006168765257997816,0.03984381685997607,-0.02836055852924869
1.5060074410138338,0.020766913938386953,0.013346463230735885,0.003987129865862614,0.0386065003825438,-0.02866300834773276
1.5060789581687604,0.017165658691511196,0.014233620369472899,0.004506773893992003,0.037459775889536334,-0.027431530736300926
1.506150475323687,0.014695536880755058,0.016131170806419917,0.005603202541494299,0.036249228880237155,-0.02580559808320639
1.5062219924786135,0.013907828977730352,0.017614504902282353,0.006474304461408025,0.033585844908181776,-0.023145234454132576
1.5062935096335401,0.014929925183180436,0.017573533061637607,0.007024475314287043,0.028823116284169056,-0.01898783841325119
1.5063650267884667,0.01746107614733839,0.016169413885513344,0.006681651925523114,0.02387689894425391,-0.015214942204465075
1.5064365439433933,0.020900617081537138,0.017269833741104672,0.008103902228742074,0.02150573269954605,-0.012462237596404347
1.50650806109832,0.024545654709518663,0.02107947610165647,0.01119024144466396,0.022436663837414075,-0.011373655230721534
1.5065795782532465,0.027795889555703463,0.027566740933477822,0.015188716512202768,0.029338933505210055,-0.014543151182694341
1.506651095408173,0.030315638754338018,0.03592523316653365,0.02020329875354711,0.03814667896783439,-0.018641526590188185
1.5067226125630997,0.03210575674634778,0.04436921883133486,0.02516307524326057,0.04767999210459622,-0.023359004035889783
1.5067941297180263,0.03344435853615213,0.04941103777082591,0.02809340030703321,0.054219042051816324,-0.02687806356589451
1.5068656468729529,0.03469846610783441,0.049917602018278634,0.028836225363534616,0.05613735325112172,-0.02798046947039293
1.5069371640278795,0.03608805388876267,0.04895157794378406,0.029158238083419115,0.054405427047413135,-0.0263934574939069
1.507008681182806,0.03753193323000867,0.04863332498681276,0.029645090979329304,0.052950144955926454,-0.024931142689654597
1.5070801983377327,0.038657419159163646,0.048825049034292356,0.03000532215028713,0.051382827370752705,-0.023454208991706995
1.5071517154926592,0.038950459296790155,0.047877156994721455,0.029635790998015537,0.048894807009522374,-0.021671207900451298
1.5072232326475858,0.03795818995272562,0.043216785738345816,0.026170643808596194,0.04444923770788979,-0.02015803767178328
1.5072947498025124,0.035465807062779846,0.037244236504921265,0.02167628316777021,0.038246476227987214,-0.017844464224466308
1.507366266957439,0.03160750390290827,0.0323700246468689,0.01779655130545853,0.03358481025638222,-0.01640512374193106
1.5074377841123656,0.02689036393457737,0.028364234486853993,0.014369878001425985,0.03150437251586599,-0.016772104344786157
1.5075093012672922,0.022110982309926926,0.024939598066430396,0.012274203971852665,0.029612970196602518,-0.0164985682986673
1.5075808184222188,0.018158898886019043,0.02263707181504409,0.010838451012952628,0.02901321582849888,-0.016870874077636034
1.5076523355771454,0.015750547010193554,0.021112513754441595,0.009985828883372298,0.026785773159422224,-0.01558726232991375
1.507723852732072,0.015198153002695225,0.018121270434560233,0.008495434228764531,0.021494136867218683,-0.01221989001314025
1.5077953698869986,0.01632710132796861,0.0140628698957438,0.006411917338543193,0.014914728377498302,-0.00817106884858272
1.5078668870419252,0.01858159605132472,0.011035350064263804,0.00521914285473996,0.009386874736981125,-0.004437972956152851
1.5079384041968518,0.02125563485920751,0.009386184027268894,0.005152249488431391,0.005122546177423356,-0.0010506100209023888
1.5080099213517784,0.023737553869918368,0.009149410362349276,0.0057615299185219465,0.0037960527748010773,0.00037804343682579076
1.508081438506705,0.025680396681245936,0.01084475077470892,0.007453924502377228,0.005661579917400587,-0.00011398419437313083
1.5081529556616315,0.027059576075294776,0.012476205324791859,0.008842952470356694,0.008711109487912365,-0.0017381114814112805
1.5082244728165581,0.028112039179855254,0.011981713218478051,0.008942296206187028,0.010330351390701592,-0.002980373700128137
1.5082959899714847,0.029172386947160022,0.01036836566173724,0.008780907310022895,0.011948629885899025,-0.00437708431111292
1.5083675071264113,0.03045818310099522,0.010697247714631751,0.010026451111954632,0.014284212658038397,-0.005512965321813573
1.508439024281338,0.03190386747651281,0.014383172381292657,0.012747040105629182,0.018248757053171517,-0.007080260973710242
1.5085105414362645,0.03314377564440417,0.019819532904171742,0.01600259242207933,0.023444254340478938,-0.009318802548806127
1.508582058591191,0.03366149064758627,0.02426388534402785,0.0186299276568245,0.027904190516128295,-0.011340334709752422
1.5086535757461177,0.03301661123576188,0.024029000433004422,0.017302793300784304,0.029166809297452866,-0.013145971188927694
1.5087250929010443,0.031031763736761156,0.020285714630326062,0.013978643770450466,0.026279169902052063,-0.012803161467269083
1.5087966100559709,0.02787943173947238,0.015211408503608168,0.009773118861112214,0.021162423490509997,-0.011192757131517328
1.5088681272108975,0.024071143965329337,0.01044936716332621,0.005405399448016361,0.017408027529018516,-0.010774194145767323
1.508939644365824,0.020368522042175177,0.00689664959383155,0.002619426200917792,0.015354369424854302,-0.010781380542833077
1.5090111615207507,0.017622660517009992,0.005195882979069116,0.001280243020763253,0.015809660418762167,-0.011944225134274173
1.5090826786756772,0.016549556574789192,0.004499490982241095,0.001094148915450876,0.01569642870614209,-0.011963948056400293
1.5091541958306038,0.01749078347259404,0.004370626473200971,0.001728275756159572,0.013684158124516168,-0.009969233943311966
1.5092257129855304,0.02026609634215111,0.0046686825239262994,0.002622344403247119,0.011261638023430724,-0.007490134543614909
1.509297230140457,0.024225306810832306,0.007684207910452557,0.005090188490138515,0.011348998916456252,-0.006091708350648798
1.5093687472953836,0.028505184243561566,0.015051877553836671,0.010396256019729185,0.014657321269036593,-0.005592743883909509
1.5094402644503102,0.032363241212534366,0.025200964699005946,0.017181792517199104,0.021463276314221125,-0.007024042398648347
1.5095117816052368,0.035420479974014,0.03610166287171858,0.023785576506019895,0.0298900460123741,-0.009866303069664758
1.5095832987601634,0.03772295943106026,0.04385161367860603,0.028541189697550762,0.03466674412202827,-0.010874086416690158
1.50965481591509,0.039632532833370364,0.04594665389835166,0.030196375009199177,0.03514097930746484,-0.010268836817046023
1.5097263330700166,0.041605230836871475,0.0418054134553248,0.028415936049993602,0.03300031004465759,-0.009608379794171285
1.5097978502249432,0.04392716574129624,0.03553021597180896,0.026087173799228647,0.027193597720244253,-0.006326622669605381
1.5098693673798698,0.04649881119729661,0.03192632692309774,0.025125670272120693,0.02098397623711656,-0.0019072084434584326
1.5099408845347964,0.048782229516577,0.032266424360334,0.025898717163670308,0.018389962277485496,0.0006384890482063507
1.510012401689723,0.04998265464348263,0.035152536578782076,0.027970420605425636,0.017636498588308305,0.002478495911711654
1.5100839188446495,0.04939582665258717,0.03582359054718137,0.02744804663090382,0.01604595954214231,0.003445557095346316
1.5101554359995761,0.046726633743720845,0.0339791566468345,0.024915387052692306,0.013336965458261713,0.004113813849357665
1.5102269531545027,0.04221494386441091,0.03170086482961667,0.022036546886626967,0.009983832968609808,0.005093803308963836
1.5102984703094293,0.0365554045951188,0.030363839212822024,0.019143160662124768,0.009790659286671803,0.0035260549435112074
1.510369987464356,0.030705701566729478,0.030580689998658865,0.01712115674686206,0.012565638008877826,9.191005544035991e-05
1.5104415046192825,0.025671938650474672,0.03180589530407381,0.016152578444133103,0.0169284655979255,-0.003991471021125446
1.510513021774209,0.02230380117340663,0.03325524644816087,0.01595046449902194,0.020382100928622207,-0.006888042237739503
1.5105845389291357,0.02110478427342222,0.03172239350618786,0.014310671393420193,0.020348617368369428,-0.007837424395396779
1.5106560560840623,0.022087028251984653,0.02676401845419955,0.011927341615445858,0.01553627023342883,-0.0053878514493872955
1.5107275732389889,0.02474352062355467,0.018835845208043357,0.008315005741078718,0.008505389612711925,-0.0018870018515663703
1.5107990903939155,0.028206425428266402,0.01291970416397853,0.006455089330600415,0.0033015244438194965,0.0011882352796607064
1.510870607548842,0.03156791810921427,0.010302386309180268,0.006924877381908108,0.001582591457522844,0.002849234499874896
1.5109421247037687,0.034217944840168574,0.010501015632211001,0.0085255112555674,0.004523267987227718,0.0014385996068819339
1.5110136418586952,0.036025983655989566,0.013496858430937812,0.01161661354179527,0.009509340574792602,-0.0007287136410703638
1.5110851590136218,0.03729532439305516,0.01489186169991032,0.013294021431409462,0.013778752864823007,-0.003161626534733445
1.5111566761685484,0.03854470610167679,0.013695507409885172,0.013163190298163863,0.018122156876576128,-0.006730756433939374
1.511228193323475,0.04022460916569971,0.012670341442290414,0.013651672900344249,0.020870562341323222,-0.008649349788496285
1.5112997104784016,0.04246467581659284,0.01340484013910538,0.01442102957265151,0.02252263112068187,-0.00951948078765887
1.5113712276333282,0.04493429586497486,0.01784469546481315,0.016921655013448497,0.026629886028456513,-0.011332918289133508
1.5114427447882548,0.04689231770787431,0.023067658706832358,0.019784155718843215,0.03098728371271119,-0.013132293082014777
1.5115142619431814,0.047454803887083834,0.025111297189849783,0.02007376929597759,0.03168129753308505,-0.013517963178557949
1.511585779098108,0.04599085839647899,0.02228372133664939,0.017243949592298295,0.028136971236283313,-0.012352865137759968
