freq,gls,usurper,pdc_unbiased,shape_periodogram,shift_periodogram
1.5,0.031605246424144244,0.031062901658992333,0.022003088454338578,0.014804365992533286,0.008696858598847935
1.5000715171549266,0.028595336453250155,0.024360018351742223,0.01679692217781675,0.011006467518087181,0.006814788683806289
1.5001430343098532,0.024797888546036324,0.01875690294010263,0.011419584810450916,0.007895683379996996,0.004384291229749741
1.5002145514647798,0.020789812632417533,0.01684283573564859,0.008796510756732951,0.005175699037611724,0.003921600338634169
1.5002860686197064,0.017345459787468324,0.01924389377305651,0.009479677332466734,0.004010442278933229,0.005167886719836004
1.500357585774633,0.015271945925960987,0.02339348178940381,0.011714688134418397,0.004910021492196261,0.006414128876556949
1.5004291029295596,0.015165201318802408,0.02832250802268139,0.01415548030345099,0.007694626925057518,0.006692484640555673
1.5005006200844861,0.01716595655706576,0.03286003156754749,0.016954003693511403,0.009474300100360258,0.007860921851130763
1.5005721372394127,0.02086274426290797,0.036203787272446275,0.019187221778694714,0.011197664892303135,0.008611438216490446
1.5006436543943393,0.02544081002802935,0.03917996489226401,0.02137618975240262,0.013036854368573094,0.009257250343191175
1.500715171549266,0.03000884122307953,0.04224827805048867,0.02421994995090846,0.014029444346468684,0.010935729063992353
1.5007866887041925,0.03391266896856934,0.046000887719106875,0.02666061786266369,0.017547575554275822,0.01077513137997098
1.500858205859119,0.0368882624749449,0.05038986955634788,0.029368029530911475,0.022201693767598913,0.010146136500430936
1.5009297230140457,0.0390355018056212,0.05527542705631277,0.03287087235373193,0.027904771828747035,0.009524523325967996
1.5010012401689723,0.04067274274449097,0.057077613611351476,0.0349635290275476,0.03194842369794371,0.00877121564333531
1.5010727573238989,0.04213722341942038,0.05772045032417106,0.036798409825528795,0.03448728505317012,0.008715869376199439
1.5011442744788255,0.043587855733941964,0.05821775310007883,0.03793328428010061,0.0372972712771877,0.007936840348058196
1.501215791633752,0.044880915226329254,0.058311559424407224,0.03824814004694497,0.040050870982351446,0.006534284088663452
1.5012873087886787,0.045592465454410994,0.05959135078690305,0.03896037083855539,0.042951011007378054,0.005361970821241327
1.5013588259436053,0.04519857422015515,0.05898367936625256,0.038338310339186395,0.04371448278346051,0.004404155664425283
1.5014303430985318,0.04331902735671992,0.05536996805767724,0.03525172960142179,0.04488766947656441,0.0012240410238887657
1.5015018602534584,0.03989064242203222,0.0476327637770931,0.029380562295107576,0.043498280762368224,-0.002645209165050092
1.501573377408385,0.035207008956161204,0.03886187555203183,0.02275340008029923,0.041699393413428494,-0.006870330013361828
1.5016448945633116,0.029854908046904056,0.030795714088738376,0.01716592382272006,0.03705318348411064,-0.008547148495985521
1.5017164117182382,0.02460404968418353,0.024062109278178225,0.01272729457488559,0.03137064836827001,-0.008680094311548791
1.5017879288731648,0.020274028275387688,0.02003874518699475,0.010756457121333964,0.026854631153277412,-0.007540704977035524
1.5018594460280914,0.01756978332877583,0.01813687355917483,0.009814843547662735,0.02449567994607035,-0.006875411707393142
1.501930963183018,0.016887968997375314,0.017680545934793748,0.009773529530205848,0.022021881111185138,-0.005421293890463164
1.5020024803379446,0.018154766828972088,0.016799234143697047,0.009545857603491862,0.01966344242630391,-0.004185680422039469
1.5020739974928712,0.020807783027131654,0.017119743567426852,0.00997328939183271,0.01806317824333859,-0.002882074864872242
1.5021455146477978,0.023992628107040868,0.019257646293736205,0.01144212206274167,0.017401991803236386,-0.0013102266919637394
1.5022170318027244,0.026898257150269028,0.023366392457864253,0.014028974316248104,0.018598128710150506,3.9489108746683466e-05
1.502288548957651,0.029041972437567,0.02773768738708186,0.016679671046279716,0.020392184844395228,0.0010812139447876445
1.5023600661125776,0.03036170293294545,0.0323906436445829,0.019990738498687276,0.022619244300179267,0.002391357691206534
1.5024315832675041,0.031115659296329378,0.03286601007072156,0.02077896981185265,0.023237849336450577,0.0026501969011401474
1.5025031004224307,0.031680428730509906,0.030406585828720474,0.019519808615351825,0.02290932201714159,0.0018402780880935267
1.5025746175773573,0.032340192227813126,0.027292437021095236,0.018649627815208736,0.020692451018853655,0.002476472720868084
1.502646134732284,0.033131945974426154,0.025098457830976324,0.017871043624403338,0.018089127864800894,0.0034181413146573804
1.5027176518872105,0.033797027787609374,0.024950223154109025,0.01799769758677829,0.016958797400067137,0.004198660334362858
1.502789169042137,0.033871437590867574,0.02400894300498546,0.017486670760106647,0.015233594866135446,0.00482658112524554
1.5028606861970637,0.03289397904446062,0.021066945122326815,0.015274482970942199,0.014228518501418059,0.003661378445821684
1.5029322033519903,0.030638444170610023,0.017375296538625438,0.012011118949132128,0.013688365665834907,0.0013764897266594406
1.5030037205069169,0.02725242384486997,0.015266043890632007,0.009441040885373031,0.013477668838509769,-0.0005517838454709716
1.5030752376618435,0.023245599290448483,0.01636596120142815,0.008606550278537486,0.013121124014614878,-0.0010046920648829423
1.50314675481677,0.019358366958489085,0.019397404026376252,0.008953985446160287,0.013648238578148815,-0.0010436924147547788
1.5032182719716967,0.01638051368297583,0.02329445878335331,0.010426555451109277,0.014615997685665502,-0.0004479220098678581
1.5032897891266233,0.01497089818834955,0.02708822414700035,0.012350463029946239,0.01611736291853758,0.00018813557630582863
1.5033613062815498,0.015499460648454992,0.03001877189484779,0.013981854206916533,0.0167003546984548,0.0011423183249666497
1.5034328234364764,0.01793079665045714,0.030101245173595335,0.01416864675154985,0.015235182424440214,0.002172167522601032
1.503504340591403,0.021792554285279486,0.029090029265753006,0.013806564009865633,0.012966535345846453,0.0032458741332030278
1.5035758577463296,0.026283745634476982,0.03129527321673485,0.015751292513310384,0.013350697925164,0.0045701320911297715
1.5036473749012562,0.03053094650102892,0.03606560909827513,0.019003856556851165,0.017068422430667706,0.00493754814462418
1.5037188920561828,0.03389868374654469,0.04275553155233963,0.02304438568669538,0.02287827479547908,0.004678853786447552
1.5037904092111094,0.03619247413189749,0.05089589469696564,0.02836367437687625,0.028572930684499644,0.00551409602167697
1.503861926366036,0.03764566473947448,0.05689377329859759,0.03246316988130233,0.03355687559252835,0.005801712311989232
1.5039334435209626,0.038716510453014726,0.05988411635678082,0.03408384953452373,0.039047973519362664,0.003799483254733221
1.5040049606758892,0.0398171228344044,0.06160925413147077,0.03557140334761458,0.04281833472656359,0.002724746057140956
1.5040764778308158,0.041095739566223526,0.06505396528708744,0.037525773851031737,0.0467360861952161,0.0019355581846237674
1.5041479949857424,0.04234364882306056,0.0684906929037539,0.038887791087543686,0.05106644366006253,0.0004230229558124201
1.504219512140669,0.043051695709888996,0.07026968479465955,0.03921573232033744,0.05532803230633033,-0.0018784136970085676
1.5042910292955955,0.04260283060723393,0.06623524507177708,0.036347749549566495,0.05791778697791549,-0.0057386254971250215
1.5043625464505221,0.04053910287302065,0.056239728228241685,0.030363706364527798,0.057095203636729853,-0.010041931873285745
1.5044340636054487,0.03679439695722014,0.04361874457812151,0.02344001313236871,0.0522906664901252,-0.012695780830848385
1.5045055807603753,0.03178229372791513,0.032582589459513665,0.01698689592080203,0.047174300725955014,-0.014781276402388636
1.504577097915302,0.026296542555493532,0.024958655861208715,0.012446934359831944,0.04226271426959628,-0.015457200398237097
1.5046486150702285,0.021278189004975218,0.022139524213030344,0.011187449324425095,0.038080515203380856,-0.013947912510010117
1.504720132225155,0.017555651134353225,0.021286785744905657,0.011283372248322305,0.035340078425400163,-0.012222484590523665
1.5047916493800817,0.01564621916050789,0.02016225848930154,0.010644076718018416,0.03314422889354922,-0.011412927484579862
1.5048631665350083,0.015656872938766518,0.01795084914285899,0.009217644422453899,0.02999281100830269,-0.010658296436472883
1.5049346836899349,0.017286051262519187,0.01623003410083742,0.008230188330603324,0.026310318942780585,-0.009233532646151878
1.5050062008448615,0.019918755698584013,0.015639238361243504,0.007905738300784866,0.023084438205771537,-0.007553496670253308
1.505077717999788,0.022804926807040774,0.017307852433290374,0.009361654152707073,0.020465535887129575,-0.00481508972823377
1.5051492351547147,0.025289013466251117,0.021777376580107553,0.011726326065843064,0.02257734326205341,-0.004193658712150013
1.5052207523096413,0.027015644551186973,0.026269588034193696,0.014241445734319206,0.024444865080063972,-0.0033048457840870226
1.5052922694645678,0.028012475009877,0.028333348895211892,0.015961322224474977,0.024081229387617382,-0.001710641912030806
1.5053637866194944,0.028596359216805502,0.024968006683578264,0.014919408532213189,0.021028997985551065,-0.00070938291507408
1.505435303774421,0.02915112616185344,0.01904343484261476,0.013309044659559194,0.015723388099115575,0.0011914071709476334
1.5055068209293476,0.029900153036102176,0.015013435167403272,0.012321918805932341,0.011563306693653462,0.0029019576572350647
1.5055783380842742,0.030782681811496897,0.014641616495433565,0.01250866989698158,0.00987855991565392,0.004063598466130442
1.5056498552392008,0.03146961942071043,0.017124658717198676,0.013496870470295333,0.01132713396637173,0.003983324849299343
1.5057213723941274,0.03149161794629547,0.01840668345227323,0.013134126432083434,0.013469142075114637,0.0024061712537567182
1.505792889549054,0.030427310908792447,0.017962096484284838,0.011855838401314541,0.01624820907162446,-0.00028600683980919896
1.5058644067039806,0.02809465201809536,0.015924917333529957,0.009674998552531539,0.017855293244976197,-0.002995632632849563
1.5059359238589072,0.024683284499830333,0.012463336549301145,0.006168765257997816,0.0183039550264659,-0.0060685817975638795
1.5060074410138338,0.020766913938386953,0.01034517837548189,0.003987129865862614,0.017625959612976663,-0.007405142741715458
1.5060789581687604,0.017165658691511196,0.011441541002463496,0.004506773893992003,0.016783525996982587,-0.006483383243619795
1.506150475323687,0.014695536880755058,0.013770119078621907,0.005603202541494299,0.017709599860778354,-0.006163480191651824
1.5062219924786135,0.013907828977730352,0.015624543364936946,0.006474304461408025,0.017861364533739404,-0.005558287702843834
1.5062935096335401,0.014929925183180436,0.01585052731077126,0.007024475314287043,0.015894063324600936,-0.003936023062249888
1.5063650267884667,0.01746107614733839,0.014688074619630962,0.006681651925523114,0.01477363555421086,-0.0035367154841044117
1.5064365439433933,0.020900617081537138,0.015936401654839737,0.008103902228742074,0.014249427257290267,-0.002084623858082785
1.50650806109832,0.024545654709518663,0.01948544077825243,0.01119024144466396,0.013405257198787764,0.0008902726716230724
1.5065795782532465,0.027795889555703463,0.026015040258510612,0.015188716512202768,0.01625887687310351,0.0023727378087284893
1.506651095408173,0.030315638754338018,0.034785411047658664,0.02020329875354711,0.020432785404834106,0.003875362828767757
1.5067226125630997,0.03210575674634778,0.04345676409142783,0.02516307524326057,0.02539878862485187,0.004859653395414437
1.5067941297180263,0.03344435853615213,0.04837721129767635,0.02809340030703321,0.029599368362110155,0.004680855013838633
1.5068656468729529,0.03469846610783441,0.049038487106800296,0.028836225363534616,0.03157765907776709,0.004086610482511408
1.5069371640278795,0.03608805388876267,0.048446143106825754,0.029158238083419115,0.03244528676192729,0.003822962740643879
1.507008681182806,0.03753193323000867,0.048664472959093465,0.029645090979329304,0.03439033633348118,0.0030436658413092155
1.5070801983377327,0.038657419159163646,0.049219662530661616,0.03000532215028713,0.03674789344155844,0.0019148660943880934
1.5071517154926592,0.038950459296790155,0.04842797353911473,0.029635790998015537,0.037907976093352995,0.0009213837416298477
1.5072232326475858,0.03795818995272562,0.04326372608470612,0.026170643808596194,0.03894601208283714,-0.0024779403787669007
1.5072947498025124,0.035465807062779846,0.036619701860168365,0.02167628316777021,0.03934409871194176,-0.0063156193783785895
1.507366266957439,0.03160750390290827,0.031223118534460522,0.01779655130545853,0.03887619393943559,-0.009139235366444813
1.5074377841123656,0.02689036393457737,0.026719630036370255,0.014369878001425985,0.03800653461692791,-0.011357728496092834
1.5075093012672922,0.022110982309926926,0.022939332420175925,0.012274203971852665,0.0358806915517355,-0.011755200543975138
1.5075808184222188,0.018158898886019043,0.020688945589927846,0.010838451012952628,0.03546963593865512,-0.012656267784490872
1.5076523355771454,0.015750547010193554,0.01923524201353612,0.009985828883372298,0.03487365957598115,-0.012979642090962251
1.507723852732072,0.015198153002695225,0.016103866876445345,0.008495434228764531,0.03200104052127788,-0.01244359505780987
1.5077953698869986,0.01632710132796861,0.011823107521051007,0.006411917338543193,0.02736320790557091,-0.011320433045718043
1.5078668870419252,0.01858159605132472,0.008553459480808491,0.00521914285473996,0.022125172077492546,-0.009124761726282824
1.5079384041968518,0.02125563485920751,0.006435263254865969,0.005152249488431391,0.016584520319045296,-0.005847762808517346
1.5080099213517784,0.023737553869918368,0.006042391793340692,0.0057615299185219465,0.012961804546215025,-0.00318341761780316
1.508081438506705,0.025680396681245936,0.007745286284058126,0.007453924502377228,0.009902160092198974,8.217373866903408e-06
1.5081529556616315,0.027059576075294776,0.009229208361469269,0.008842952470356694,0.007195828497446608,0.0027448900455089953
1.5082244728165581,0.028112039179855254,0.008224500677343642,0.008942296206187028,0.0038566138455121187,0.004830727152925958
1.5082959899714847,0.029172386947160022,0.0062079001502365685,0.008780907310022895,0.0011423344830911637,0.006332589230047029
1.5083675071264113,0.03045818310099522,0.006406506878068469,0.010026451111954632,-0.00028257573201190874,0.008184387454985953
1.508439024281338,0.03190386747651281,0.01052739797668922,0.012747040105629182,0.00046775155980720924,0.009908390247699829
1.5085105414362645,0.03314377564440417,0.016529586384161032,0.01600259242207933,0.0035897664786178744,0.010635432260713226
1.508582058591191,0.03366149064758627,0.02154932744172394,0.0186299276568245,0.0072448503601901335,0.010540412919950405
1.5086535757461177,0.03301661123576188,0.021181245020769096,0.017302793300784304,0.00960161537900256,0.00806334039241362
1.5087250929010443,0.031031763736761156,0.01703387771759507,0.013978643770450466,0.010779216734179432,0.004697765693251891
1.5087966100559709,0.02787943173947238,0.011791911441979108,0.009773118861112214,0.010533743636659442,0.001482798895962396
1.5088681272108975,0.024071143965329337,0.0069990330830204915,0.005405399448016361,0.010487424519103703,-0.0019811212333740997
1.508939644365824,0.020368522042175177,0.0033037592190027706,0.002619426200917792,0.008802136976711792,-0.003195424466759632
1.5090111615207507,0.017622660517009992,0.001723986213970222,0.001280243020763253,0.00840893996969548,-0.004029616731394622
1.5090826786756772,0.016549556574789192,0.0013879830104899418,0.001094148915450876,0.00952946616662748,-0.004851734266735504
1.5091541958306038,0.01749078347259404,0.0015545279466289957,0.001728275756159572,0.00941780966581128,-0.0042777490767980505
1.5092257129855304,0.02026609634215111,0.0020496531531495137,0.002622344403247119,0.007786867336285976,-0.0025829888118990667
1.509297230140457,0.024225306810832306,0.0052222561880332944,0.005090188490138515,0.006544762873870457,0.000136123607506688
1.5093687472953836,0.028505184243561566,0.012707552655758887,0.010396256019729185,0.007339910355543375,0.0039001050888372107
1.5094402644503102,0.032363241212534366,0.02320299601162381,0.017181792517199104,0.010431687210590956,0.00746788425542527
1.5095117816052368,0.035420479974014,0.03485195116774228,0.023785576506019895,0.014911652008583678,0.01005829780230354
1.5095832987601634,0.03772295943106026,0.04343686295976436,0.028541189697550762,0.01819314405248076,0.011892230578172545
1.50965481591509,0.039632532833370364,0.04582928067920174,0.030196375009199177,0.019549716449297136,0.01240212541090019
1.5097263330700166,0.041605230836871475,0.041228844375968576,0.028415936049993602,0.017742493527105233,0.012062674596073379
1.5097978502249432,0.04392716574129624,0.034497027696512125,0.026087173799228647,0.013030167188842456,0.013029712003507445
1.5098693673798698,0.04649881119729661,0.030803204339730585,0.025125670272120693,0.009085154966983682,0.014629950744923336
1.5099408845347964,0.048782229516577,0.031501758960329876,0.025898717163670308,0.009052730977795503,0.015267766746376577
1.510012401689723,0.04998265464348263,0.034841713550971216,0.027970420605425636,0.011309829829974328,0.015569544565694989
1.5100839188446495,0.04939582665258717,0.0354746982040473,0.02744804663090382,0.014022369373399644,0.0135225601673649
1.5101554359995761,0.046726633743720845,0.03298545025860686,0.024915387052692306,0.01607087031766061,0.010265808075193065
1.5102269531545027,0.04221494386441091,0.030154100056963205,0.022036546886626967,0.017758119013054477,0.0069490459981338725
1.5102984703094293,0.0365554045951188,0.028565357749415668,0.019143160662124768,0.02020125441962517,0.0031664433381499916
1.510369987464356,0.030705701566729478,0.028689760619184077,0.01712115674686206,0.023024894516915084,-0.00014797321530794763
1.5104415046192825,0.025671938650474672,0.02993198397041576,0.016152578444133103,0.02559962034881677,-0.002470399824135281
1.510513021774209,0.02230380117340663,0.03165401989517809,0.01595046449902194,0.02820564306560904,-0.004198782481158143
1.5105845389291357,0.02110478427342222,0.030124892585745165,0.014310671393420193,0.02831482782516999,-0.005576095524608635
1.5106560560840623,0.022087028251984653,0.025017035105871575,0.011927341615445858,0.02415919796060286,-0.004983828006325072
1.5107275732389889,0.02474352062355467,0.017024200714413414,0.008315005741078718,0.017942281708928205,-0.004135287064802876
1.5107990903939155,0.028206425428266402,0.010813079760421892,0.006455089330600415,0.011362170718722246,-0.0016676527167662977
1.510870607548842,0.03156791810921427,0.0078064469491353344,0.006924877381908108,0.006015264737266266,0.0019209272024115719
1.5109421247037687,0.034217944840168574,0.007989103375442168,0.0085255112555674,0.0028423513804564197,0.005106974053721685
1.5110136418586952,0.036025983655989566,0.011141160145854203,0.01161661354179527,0.0009290650735714185,0.008727561079260204
1.5110851590136218,0.03729532439305516,0.012616603768122833,0.013294021431409462,-0.00020514885087728337,0.010749924465782709
1.5111566761685484,0.03854470610167679,0.011125465081971792,0.013163190298163863,-0.001448044130692575,0.011392056308279802
1.511228193323475,0.04022460916569971,0.009789948277884496,0.013651672900344249,-0.004315319037245884,0.0135051590942463
1.5112997104784016,0.04246467581659284,0.010648104848483868,0.01442102957265151,-0.0057483838456288796,0.014981098464282113
1.5113712276333282,0.04493429586497486,0.015596775952229273,0.016921655013448497,-0.0046598398737591785,0.016326006010816522
1.5114427447882548,0.04689231770787431,0.021503166588480564,0.019784155718843215,-0.0022159368403458063,0.0171462562533683
1.5115142619431814,0.047454803887083834,0.024114499255873285,0.02007376929597759,0.001220016830737509,0.015313956138419446
