freq,gls,usurper,pdc_unbiased,shape_periodogram,shift_periodogram
1.5,0.031605246424144244,0.030356234199445806,0.022003088454338578,0.02337967088861467,-0.004274657559937865
1.5000715171549266,0.028595336453250155,0.02366820960751093,0.01679692217781675,0.01778611262164183,-0.003216050797157299
1.5001430343098532,0.024797888546036324,0.017832422825359375,0.011419584810450916,0.012794557265111304,-0.0027321755702870536
1.5002145514647798,0.020789812632417533,0.015885906235458613,0.008796510756732951,0.008989151237270883,-0.0014320181181258992
1.5002860686197064,0.017345459787468324,0.018256365026203397,0.009479677332466734,0.006806316187474499,0.0006932118111692674
1.500357585774633,0.015271945925960987,0.022666734268161425,0.011714688134418397,0.006814299485493588,0.002096303709616965
1.5004291029295596,0.015165201318802408,0.027715836930052418,0.01415548030345099,0.009489723319261394,0.0015586861057072104
1.5005006200844861,0.01716595655706576,0.03240291285140812,0.016954003693511403,0.011606877439901861,0.001680220590871178
1.5005721372394127,0.02086274426290797,0.03595308820824641,0.019187221778694714,0.014264449589754992,0.001025871057729088
1.5006436543943393,0.02544081002802935,0.039108452685906486,0.02137618975240262,0.017157360561744498,0.00016103320594587623
1.500715171549266,0.03000884122307953,0.042396481999620525,0.02421994995090846,0.018632744973808495,0.0008100889574019164
1.5007866887041925,0.03391266896856934,0.046111425964177395,0.02666061786266369,0.02252317183704988,-0.0006699720190459288
1.500858205859119,0.0368882624749449,0.050169689154787464,0.029368029530911475,0.026865632957303886,-0.0023325971550560974
1.5009297230140457,0.0390355018056212,0.05464795044568416,0.03287087235373193,0.032277344896493754,-0.004323265550702676
1.5010012401689723,0.04067274274449097,0.05601181848847309,0.0349635290275476,0.03610617623756038,-0.005975393564374831
1.5010727573238989,0.04213722341942038,0.056106807451546496,0.036798409825528795,0.03780481237541926,-0.00613542570980489
1.5011442744788255,0.043587855733941964,0.05614684091609102,0.03793328428010061,0.03983149750866361,-0.006992774397107798
1.501215791633752,0.044880915226329254,0.05605962905948171,0.03824814004694497,0.042995119327406094,-0.009252371876136428
1.5012873087886787,0.045592465454410994,0.057275059153315495,0.03896037083855539,0.04682676620461474,-0.011780593900653395
1.5013588259436053,0.04519857422015515,0.05664956202756172,0.038338310339186395,0.047859235905833235,-0.012976762352631852
1.5014303430985318,0.04331902735671992,0.05318851993439531,0.03525172960142179,0.04839097464140221,-0.015341752701862365
1.5015018602534584,0.03989064242203222,0.04573308221730957,0.029380562295107576,0.046322193914966316,-0.01744297027127385
1.501573377408385,0.035207008956161204,0.03697474392424078,0.02275340008029923,0.0426920203749988,-0.01880507801774669
1.5016448945633116,0.029854908046904056,0.028953404788499445,0.01716592382272006,0.036835004141822586,-0.017778680424071443
1.5017164117182382,0.02460404968418353,0.022323606995554194,0.01272729457488559,0.03030921426382381,-0.015508275123956677
1.5017879288731648,0.020274028275387688,0.01855197878137675,0.010756457121333964,0.025091698227357108,-0.012698657926475109
1.5018594460280914,0.01756978332877583,0.0170018149655946,0.009814843547662735,0.023074466989768453,-0.01172585262949198
1.501930963183018,0.016887968997375314,0.01705886935522236,0.009773529530205848,0.021679997315637627,-0.010669037216190641
1.5020024803379446,0.018154766828972088,0.016745301960112945,0.009545857603491862,0.020751211276608634,-0.01009138269616726
1.5020739974928712,0.020807783027131654,0.01781623851396478,0.00997328939183271,0.021373601993456875,-0.010305152627786869
1.5021455146477978,0.023992628107040868,0.020624931155587372,0.01144212206274167,0.02283043756396116,-0.010510206456277819
1.5022170318027244,0.026898257150269028,0.025114401006996124,0.014028974316248104,0.026007285993368143,-0.011345933131462519
1.502288548957651,0.029041972437567,0.0295087725951366,0.016679671046279716,0.029046548585881415,-0.012034566064123507
1.5023600661125776,0.03036170293294545,0.034037712343036444,0.019990738498687276,0.03222633631374188,-0.01241568516879811
1.5024315832675041,0.031115659296329378,0.03431161869310595,0.02077896981185265,0.03422991747201797,-0.013474899180211454
1.5025031004224307,0.031680428730509906,0.031405503151022716,0.019519808615351825,0.03398536675709337,-0.014079432122731786
1.5025746175773573,0.032340192227813126,0.028008627328600915,0.018649627815208736,0.03210663537862754,-0.013168876543504775
1.502646134732284,0.033131945974426154,0.02566352530221522,0.017871043624403338,0.030136019709015274,-0.012129256474838966
1.5027176518872105,0.033797027787609374,0.025389659873932654,0.01799769758677829,0.029838381329267832,-0.011818151134281968
1.502789169042137,0.033871437590867574,0.02415228983825176,0.017486670760106647,0.027739066757652385,-0.01050991655643208
1.5028606861970637,0.03289397904446062,0.020861565316608183,0.015274482970942199,0.024738476010489962,-0.009574948713693764
1.5029322033519903,0.030638444170610023,0.017161769909383878,0.012011118949132128,0.02297503019607617,-0.010263667421981497
1.5030037205069169,0.02725242384486997,0.015149528903072768,0.009441040885373031,0.021971746664965347,-0.011105242254070558
1.5030752376618435,0.023245599290448483,0.01636450296930198,0.008606550278537486,0.021614746092706378,-0.011354201128757374
1.50314675481677,0.019358366958489085,0.019397690415176347,0.008953985446160287,0.021083078907937338,-0.01072228397688506
1.5032182719716967,0.01638051368297583,0.023330429801498707,0.010426555451109277,0.02025624341534189,-0.009151698710401784
1.5032897891266233,0.01497089818834955,0.027288933145003375,0.012350463029946239,0.020493583263070235,-0.008122746311312108
1.5033613062815498,0.015499460648454992,0.030362628624125462,0.013981854206916533,0.020453858022788346,-0.007063024171061048
1.5034328234364764,0.01793079665045714,0.030561499105925927,0.01416864675154985,0.018430395228272244,-0.005374061182617866
1.503504340591403,0.021792554285279486,0.029964429395300893,0.013806564009865633,0.016831139390098282,-0.00436072435513242
1.5035758577463296,0.026283745634476982,0.03265141585886236,0.015751292513310384,0.017582364000236998,-0.003717409435359777
1.5036473749012562,0.03053094650102892,0.0378937047592837,0.019003856556851165,0.021931586104455773,-0.005042616196648829
1.5037188920561828,0.03389868374654469,0.044677327900414156,0.02304438568669538,0.028404659259185623,-0.0075200020335391676
1.5037904092111094,0.03619247413189749,0.05259905139414526,0.02836367437687625,0.0341154369053696,-0.008598038790687766
1.503861926366036,0.03764566473947448,0.058375599430032246,0.03246316988130233,0.03948935254928895,-0.010184190792011109
1.5039334435209626,0.038716510453014726,0.06102908338080384,0.03408384953452373,0.04452777481897526,-0.01307624693697569
1.5040049606758892,0.0398171228344044,0.06253142755963302,0.03557140334761458,0.0485664262650342,-0.015276110053604334
1.5040764778308158,0.041095739566223526,0.06585904197740831,0.037525773851031737,0.05277565636932858,-0.01731422132944264
1.5041479949857424,0.04234364882306056,0.06919971411727552,0.038887791087543686,0.05735726310875949,-0.020017537366639335
1.504219512140669,0.043051695709888996,0.07071478318735851,0.03921573232033744,0.0609354057579961,-0.02259511168723171
1.5042910292955955,0.04260283060723393,0.06627099520189535,0.036347749549566495,0.061226559809378044,-0.024635591758240295
1.5043625464505221,0.04053910287302065,0.055948917590142186,0.030363706364527798,0.05773655401919514,-0.0257009895272589
1.5044340636054487,0.03679439695722014,0.043017054723861824,0.02344001313236871,0.05065227631236748,-0.024561276695304425
1.5045055807603753,0.03178229372791513,0.03176484474741295,0.01698689592080203,0.04448289005447053,-0.023835793510717233
1.504577097915302,0.026296542555493532,0.024234972155948085,0.012446934359831944,0.03942468252558017,-0.02276743830017564
1.5046486150702285,0.021278189004975218,0.021635890687618963,0.011187449324425095,0.03504656478217648,-0.02015962205233092
1.504720132225155,0.017555651134353225,0.021184097800392696,0.011283372248322305,0.03237328360719288,-0.018022249290359844
1.5047916493800817,0.01564621916050789,0.020563504551068396,0.010644076718018416,0.03135338391642517,-0.017633071045772594
1.5048631665350083,0.015656872938766518,0.018812935858107456,0.009217644422453899,0.02919744823461127,-0.01685780360209472
1.5049346836899349,0.017286051262519187,0.017722615352348228,0.008230188330603324,0.02810979014357882,-0.016635590180175356
1.5050062008448615,0.019918755698584013,0.017998568322100544,0.007905738300784866,0.02762513158897558,-0.016463720560312735
1.505077717999788,0.022804926807040774,0.020441212474765155,0.009361654152707073,0.02733200398187025,-0.015318096418836065
1.5051492351547147,0.025289013466251117,0.025280737035055047,0.011726326065843064,0.031205677952493134,-0.016835887713118492
1.5052207523096413,0.027015644551186973,0.029828450683700113,0.014241445734319206,0.03411801528215514,-0.01751225611902185
1.5052922694645678,0.028012475009877,0.03182069798554484,0.015961322224474977,0.034512620006657224,-0.01673404510277031
1.5053637866194944,0.028596359216805502,0.028284358247241796,0.014919408532213189,0.03183916818062947,-0.015314225874060753
1.505435303774421,0.02915112616185344,0.021923322223522407,0.013309044659559194,0.026681495002734167,-0.012323622308647642
1.5055068209293476,0.029900153036102176,0.017640839302127717,0.012321918805932341,0.022822862929342925,-0.009949497244465916
1.5055783380842742,0.030782681811496897,0.017062564254303015,0.01250866989698158,0.02131182732506264,-0.008658345951534207
1.5056498552392008,0.03146961942071043,0.019371539916486106,0.013496870470295333,0.02325426143149181,-0.009543502388022094
1.5057213723941274,0.03149161794629547,0.020443153900352486,0.013134126432083434,0.025530416372058225,-0.011539948373831955
1.505792889549054,0.030427310908792447,0.019921938276531246,0.011855838401314541,0.027704390076150727,-0.014034557933832074
1.5058644067039806,0.02809465201809536,0.017729989552360326,0.009674998552531539,0.028123046945002526,-0.015734920209088954
1.5059359238589072,0.024683284499830333,0.013959254805221278,0.006168765257997816,0.026997334715963422,-0.017071204757374333
1.5060074410138338,0.020766913938386953,0.011604029542086159,0.003987129865862614,0.025094686065055515,-0.016968877067626346
1.5060789581687604,0.017165658691511196,0.01253622611807372,0.004506773893992003,0.022653552944696575,-0.014745632013256056
1.506150475323687,0.014695536880755058,0.01491591531504064,0.005603202541494299,0.021495144396118975,-0.01315489359739519
1.5062219924786135,0.013907828977730352,0.017095458796913106,0.006474304461408025,0.020929119463852636,-0.012166182503306155
1.5062935096335401,0.014929925183180436,0.01754989305800435,0.007024475314287043,0.01818658132756881,-0.009689816654843824
1.5063650267884667,0.01746107614733839,0.01670846980921011,0.006681651925523114,0.01667912357295071,-0.008735537197438678
1.5064365439433933,0.020900617081537138,0.018463799392254374,0.008103902228742074,0.016319832159805942,-0.00755984221922612
1.50650806109832,0.024545654709518663,0.022549660577144612,0.01119024144466396,0.01584930006771077,-0.005248389328787269
1.5065795782532465,0.027795889555703463,0.02934361362698774,0.015188716512202768,0.01932811486385911,-0.00542771717390152
1.506651095408173,0.030315638754338018,0.03807166533133681,0.02020329875354711,0.024028374878522656,-0.005914089122220073
1.5067226125630997,0.03210575674634778,0.04662583809275956,0.02516307524326057,0.02916573849233852,-0.006773834706849802
1.5067941297180263,0.03344435853615213,0.05157177239818333,0.02809340030703321,0.03341305740388405,-0.008223040273669465
1.5068656468729529,0.03469846610783441,0.05200696938927423,0.028836225363534616,0.03447183249130407,-0.008576506427087408
1.5069371640278795,0.03608805388876267,0.05118415174039937,0.029158238083419115,0.034614863165393035,-0.008484266922752249
1.507008681182806,0.03753193323000867,0.05120415872235049,0.029645090979329304,0.03633643662110848,-0.009514376217271248
1.5070801983377327,0.038657419159163646,0.051712455019765936,0.03000532215028713,0.03892026876095636,-0.011294641902325651
1.5071517154926592,0.038950459296790155,0.05072441946785847,0.029635790998015537,0.0398165102372017,-0.012224563139177183
1.5072232326475858,0.03795818995272562,0.04539094950704609,0.026170643808596194,0.03968306297755659,-0.014309098265051407
1.5072947498025124,0.035465807062779846,0.03863027004381587,0.02167628316777021,0.0384278975982914,-0.016170637400160066
1.507366266957439,0.03160750390290827,0.032981769877622365,0.01779655130545853,0.036712526344274424,-0.01728567236945078
1.5074377841123656,0.02689036393457737,0.028233904340377168,0.014369878001425985,0.03542085926333737,-0.018443515622643694
1.5075093012672922,0.022110982309926926,0.02415771750760551,0.012274203971852665,0.0324032931147779,-0.017420746838700978
1.5075808184222188,0.018158898886019043,0.02165548162264078,0.010838451012952628,0.03093468880562606,-0.017185259474002557
1.5076523355771454,0.015750547010193554,0.020232775742678965,0.009985828883372298,0.030351336896551395,-0.017269737519414057
1.507723852732072,0.015198153002695225,0.017418983931857743,0.008495434228764531,0.028220481757086996,-0.01655432996134983
1.5077953698869986,0.01632710132796861,0.013538591142261334,0.006411917338543193,0.025067822504301694,-0.01541940915675683
1.5078668870419252,0.01858159605132472,0.010799254493163622,0.00521914285473996,0.02214611382346372,-0.013902504148947734
1.5079384041968518,0.02125563485920751,0.009303211034897996,0.005152249488431391,0.018684946848533474,-0.011257151746784922
1.5080099213517784,0.023737553869918368,0.009300890867436705,0.0057615299185219465,0.01637324639678467,-0.009078170879406712
1.508081438506705,0.025680396681245936,0.011048094810874784,0.007453924502377228,0.01506767926211544,-0.006997501797831052
1.5081529556616315,0.027059576075294776,0.012408736684071286,0.008842952470356694,0.013754393036818259,-0.005102088639098618
1.5082244728165581,0.028112039179855254,0.011395800323276814,0.008942296206187028,0.01145926455247444,-0.003257651391778365
1.5082959899714847,0.029172386947160022,0.009211554688211832,0.008780907310022895,0.008556955490676895,-0.001106350065100879
1.5083675071264113,0.03045818310099522,0.009273189577976447,0.010026451111954632,0.006956710965169107,0.000921227631359725
1.508439024281338,0.03190386747651281,0.013453377788615226,0.012747040105629182,0.008885538886162957,0.0011394897541636153
1.5085105414362645,0.03314377564440417,0.019641773461807177,0.01600259242207933,0.014063036737830839,-0.0008265962829208174
1.508582058591191,0.03366149064758627,0.024631666214005078,0.0186299276568245,0.019112118364114878,-0.003089282820510611
1.5086535757461177,0.03301661123576188,0.024212758765764782,0.017302793300784304,0.021683942055917976,-0.005923459464906133
1.5087250929010443,0.031031763736761156,0.020008606812757377,0.013978643770450466,0.021933757970318664,-0.008214210429377197
1.5087966100559709,0.02787943173947238,0.014528794724682057,0.009773118861112214,0.020296737526113336,-0.009595182893073418
1.5088681272108975,0.024071143965329337,0.009486459727361377,0.005405399448016361,0.01918059653602194,-0.011482399960821843
1.508939644365824,0.020368522042175177,0.0054197421849097056,0.002619426200917792,0.01567233636575194,-0.010514898177881777
1.5090111615207507,0.017622660517009992,0.003450820091844967,0.001280243020763253,0.013609563591767732,-0.009757680311775926
1.5090826786756772,0.016549556574789192,0.0029465267700245733,0.001094148915450876,0.013073860734967987,-0.009459109970810963
1.5091541958306038,0.01749078347259404,0.0031622806631738864,0.001728275756159572,0.011960082981602336,-0.008194696792200562
1.5092257129855304,0.02026609634215111,0.003791725881711264,0.002622344403247119,0.009790699917167325,-0.005946940569425803
1.509297230140457,0.024225306810832306,0.007256679967128984,0.005090188490138515,0.008962836161666002,-0.0037484163797123914
1.5093687472953836,0.028505184243561566,0.015446470560040709,0.010396256019729185,0.010909372218994863,-0.0019139626301739373
1.5094402644503102,0.032363241212534366,0.026545317113500968,0.017181792517199104,0.014878653996172737,-0.0007159994925660132
1.5095117816052368,0.035420479974014,0.03833897497626496,0.023785576506019895,0.019661262741650146,-0.00026256312695597015
1.5095832987601634,0.03772295943106026,0.04683965330780869,0.028541189697550762,0.022717331582773618,0.00036650628035970215
1.50965481591509,0.039632532833370364,0.04910985376666452,0.030196375009199177,0.023238652844699063,0.00100684411925927
1.5097263330700166,0.041605230836871475,0.044334461100752544,0.028415936049993602,0.02068724832210266,0.0018635880622269836
1.5097978502249432,0.04392716574129624,0.037189434566644336,0.026087173799228647,0.014725870559954122,0.00502139564388362
1.5098693673798698,0.04649881119729661,0.03329457001038205,0.025125670272120693,0.010424183651499472,0.007753503831250588
1.5099408845347964,0.048782229516577,0.03394917611919464,0.025898717163670308,0.010864341621370888,0.007899694950920235
1.510012401689723,0.04998265464348263,0.03732597178546252,0.027970420605425636,0.013647294401757881,0.007047196431130446
1.5100839188446495,0.04939582665258717,0.03809132697026958,0.02744804663090382,0.016688690973558726,0.0043567123950544445
1.5101554359995761,0.046726633743720845,0.0357137789282521,0.024915387052692306,0.018627582951618746,0.0012529950987117645
1.5102269531545027,0.04221494386441091,0.03291423795494369,0.022036546886626967,0.019929347947231932,-0.0015744363012381597
1.5102984703094293,0.0365554045951188,0.031235810723012528,0.019143160662124768,0.022431772209097083,-0.005343132581253766
1.510369987464356,0.030705701566729478,0.031065206420457937,0.01712115674686206,0.024536130702325257,-0.008252930201775007
1.5104415046192825,0.025671938650474672,0.0319478733265333,0.016152578444133103,0.02620689274482799,-0.010161488402650267
1.510513021774209,0.02230380117340663,0.03335985757038385,0.01595046449902194,0.02814744200570514,-0.011796185135341954
1.5105845389291357,0.02110478427342222,0.031737567119078644,0.014310671393420193,0.02820526150248026,-0.012875402928576828
1.5106560560840623,0.022087028251984653,0.026484787491803725,0.011927341615445858,0.023973897379090496,-0.011092196904593671
1.5107275732389889,0.02474352062355467,0.01816284436573084,0.008315005741078718,0.017478676198433955,-0.008326481163156546
1.5107990903939155,0.028206425428266402,0.01189783971007876,0.006455089330600415,0.011273385592330232,-0.0046815690352028155
1.510870607548842,0.03156791810921427,0.009033520762317232,0.006924877381908108,0.006632400177612172,-0.0007826113642105543
1.5109421247037687,0.034217944840168574,0.009247901374571077,0.0085255112555674,0.00440842217309684,0.0019529529777329371
1.5110136418586952,0.036025983655989566,0.012282428409916888,0.01161661354179527,0.0036768373739165835,0.004469840725005453
1.5110851590136218,0.03729532439305516,0.013674903301853385,0.013294021431409462,0.003322021527914044,0.005802951505340469
1.5111566761685484,0.03854470610167679,0.012189966449473231,0.013163190298163863,0.0028001259546453026,0.00612554302120456
1.511228193323475,0.04022460916569971,0.01074281020607139,0.013651672900344249,0.0007966310514556121,0.007988621472603196
1.5112997104784016,0.04246467581659284,0.011704630381329212,0.01442102957265151,0.0010504627170623267,0.008276730015025957
1.5113712276333282,0.04493429586497486,0.01684568790274899,0.016921655013448497,0.004401858759848851,0.007252442548058949
1.5114427447882548,0.04689231770787431,0.022965994898010697,0.019784155718843215,0.008872584091472149,0.0055878462735751856
1.5115142619431814,0.047454803887083834,0.025781075359296274,0.02007376929597759,0.012624343703030913,0.0028583376499770837
