freq,gls,usurper,pdc_unbiased,shape_periodogram,shift_periodogram
1.5,0.031605246424144244,0.03198194487370911,0.022003088454338578,0.035990039152846605,-0.0034136641460669596
1.5000715171549266,0.028595336453250155,0.024804727083529206,0.01679692217781675,0.028830946122563005,-0.0034060246089977517
1.5001430343098532,0.024797888546036324,0.01880093044637243,0.011419584810450916,0.02326608975757357,-0.004475182050807285
1.5002145514647798,0.020789812632417533,0.016994863712509824,0.008796510756732951,0.0185881897301187,-0.0038396050204864292
1.5002860686197064,0.017345459787468324,0.019842261809211992,0.009479677332466734,0.016633830212948272,-0.002136010242973894
1.500357585774633,0.015271945925960987,0.024755565290180512,0.011714688134418397,0.016663538224470788,-0.00034674453454112194
1.5004291029295596,0.015165201318802408,0.030427368302621258,0.01415548030345099,0.02018161031825998,-0.0004458553395777687
1.5005006200844861,0.01716595655706576,0.03559784852290601,0.016954003693511403,0.02299297517756361,0.0001608734120136645
1.5005721372394127,0.02086274426290797,0.03952338623247732,0.019187221778694714,0.02618533862595337,8.626754592056955e-05
1.5006436543943393,0.02544081002802935,0.043009621878618697,0.02137618975240262,0.029919360143013,-0.0003430883427674845
1.500715171549266,0.03000884122307953,0.04685130479262886,0.02421994995090846,0.032759212545811774,0.0002845646658942829
1.5007866887041925,0.03391266896856934,0.05145880919769006,0.02666061786266369,0.03924132337223617,-0.0015603010131606265
1.500858205859119,0.0368882624749449,0.05656766368203956,0.029368029530911475,0.04756281542200644,-0.00427454516369477
1.5009297230140457,0.0390355018056212,0.06202342252460238,0.03287087235373193,0.05788519563162024,-0.0075269211930682825
1.5010012401689723,0.04067274274449097,0.06387084884366394,0.0349635290275476,0.06601671116296923,-0.010632329101336362
1.5010727573238989,0.04213722341942038,0.06387886015944705,0.036798409825528795,0.0715214257975221,-0.012396989874768812
1.5011442744788255,0.043587855733941964,0.06378149931650169,0.03793328428010061,0.07641658531652959,-0.014370825666441439
1.501215791633752,0.044880915226329254,0.06348625906084313,0.03824814004694497,0.08007287351664348,-0.016278889734064956
1.5012873087886787,0.045592465454410994,0.06457594047740599,0.03896037083855539,0.0835970613179295,-0.017787033215930843
1.5013588259436053,0.04519857422015515,0.06382975313287242,0.038338310339186395,0.08380909531796554,-0.018417989190228756
1.5014303430985318,0.04331902735671992,0.05989973704581662,0.03525172960142179,0.08284451802850823,-0.020353434520310208
1.5015018602534584,0.03989064242203222,0.05152081300964503,0.029380562295107576,0.07839535631011195,-0.02248294691396051
1.501573377408385,0.035207008956161204,0.04169686394589311,0.02275340008029923,0.07283213803771271,-0.02456182993880847
1.5016448945633116,0.029854908046904056,0.03274029542941429,0.01716592382272006,0.06455162506450227,-0.02418851600432494
1.5017164117182382,0.02460404968418353,0.025310815005059852,0.01272729457488559,0.05535133257296093,-0.022343279737439034
1.5017879288731648,0.020274028275387688,0.020778334404503822,0.010756457121333964,0.04707522463245636,-0.019050838853830753
1.5018594460280914,0.01756978332877583,0.018523226648322105,0.009814843547662735,0.04180152003971433,-0.016700406849200926
1.501930963183018,0.016887968997375314,0.01792116548741531,0.009773529530205848,0.036640098488630944,-0.013689454770303429
1.5020024803379446,0.018154766828972088,0.017008970533884952,0.009545857603491862,0.03216178429455687,-0.011233018502370913
1.5020739974928712,0.020807783027131654,0.017723261840614884,0.00997328939183271,0.029154869405161366,-0.0091149162782283
1.5021455146477978,0.023992628107040868,0.020633352408368062,0.01144212206274167,0.028140234224665314,-0.00732928798471848
1.5022170318027244,0.026898257150269028,0.02568951912974177,0.014028974316248104,0.0305246584106065,-0.006642849367648127
1.502288548957651,0.029041972437567,0.030891582946736548,0.016679671046279716,0.03452925375605611,-0.006859554619315798
1.5023600661125776,0.03036170293294545,0.03626020731289731,0.019990738498687276,0.039906146103621025,-0.007350996047869761
1.5024315832675041,0.031115659296329378,0.03690120866306291,0.02077896981185265,0.04380949748382259,-0.009015229089147809
1.5025031004224307,0.031680428730509906,0.03377122887620246,0.019519808615351825,0.04567428911675768,-0.011134405399867544
1.5025746175773573,0.032340192227813126,0.029710486342396026,0.018649627815208736,0.044751364524920755,-0.011294101775542817
1.502646134732284,0.033131945974426154,0.026952747066445345,0.017871043624403338,0.042226773831657266,-0.010434832160094304
1.5027176518872105,0.033797027787609374,0.02655342229067668,0.01799769758677829,0.040917751286324903,-0.009560267326785443
1.502789169042137,0.033871437590867574,0.02529778591860849,0.017486670760106647,0.038601279866661356,-0.008607613256457751
1.5028606861970637,0.03289397904446062,0.021849299799524685,0.015274482970942199,0.03567795470371451,-0.008673418215609378
1.5029322033519903,0.030638444170610023,0.01786756033733981,0.012011118949132128,0.03284968731196938,-0.00964519532003058
1.5030037205069169,0.02725242384486997,0.015691491439643625,0.009441040885373031,0.03087750343616396,-0.010560662947215737
1.5030752376618435,0.023245599290448483,0.01716971189489751,0.008606550278537486,0.02971214752977535,-0.010548385557342959
1.50314675481677,0.019358366958489085,0.02082209849037495,0.008953985446160287,0.02928843691970861,-0.010017741349399
1.5032182719716967,0.01638051368297583,0.02556087622214543,0.010426555451109277,0.029243489063883566,-0.008800676311102755
1.5032897891266233,0.01497089818834955,0.030101473958682665,0.012350463029946239,0.029639032964689664,-0.007478196135550009
1.5033613062815498,0.015499460648454992,0.03357046991356984,0.013981854206916533,0.02964777225546871,-0.0061641139335971
1.5034328234364764,0.01793079665045714,0.03390864073891317,0.01416864675154985,0.02743299343596454,-0.004707775359840411
1.503504340591403,0.021792554285279486,0.03333190474124554,0.013806564009865633,0.024852305350244155,-0.003479832057242355
1.5035758577463296,0.026283745634476982,0.036306383065835196,0.015751292513310384,0.025132114720474077,-0.0020720905458290334
1.5036473749012562,0.03053094650102892,0.042285636932125115,0.019003856556851165,0.03016679608019679,-0.0024081251361111034
1.5037188920561828,0.03389868374654469,0.05015969372485238,0.02304438568669538,0.03931012611017066,-0.004528236703715605
1.5037904092111094,0.03619247413189749,0.059493290251149175,0.02836367437687625,0.04989821196894926,-0.006465853960710561
1.503861926366036,0.03764566473947448,0.06645816033313928,0.03246316988130233,0.05994343854001257,-0.00907273479985106
1.5039334435209626,0.038716510453014726,0.06977802074272711,0.03408384953452373,0.06938375745438043,-0.013336003008596818
1.5040049606758892,0.0398171228344044,0.07136666745580947,0.03557140334761458,0.07629914679846836,-0.016218886842908044
1.5040764778308158,0.041095739566223526,0.07501696347952795,0.037525773851031737,0.08204828356336127,-0.018035170917644807
1.5041479949857424,0.04234364882306056,0.07872182389374593,0.038887791087543686,0.08729034851563099,-0.020034110907198737
1.504219512140669,0.043051695709888996,0.0804425141412558,0.03921573232033744,0.0914394575532844,-0.02222741321650655
1.5042910292955955,0.04260283060723393,0.07564790742723136,0.036347749549566495,0.09204601244063863,-0.024917813182663274
1.5043625464505221,0.04053910287302065,0.06404538167625201,0.030363706364527798,0.08765302669416565,-0.02717101528218819
1.5044340636054487,0.03679439695722014,0.04935436176435243,0.02344001313236871,0.07861566784843854,-0.027429661065009197
1.5045055807603753,0.03178229372791513,0.036487866313602894,0.01698689592080203,0.06960906704646624,-0.02732471737817461
1.504577097915302,0.026296542555493532,0.027712538648311188,0.012446934359831944,0.06091664411920423,-0.025858480833227476
1.5046486150702285,0.021278189004975218,0.024426055315003876,0.011187449324425095,0.05336751600340083,-0.022417170717340555
1.504720132225155,0.017555651134353225,0.02340010356914851,0.011283372248322305,0.047338070793819506,-0.018779826759615287
1.5047916493800817,0.01564621916050789,0.022189303852298094,0.010644076718018416,0.04270897133729722,-0.016565206346528267
1.5048631665350083,0.015656872938766518,0.019805508811713328,0.009217644422453899,0.03712758501678675,-0.014426408784427448
1.5049346836899349,0.017286051262519187,0.018134005121869905,0.008230188330603324,0.031940893706195767,-0.012166502136357936
1.5050062008448615,0.019918755698584013,0.018100683232850155,0.007905738300784866,0.02738233357984645,-0.009741703483089104
1.505077717999788,0.022804926807040774,0.02060332760543347,0.009361654152707073,0.02425669425701204,-0.006722668811764337
1.5051492351547147,0.025289013466251117,0.026063512053022486,0.011726326065843064,0.027615190494248945,-0.00679004938236196
1.5052207523096413,0.027015644551186973,0.03151506259168267,0.014241445734319206,0.032129717781178825,-0.0074171176689173555
1.5052922694645678,0.028012475009877,0.03412224408410146,0.015961322224474977,0.034725146931069616,-0.007556107395463749
1.5053637866194944,0.028596359216805502,0.030500887212416918,0.014919408532213189,0.03411308794440926,-0.008038012671342366
1.505435303774421,0.02915112616185344,0.023372667625283478,0.013309044659559194,0.030584443503163656,-0.007260289408331638
1.5055068209293476,0.029900153036102176,0.018510714859615057,0.012321918805932341,0.027262685486124143,-0.006100720937885254
1.5055783380842742,0.030782681811496897,0.01785972287654846,0.01250866989698158,0.02581097290689539,-0.005094208147243552
1.5056498552392008,0.03146961942071043,0.020484638842855174,0.013496870470295333,0.027531698729975507,-0.00530917837317036
1.5057213723941274,0.03149161794629547,0.021937046650128165,0.013134126432083434,0.030007286816544923,-0.007061549790342403
1.505792889549054,0.030427310908792447,0.021399892620337934,0.011855838401314541,0.03202071700074898,-0.009282065907595505
1.5058644067039806,0.02809465201809536,0.019026857054891804,0.009674998552531539,0.032185902233447666,-0.011142823242504334
1.5059359238589072,0.024683284499830333,0.015054064621742915,0.006168765257997816,0.03136899697395487,-0.013495831950129954
1.5060074410138338,0.020766913938386953,0.01260299345717945,0.003987129865862614,0.029787545527731867,-0.014327009264001834
1.5060789581687604,0.017165658691511196,0.013796425273294027,0.004506773893992003,0.02786320730875612,-0.012772678716935392
1.506150475323687,0.014695536880755058,0.01658640418587093,0.005603202541494299,0.02706149143649854,-0.01141389317463962
1.5062219924786135,0.013907828977730352,0.019010007859966267,0.006474304461408025,0.025778925553096896,-0.009953846839225379
1.5062935096335401,0.014929925183180436,0.01944235826557113,0.007024475314287043,0.022246349844650157,-0.007427392517623069
1.5063650267884667,0.01746107614733839,0.018399988928451603,0.006681651925523114,0.019564340548535942,-0.006124232032990738
1.5064365439433933,0.020900617081537138,0.020213501099392628,0.008103902228742074,0.01790481345589123,-0.003996871205424788
1.50650806109832,0.024545654709518663,0.024870359645032116,0.01119024144466396,0.01696090787674891,-0.0009458904026923181
1.5065795782532465,0.027795889555703463,0.03289738366266253,0.015188716512202768,0.021847302598799183,-0.0005916929980275602
1.506651095408173,0.030315638754338018,0.04327806963730827,0.02020329875354711,0.029684246042243626,-0.0011534465934931904
1.5067226125630997,0.03210575674634778,0.053525282552247776,0.02516307524326057,0.039035355777051695,-0.002651254727038079
1.5067941297180263,0.03344435853615213,0.059462821888233125,0.02809340030703321,0.04684626124523411,-0.004884376763445732
1.5068656468729529,0.03469846610783441,0.06003458479982934,0.028836225363534616,0.05106935851917129,-0.006774043720724172
1.5069371640278795,0.03608805388876267,0.05900196505380869,0.029158238083419115,0.053071022020546484,-0.007694357503439151
1.507008681182806,0.03753193323000867,0.05884759138257497,0.029645090979329304,0.05542717558179995,-0.008690546843095497
1.5070801983377327,0.038657419159163646,0.05915692575793682,0.03000532215028713,0.056985531037738624,-0.00931858869641965
1.5071517154926592,0.038950459296790155,0.057873612273445126,0.029635790998015537,0.056637138851950354,-0.009412379376198224
1.5072232326475858,0.03795818995272562,0.05181071384635597,0.026170643808596194,0.054907718878944675,-0.01119890588466799
1.5072947498025124,0.035465807062779846,0.044052172987516874,0.02167628316777021,0.05179319952144774,-0.012999897231902298
1.507366266957439,0.03160750390290827,0.03752921020574365,0.01779655130545853,0.0484686831952181,-0.01417793444486245
1.5074377841123656,0.02689036393457737,0.032027909932812494,0.014369878001425985,0.04546791291310132,-0.015179577668232731
1.5075093012672922,0.022110982309926926,0.02723506449025488,0.012274203971852665,0.04134481404451087,-0.01444210139543139
1.5075808184222188,0.018158898886019043,0.024252330530233512,0.010838451012952628,0.03906375474268064,-0.014257719759493998
1.5076523355771454,0.015750547010193554,0.022315686574477887,0.009985828883372298,0.03661508741326993,-0.013503043796785836
1.507723852732072,0.015198153002695225,0.01869086164048911,0.008495434228764531,0.03149105218281592,-0.01168686436632107
1.5077953698869986,0.01632710132796861,0.01389878134801948,0.006411917338543193,0.024844134272373482,-0.009453373176389746
1.5078668870419252,0.01858159605132472,0.010362929633758164,0.00521914285473996,0.018248337766590923,-0.0065310049407405115
1.5079384041968518,0.02125563485920751,0.008361444267761598,0.005152249488431391,0.011528126819988205,-0.002626200091575614
1.5080099213517784,0.023737553869918368,0.00834764960935813,0.0057615299185219465,0.007996171128098006,-5.3368095585616395e-05
1.508081438506705,0.025680396681245936,0.01057257150904246,0.007453924502377228,0.007026983847088616,0.0018853028889267269
1.5081529556616315,0.027059576075294776,0.01262180140122979,0.008842952470356694,0.007443638469069685,0.0027625731784969173
1.5082244728165581,0.028112039179855254,0.011858481848147829,0.008942296206187028,0.006931787784612936,0.0031443318440208356
1.5082959899714847,0.029172386947160022,0.009524961073008521,0.008780907310022895,0.006335012060722871,0.003365369358035131
1.5083675071264113,0.03045818310099522,0.009509261345585815,0.010026451111954632,0.006583386259789923,0.004225801856642039
1.508439024281338,0.03190386747651281,0.013998439342452172,0.012747040105629182,0.009010454019766832,0.004995452110349221
1.5085105414362645,0.03314377564440417,0.020653205555767367,0.01600259242207933,0.013735417063691665,0.004844574279362868
1.508582058591191,0.03366149064758627,0.026083097965199167,0.0186299276568245,0.018312961302760698,0.004272988014232206
1.5086535757461177,0.03301661123576188,0.02580536687308603,0.017302793300784304,0.020387956638649188,0.0019775443660257942
1.5087250929010443,0.031031763736761156,0.021193594081530327,0.013978643770450466,0.020169974182128066,-0.0005819815804286556
1.5087966100559709,0.02787943173947238,0.015202418685431597,0.009773118861112214,0.0180711819013887,-0.0027455553909599244
1.5088681272108975,0.024071143965329337,0.009740360968244672,0.005405399448016361,0.016452003619744252,-0.005322164109392993
1.508939644365824,0.020368522042175177,0.005491967432366673,0.002619426200917792,0.01364499803041072,-0.005920220509025089
1.5090111615207507,0.017622660517009992,0.003638683362772258,0.001280243020763253,0.012517664256669224,-0.006338425052853616
1.5090826786756772,0.016549556574789192,0.0031123581370229134,0.001094148915450876,0.012729007872046361,-0.006613316086794524
1.5091541958306038,0.01749078347259404,0.003152240444708347,0.001728275756159572,0.011603318840078496,-0.005437731232513874
1.5092257129855304,0.02026609634215111,0.0037569718809730523,0.002622344403247119,0.009122219017044669,-0.0032536970786084317
1.509297230140457,0.024225306810832306,0.0075569850158829725,0.005090188490138515,0.007730342596503816,-0.00043937717295136223
1.5093687472953836,0.028505184243561566,0.01651460434326337,0.010396256019729185,0.008648522627818471,0.003308428457191806
1.5094402644503102,0.032363241212534366,0.028954856431943784,0.017181792517199104,0.013059610321623052,0.006195981421827844
1.5095117816052368,0.035420479974014,0.042659405378715445,0.023785576506019895,0.020090035130191468,0.0073962801690276424
1.5095832987601634,0.03772295943106026,0.052831450132332036,0.028541189697550762,0.0258613203817273,0.007845379329322558
1.50965481591509,0.039632532833370364,0.05584083880616014,0.030196375009199177,0.029031775103709537,0.007317908889103436
1.5097263330700166,0.041605230836871475,0.0507056522300712,0.028415936049993602,0.028624121125274127,0.006116802076751944
1.5097978502249432,0.04392716574129624,0.04273073180271168,0.026087173799228647,0.023983622590109503,0.006965335421442324
1.5098693673798698,0.04649881119729661,0.038254614592877524,0.025125670272120693,0.019157987650696904,0.009029202158791775
1.5099408845347964,0.048782229516577,0.03859823370038711,0.025898717163670308,0.018023903521779665,0.010322340488189679
1.510012401689723,0.04998265464348263,0.04185615080151788,0.027970420605425636,0.018977733288605952,0.011436800219175973
1.5100839188446495,0.04939582665258717,0.04240937586611363,0.02744804663090382,0.019771258265116543,0.01054695034703173
1.5101554359995761,0.046726633743720845,0.039506687451528216,0.024915387052692306,0.019498588008148084,0.008658527856331524
1.5102269531545027,0.04221494386441091,0.036138084074466705,0.022036546886626967,0.018750923338379355,0.006770152045068402
1.5102984703094293,0.0365554045951188,0.034132714809267106,0.019143160662124768,0.019694664876123008,0.0038742234511788165
1.510369987464356,0.030705701566729478,0.03402634875411368,0.01712115674686206,0.021662771152668892,0.001079692888209033
1.5104415046192825,0.025671938650474672,0.0352789802076139,0.016152578444133103,0.02397594782845125,-0.0010663633619296122
1.510513021774209,0.02230380117340663,0.03699595025351525,0.01595046449902194,0.026813184334453916,-0.002901570658415722
1.5105845389291357,0.02110478427342222,0.035178889180606666,0.014310671393420193,0.0269055565400793,-0.00428210421522453
1.5106560560840623,0.022087028251984653,0.0291024398312746,0.011927341615445858,0.022084716654074,-0.003368584761638804
1.5107275732389889,0.02474352062355467,0.01964540580961746,0.008315005741078718,0.014801263869589597,-0.0019979224503418203
1.5107990903939155,0.028206425428266402,0.012404660699739792,0.006455089330600415,0.007422401413250047,0.0008451254038853564
1.510870607548842,0.03156791810921427,0.009007268355886815,0.006924877381908108,0.0020257128848684834,0.004403304513215463
1.5109421247037687,0.034217944840168574,0.00939378125673487,0.0085255112555674,0.0004171445361878052,0.006644272246422286
1.5110136418586952,0.036025983655989566,0.013096839782613095,0.01161661354179527,0.0015418611118050679,0.00848013088284838
1.5110851590136218,0.03729532439305516,0.015012956245974549,0.013294021431409462,0.0036744071484201297,0.0085800430221419
1.5111566761685484,0.03854470610167679,0.013529575084232987,0.013163190298163863,0.0058673421064964525,0.007182881440449291
1.511228193323475,0.04022460916569971,0.011900001257497836,0.013651672900344249,0.0059075376428305085,0.007554056714150194
1.5112997104784016,0.04246467581659284,0.012940740159234635,0.01442102957265151,0.006457726418189164,0.007851947195693463
1.5113712276333282,0.04493429586497486,0.018529987688683084,0.016921655013448497,0.009264367701242563,0.008220656051068618
1.5114427447882548,0.04689231770787431,0.025191184458291258,0.019784155718843215,0.012907414623774613,0.008389785711045724
1.5115142619431814,0.047454803887083834,0.028227608699440108,0.02007376929597759,0.015685715072070065,0.00698789157584697
