freq,gls,usurper,pdc_unbiased,shape_periodogram,shift_periodogram
1.5,0.031605246424144244,0.03158501472405156,0.022003088454338578,0.049845279524688174,-0.023332959963833767
1.5000715171549266,0.028595336453250155,0.024843878258129254,0.01679692217781675,0.04131587615851226,-0.020278519468948587
1.5001430343098532,0.024797888546036324,0.01910182866489692,0.011419584810450916,0.03492725850387686,-0.01895906922845545
1.5002145514647798,0.020789812632417533,0.017300870601519257,0.008796510756732951,0.030460227954591083,-0.01729320359778868
1.5002860686197064,0.017345459787468324,0.019918560940283065,0.009479677332466734,0.029174255829429598,-0.015872869399960295
1.500357585774633,0.015271945925960987,0.024487539923669796,0.011714688134418397,0.02971039164775653,-0.014816505876986156
1.5004291029295596,0.015165201318802408,0.02970677483276932,0.01415548030345099,0.03410880739217048,-0.016549281047460864
1.5005006200844861,0.01716595655706576,0.034520909610145305,0.016954003693511403,0.037476031906266104,-0.017267520236579143
1.5005721372394127,0.02086274426290797,0.03810310628008658,0.019187221778694714,0.04103987035587752,-0.018504853754009672
1.5006436543943393,0.02544081002802935,0.041276868033307317,0.02137618975240262,0.04515741244029151,-0.02019100059840774
1.500715171549266,0.03000884122307953,0.044671473502723255,0.02421994995090846,0.04844063625132237,-0.020816577690930236
1.5007866887041925,0.03391266896856934,0.04861455636755494,0.02666061786266369,0.055287231426169495,-0.024407881494530725
1.500858205859119,0.0368882624749449,0.05301973252560809,0.029368029530911475,0.06377626315152171,-0.029073301437585956
1.5009297230140457,0.0390355018056212,0.05784414815260379,0.03287087235373193,0.07409881763299354,-0.03461486658527727
1.5010012401689723,0.04067274274449097,0.0594163435465489,0.0349635290275476,0.08154969553064911,-0.03890568712459277
1.5010727573238989,0.04213722341942038,0.05956193336525973,0.036798409825528795,0.08614643110021775,-0.04119848694642633
1.5011442744788255,0.043587855733941964,0.05956293206621512,0.03793328428010061,0.09054567699566908,-0.04380217335020553
1.501215791633752,0.044880915226329254,0.059260932213477974,0.03824814004694497,0.09407514790800466,-0.046283445253011715
1.5012873087886787,0.045592465454410994,0.06027348108077067,0.03896037083855539,0.09861055057612808,-0.04927202493430131
1.5013588259436053,0.04519857422015515,0.05951002402333181,0.038338310339186395,0.09946942815052791,-0.050335036043036845
1.5014303430985318,0.04331902735671992,0.055771940236459115,0.03525172960142179,0.09753051897547431,-0.05088211566572258
1.5015018602534584,0.03989064242203222,0.04792727763189961,0.029380562295107576,0.09154108170443832,-0.050168336227443405
1.501573377408385,0.035207008956161204,0.038801832802165905,0.02275340008029923,0.0838742945909911,-0.04867415095101936
1.5016448945633116,0.029854908046904056,0.030518503717212014,0.01716592382272006,0.0746419909387065,-0.04531317060398852
1.5017164117182382,0.02460404968418353,0.02369581432226006,0.01272729457488559,0.06497786925325526,-0.04087923940206111
1.5017879288731648,0.020274028275387688,0.019718921120636647,0.010756457121333964,0.05648755446009764,-0.035728107523503236
1.5018594460280914,0.01756978332877583,0.01787489019588685,0.009814843547662735,0.05094752969711274,-0.03214425201799739
1.501930963183018,0.016887968997375314,0.017611863392187833,0.009773529530205848,0.045427668946467104,-0.02798860725315794
1.5020024803379446,0.018154766828972088,0.01698840892715965,0.009545857603491862,0.04081044232238177,-0.024639983511782097
1.5020739974928712,0.020807783027131654,0.01776052766330058,0.00997328939183271,0.03782300548989056,-0.02209791995201263
1.5021455146477978,0.023992628107040868,0.02046586183450846,0.01144212206274167,0.037710295510634484,-0.02105168397007556
1.5022170318027244,0.026898257150269028,0.025076909616354476,0.014028974316248104,0.04142107446515116,-0.022169578765782
1.502288548957651,0.029041972437567,0.029784960968350625,0.016679671046279716,0.0469410492560784,-0.024616898419626127
1.5023600661125776,0.03036170293294545,0.03467925592972248,0.019990738498687276,0.05334595257570183,-0.027304139911961133
1.5024315832675041,0.031115659296329378,0.03514063661104547,0.02077896981185265,0.05759405302956348,-0.030009318416471215
1.5025031004224307,0.031680428730509906,0.0322715033903831,0.019519808615351825,0.05879781654107178,-0.03174659385288403
1.5025746175773573,0.032340192227813126,0.028742818157551617,0.018649627815208736,0.05740245237010572,-0.03125788347004784
1.502646134732284,0.033131945974426154,0.026280119398488202,0.017871043624403338,0.05473499627008183,-0.02974475838363643
1.5027176518872105,0.033797027787609374,0.025933351314732487,0.01799769758677829,0.05401565592664827,-0.02911647223378848
1.502789169042137,0.033871437590867574,0.02473224752909507,0.017486670760106647,0.05215834638110428,-0.028042900738030056
1.5028606861970637,0.03289397904446062,0.021503742214944107,0.015274482970942199,0.048560774627503266,-0.026763871037377523
1.5029322033519903,0.030638444170610023,0.017771905452459123,0.012011118949132128,0.04501061647966219,-0.026208981307768716
1.5030037205069169,0.02725242384486997,0.015728371848841016,0.009441040885373031,0.042723697611856,-0.026157706089637748
1.5030752376618435,0.023245599290448483,0.017054176656214007,0.008606550278537486,0.04254027681833744,-0.026564571372831906
1.50314675481677,0.019358366958489085,0.0203650166134445,0.008953985446160287,0.0430224195259305,-0.026702544905066086
1.5032182719716967,0.01638051368297583,0.024649723184397333,0.010426555451109277,0.04355401007444171,-0.026142048844040602
1.5032897891266233,0.01497089818834955,0.028782183003671698,0.012350463029946239,0.043514383719825474,-0.024853469277758295
1.5033613062815498,0.015499460648454992,0.03195598261014133,0.013981854206916533,0.0430283577571376,-0.023417915117101465
1.5034328234364764,0.01793079665045714,0.03219998366414152,0.01416864675154985,0.04016794856985731,-0.021129036216990537
1.503504340591403,0.021792554285279486,0.03153733968529265,0.013806564009865633,0.03696867413723236,-0.018943073859134286
1.5035758577463296,0.026283745634476982,0.03420031649388786,0.015751292513310384,0.036600800988448215,-0.01739188544281086
1.5036473749012562,0.03053094650102892,0.0395150673824025,0.019003856556851165,0.041348974811815424,-0.01885902450436353
1.5037188920561828,0.03389868374654469,0.046580124434918255,0.02304438568669538,0.051048581666593665,-0.02356312942885138
1.5037904092111094,0.03619247413189749,0.05504243425529332,0.02836367437687625,0.06274922855505395,-0.028952158771182037
1.503861926366036,0.03764566473947448,0.061260880606766176,0.03246316988130233,0.07381287578569418,-0.03466496911447065
1.5039334435209626,0.038716510453014726,0.06413762750415018,0.03408384953452373,0.08288400832483206,-0.04049741611503892
1.5040049606758892,0.0398171228344044,0.06559983559932206,0.03557140334761458,0.0898080989026404,-0.04479034563814266
1.5040764778308158,0.041095739566223526,0.06893264563197889,0.037525773851031737,0.09579364772085437,-0.04806673354871427
1.5041479949857424,0.04234364882306056,0.07227765124258752,0.038887791087543686,0.10133097628527286,-0.05139380885879133
1.504219512140669,0.043051695709888996,0.07378184176554185,0.03921573232033744,0.10513668822410643,-0.05408165949203024
1.5042910292955955,0.04260283060723393,0.06918720202394674,0.036347749549566495,0.1037353532606424,-0.05489428769175265
1.5043625464505221,0.04053910287302065,0.058445768390256767,0.030363706364527798,0.09636912057859759,-0.05320143960211114
1.5044340636054487,0.03679439695722014,0.04500084634172232,0.02344001313236871,0.08482468433201924,-0.04894755073950083
1.5045055807603753,0.03178229372791513,0.033252894064249305,0.01698689592080203,0.07456288141933473,-0.0453701893724416
1.504577097915302,0.026296542555493532,0.025304679532634836,0.012446934359831944,0.06539508970790793,-0.041379175496517664
1.5046486150702285,0.021278189004975218,0.022499826808109687,0.011187449324425095,0.05818110598917474,-0.03673043892567165
1.504720132225155,0.017555651134353225,0.021817854606184968,0.011283372248322305,0.05235677919784571,-0.03225192764527621
1.5047916493800817,0.01564621916050789,0.020887123993837003,0.010644076718018416,0.047754425488906314,-0.029182124765430934
1.5048631665350083,0.015656872938766518,0.0188573577693681,0.009217644422453899,0.04206050331839973,-0.025801480103121745
1.5049346836899349,0.017286051262519187,0.01743681251897797,0.008230188330603324,0.037215147310249254,-0.022777796890275332
1.5050062008448615,0.019918755698584013,0.017434379263354692,0.007905738300784866,0.0333824975522808,-0.02008811828655847
1.505077717999788,0.022804926807040774,0.01976261701068472,0.009361654152707073,0.030934973404682865,-0.01728289022969808
1.5051492351547147,0.025289013466251117,0.024673613200384817,0.011726326065843064,0.03488521733545714,-0.01872655456485283
1.5052207523096413,0.027015644551186973,0.029511282707325965,0.014241445734319206,0.04036222316331003,-0.021228544212244647
1.5052922694645678,0.028012475009877,0.03179327212401862,0.015961322224474977,0.043739624710086196,-0.022661423840805505
1.5053637866194944,0.028596359216805502,0.02833143581316659,0.014919408532213189,0.04300733511164799,-0.022788504416395263
1.505435303774421,0.02915112616185344,0.02184455151137187,0.013309044659559194,0.03933825824836555,-0.021063108297969483
1.5055068209293476,0.029900153036102176,0.017450478675713067,0.012321918805932341,0.036210209738633176,-0.01934015002906894
1.5055783380842742,0.030782681811496897,0.016899389114749076,0.01250866989698158,0.0353950717669876,-0.01860074089074141
1.5056498552392008,0.03146961942071043,0.01931180036840392,0.013496870470295333,0.03834605347427285,-0.02018878180446508
1.5057213723941274,0.03149161794629547,0.020508452142307183,0.013134126432083434,0.041580976629895156,-0.02287620228371356
1.505792889549054,0.030427310908792447,0.019972697115856003,0.011855838401314541,0.042825968094889304,-0.024655567877747885
1.5058644067039806,0.02809465201809536,0.017730423901226477,0.009674998552531539,0.04183850041772583,-0.025334179121101343
1.5059359238589072,0.024683284499830333,0.013905200817996476,0.006168765257997816,0.040121369552884936,-0.02632679294581373
1.5060074410138338,0.020766913938386953,0.011555368687432467,0.003987129865862614,0.03824779591377404,-0.026334579241680624
1.5060789581687604,0.017165658691511196,0.01268526803847051,0.004506773893992003,0.036296026061840736,-0.024516937283622718
1.506150475323687,0.014695536880755058,0.01526345961400238,0.005603202541494299,0.0349872398671828,-0.022809002688631643
1.5062219924786135,0.013907828977730352,0.017498053606330215,0.006474304461408025,0.033191015694746154,-0.02087939872424994
1.5062935096335401,0.014929925183180436,0.01797250265995255,0.007024475314287043,0.028946080655964268,-0.017306184660231913
1.5063650267884667,0.01746107614733839,0.017017535681821613,0.006681651925523114,0.024857266807307057,-0.014435768405616578
1.5064365439433933,0.020900617081537138,0.018710340629817378,0.008103902228742074,0.022567613563891344,-0.01177268918159675
1.50650806109832,0.024545654709518663,0.022922193671323005,0.01119024144466396,0.02206752999452797,-0.009375159118822994
1.5065795782532465,0.027795889555703463,0.030065697154086583,0.015188716512202768,0.028265590187493105,-0.011449663719187833
1.506651095408173,0.030315638754338018,0.03938665169102547,0.02020329875354711,0.03771612503694193,-0.015322348368906641
1.5067226125630997,0.03210575674634778,0.04856094923807902,0.02516307524326057,0.04825628121454528,-0.02005910497686338
1.5067941297180263,0.03344435853615213,0.05379481413708001,0.02809340030703321,0.05571728940452689,-0.02379518141461643
1.5068656468729529,0.03469846610783441,0.05428063650494279,0.028836225363534616,0.05891866946114128,-0.025736362197932267
1.5069371640278795,0.03608805388876267,0.05341540401515592,0.029158238083419115,0.05990721502081575,-0.02627519562339615
1.507008681182806,0.03753193323000867,0.05334934462051295,0.029645090979329304,0.061629950691474124,-0.027263076702499077
1.5070801983377327,0.038657419159163646,0.0537125644334524,0.03000532215028713,0.06269528851607531,-0.02783530133821617
1.5071517154926592,0.038950459296790155,0.05260717059558882,0.029635790998015537,0.06193924626610725,-0.02750384589447108
1.5072232326475858,0.03795818995272562,0.04698541775011419,0.026170643808596194,0.05842649240990422,-0.027109652864373255
1.5072947498025124,0.035465807062779846,0.039867667873051356,0.02167628316777021,0.052888676048519136,-0.025853913409144585
1.507366266957439,0.03160750390290827,0.03395941279841616,0.01779655130545853,0.04815798457100496,-0.024808081952409477
1.5074377841123656,0.02689036393457737,0.02896648639436539,0.014369878001425985,0.04493017806673097,-0.02460480011973542
1.5075093012672922,0.022110982309926926,0.02471036241646651,0.012274203971852665,0.04080067443899932,-0.02284778733638458
1.5075808184222188,0.018158898886019043,0.022105868075619813,0.010838451012952628,0.038533524733496284,-0.022070027848007025
1.5076523355771454,0.015750547010193554,0.02050164422328135,0.009985828883372298,0.03603718371701935,-0.020737438564717416
1.507723852732072,0.015198153002695225,0.017358940705282554,0.008495434228764531,0.030793624699900653,-0.01774252626754473
1.5077953698869986,0.01632710132796861,0.013096411941347275,0.006411917338543193,0.02408990331877377,-0.014031469748946703
1.5078668870419252,0.01858159605132472,0.009961188750326356,0.00521914285473996,0.017875300062417464,-0.01010906912986352
1.5079384041968518,0.02125563485920751,0.008176659138251883,0.005152249488431391,0.011939182995489678,-0.005661702565433346
1.5080099213517784,0.023737553869918368,0.008112671990507468,0.0057615299185219465,0.009276935204853927,-0.0032491500253139525
1.508081438506705,0.025680396681245936,0.010064672363516365,0.007453924502377228,0.009925453157737496,-0.002632715138320025
1.5081529556616315,0.027059576075294776,0.011780210775763428,0.008842952470356694,0.01198107926581571,-0.0032791787729903998
1.5082244728165581,0.028112039179855254,0.010925761645273917,0.008942296206187028,0.01200073894577033,-0.003229063736874482
1.5082959899714847,0.029172386947160022,0.008767656795427561,0.008780907310022895,0.011261115632174856,-0.002775100763016683
1.5083675071264113,0.03045818310099522,0.008852806575328661,0.010026451111954632,0.011792692866370295,-0.002362433066259369
1.508439024281338,0.03190386747651281,0.013094217642114967,0.012747040105629182,0.015680001651117166,-0.003523439582689683
1.5085105414362645,0.03314377564440417,0.019313346723837756,0.01600259242207933,0.022010688046498368,-0.006183224007356585
1.508582058591191,0.03366149064758627,0.024349211947592292,0.0186299276568245,0.02809250483487026,-0.009066389848497614
1.5086535757461177,0.03301661123576188,0.023887013583727145,0.017302793300784304,0.03020739795603064,-0.011535922959443064
1.5087250929010443,0.031031763736761156,0.019496730870817804,0.013978643770450466,0.02830010258666546,-0.012267648929516662
1.5087966100559709,0.02787943173947238,0.01386951858422292,0.009773118861112214,0.024190969062108696,-0.011909225141611834
1.5088681272108975,0.024071143965329337,0.008710101321139078,0.005405399448016361,0.02120495999899864,-0.012506674711840192
1.508939644365824,0.020368522042175177,0.004758070626352841,0.002619426200917792,0.017727266766400213,-0.011697439643199987
1.5090111615207507,0.017622660517009992,0.002999692603687331,0.001280243020763253,0.016284106129990737,-0.011481409218893736
1.5090826786756772,0.016549556574789192,0.0025402306544821856,0.001094148915450876,0.015579832039178839,-0.011070282505739751
1.5091541958306038,0.01749078347259404,0.0027041729365812617,0.001728275756159572,0.013771027303199115,-0.009287081558022721
1.5092257129855304,0.02026609634215111,0.0033706825982113705,0.002622344403247119,0.011308051454947154,-0.0068389993785926235
1.509297230140457,0.024225306810832306,0.006978617056863564,0.005090188490138515,0.010859981519883818,-0.004885858275023507
1.5093687472953836,0.028505184243561566,0.015339495227251719,0.010396256019729185,0.013555171763645719,-0.003453874814006244
1.5094402644503102,0.032363241212534366,0.026802483092114186,0.017181792517199104,0.019927080782692,-0.0038348613837529853
1.5095117816052368,0.035420479974014,0.039262896589488186,0.023785576506019895,0.028805538711527624,-0.006230629472538577
1.5095832987601634,0.03772295943106026,0.04843915776812859,0.028541189697550762,0.035472279545193525,-0.008162380542694051
1.50965481591509,0.039632532833370364,0.05103432078541647,0.030196375009199177,0.037750269484697896,-0.008802626516901621
1.5097263330700166,0.041605230836871475,0.04618267305653492,0.028415936049993602,0.035619259639721686,-0.008355731317965331
1.5097978502249432,0.04392716574129624,0.03890468855647872,0.026087173799228647,0.02916845873493236,-0.004997969542406431
1.5098693673798698,0.04649881119729661,0.034899638869547465,0.025125670272120693,0.023303743023011463,-0.001189403547456423
1.5099408845347964,0.048782229516577,0.03542489065041855,0.025898717163670308,0.02175371561286235,0.0004896547033230994
1.510012401689723,0.04998265464348263,0.03868849482070925,0.027970420605425636,0.022828741251440493,0.0010331058533306972
1.5100839188446495,0.04939582665258717,0.03929301259641662,0.02744804663090382,0.023086116461205668,0.0004962221028790119
1.5101554359995761,0.046726633743720845,0.03668203190792835,0.024915387052692306,0.021565302202375833,-1.1719577646756717e-05
1.5102269531545027,0.04221494386441091,0.03364741944993726,0.022036546886626967,0.019433302539689393,-0.00028352644773955125
1.5102984703094293,0.0365554045951188,0.031821646174189755,0.019143160662124768,0.02026716367426168,-0.002808460070580159
1.510369987464356,0.030705701566729478,0.03173522131826165,0.01712115674686206,0.022657646638005947,-0.005940742953016585
1.5104415046192825,0.025671938650474672,0.0328430790334806,0.016152578444133103,0.025724229214857914,-0.008895380734182225
1.510513021774209,0.02230380117340663,0.03443175534737439,0.01595046449902194,0.028888917939385566,-0.011422964041937173
1.5105845389291357,0.02110478427342222,0.0327050055468295,0.014310671393420193,0.028908983221178772,-0.012511260953814236
1.5106560560840623,0.022087028251984653,0.02716722644717481,0.011927341615445858,0.023520819106010737,-0.009992680173363432
1.5107275732389889,0.02474352062355467,0.01854782716913227,0.008315005741078718,0.015523141639731359,-0.00630431068128504
1.5107990903939155,0.028206425428266402,0.012008964295366034,0.006455089330600415,0.008227263527183646,-0.002001419651768107
1.510870607548842,0.03156791810921427,0.009000187717831815,0.006924877381908108,0.003798857520223944,0.0016557808253780035
1.5109421247037687,0.034217944840168574,0.009325554741134813,0.0085255112555674,0.004258103358306862,0.0023553965259818315
1.5110136418586952,0.036025983655989566,0.01270913526916334,0.01161661354179527,0.007847012138965168,0.0016627003331955708
1.5110851590136218,0.03729532439305516,0.01434746813497574,0.013294021431409462,0.011441470465956184,4.103134725194544e-05
1.5111566761685484,0.03854470610167679,0.012813297029797905,0.013163190298163863,0.014228631068660324,-0.0021531064802604873
1.511228193323475,0.04022460916569971,0.011308824928730683,0.013651672900344249,0.01490333155465458,-0.002343937024790098
1.5112997104784016,0.04246467581659284,0.012194257645344281,0.01442102957265151,0.016350251759656095,-0.002935221794406083
1.5113712276333282,0.04493429586497486,0.017346243405264663,0.016921655013448497,0.02075363220544371,-0.00463053455440857
1.5114427447882548,0.04689231770787431,0.023487790740088145,0.019784155718843215,0.025689073697636542,-0.006491778966873766
1.5115142619431814,0.047454803887083834,0.02622042364678964,0.02007376929597759,0.027792750464064337,-0.00789435124293125
