freq,gls,usurper,pdc_unbiased,shape_periodogram,shift_periodogram
1.5,0.031605246424144244,0.030146282992821134,0.022003088454338578,0.03411108739824852,-0.0012701838326103169
1.5000715171549266,0.028595336453250155,0.02362090225386628,0.01679692217781675,0.027152324514961187,-0.0016030235677988946
1.5001430343098532,0.024797888546036324,0.018022133017850165,0.011419584810450916,0.02131375514062852,-0.0027122421253152874
1.5002145514647798,0.020789812632417533,0.016326549992899852,0.008796510756732951,0.016089810606601914,-0.0019027482569762078
1.5002860686197064,0.017345459787468324,0.018972029468531555,0.009479677332466734,0.013459469403415253,0.00015422449045382597
1.500357585774633,0.015271945925960987,0.023531349242414557,0.011714688134418397,0.012976163992997709,0.0022685320400286017
1.5004291029295596,0.015165201318802408,0.028762832907852656,0.01415548030345099,0.015982371322582564,0.0025697362296402257
1.5005006200844861,0.01716595655706576,0.03369231757818252,0.016954003693511403,0.018556154885037656,0.0034114556894726143
1.5005721372394127,0.02086274426290797,0.0374520325889229,0.019187221778694714,0.021649534553622486,0.003492806792112967
1.5006436543943393,0.02544081002802935,0.04066276327955467,0.02137618975240262,0.02484830690457353,0.003478100932502246
1.500715171549266,0.03000884122307953,0.044073992910386973,0.02421994995090846,0.02738201782563501,0.004381103985397574
1.5007866887041925,0.03391266896856934,0.04794897254113479,0.02666061786266369,0.03409215071361612,0.0025789850155251517
1.500858205859119,0.0368882624749449,0.0522601778542082,0.029368029530911475,0.042579637515884665,-1.416656029499895e-05
1.5009297230140457,0.0390355018056212,0.056916462660035805,0.03287087235373193,0.05316886786302364,-0.003148222612094566
1.5010012401689723,0.04067274274449097,0.058353560562124936,0.0349635290275476,0.06179609773232896,-0.006332348925470732
1.5010727573238989,0.04213722341942038,0.05828569622254956,0.036798409825528795,0.0677038595380078,-0.00818255325467901
1.5011442744788255,0.043587855733941964,0.0580417683844918,0.03793328428010061,0.07257638444648029,-0.010022487274943804
1.501215791633752,0.044880915226329254,0.057517612925977825,0.03824814004694497,0.07595825033778827,-0.011691314630915856
1.5012873087886787,0.045592465454410994,0.05830625393909797,0.03896037083855539,0.07929911482508585,-0.013008931047129978
1.5013588259436053,0.04519857422015515,0.057482733939540405,0.038338310339186395,0.07930610384371956,-0.013527459719170336
1.5014303430985318,0.04331902735671992,0.053834477143691745,0.03525172960142179,0.07825109248757213,-0.015477453760459567
1.5015018602534584,0.03989064242203222,0.046110783332732004,0.029380562295107576,0.07400977500901866,-0.01790743008445282
1.501573377408385,0.035207008956161204,0.03715845828060375,0.02275340008029923,0.06864258231753735,-0.020314693940278915
1.5016448945633116,0.029854908046904056,0.029059096970345626,0.01716592382272006,0.06052383022748456,-0.02029203878739002
1.5017164117182382,0.02460404968418353,0.022316071357088716,0.01272729457488559,0.051425633203963,-0.01876516550327916
1.5017879288731648,0.020274028275387688,0.01843393107441947,0.010756457121333964,0.04350807620470839,-0.015880405092517903
1.5018594460280914,0.01756978332877583,0.016651494589610533,0.009814843547662735,0.03840755124298271,-0.013753294177158409
1.501930963183018,0.016887968997375314,0.01652803364222964,0.009773529530205848,0.033314461741323395,-0.010890157507253164
1.5020024803379446,0.018154766828972088,0.016015568297086582,0.009545857603491862,0.028520952033738518,-0.008351764030915075
1.5020739974928712,0.020807783027131654,0.01678179199305262,0.00997328939183271,0.024967247091882683,-0.005979549191956929
1.5021455146477978,0.023992628107040868,0.01934012169381809,0.01144212206274167,0.02341738621314029,-0.0038893228346953434
1.5022170318027244,0.026898257150269028,0.02376078426765402,0.014028974316248104,0.02563437357974609,-0.0030195815970691943
1.502288548957651,0.029041972437567,0.02831999358998015,0.016679671046279716,0.029781678806277644,-0.003194258546202389
1.5023600661125776,0.03036170293294545,0.03317324880573615,0.019990738498687276,0.035481039644821376,-0.0037072023013474285
1.5024315832675041,0.031115659296329378,0.033709220498639635,0.02077896981185265,0.040188496464722785,-0.005734968325228927
1.5025031004224307,0.031680428730509906,0.030846267378045078,0.019519808615351825,0.04274514047770676,-0.008227072144268007
1.5025746175773573,0.032340192227813126,0.027242456132747245,0.018649627815208736,0.042175817952650164,-0.008620193433770098
1.502646134732284,0.033131945974426154,0.024763237986378105,0.017871043624403338,0.039830481957224266,-0.007927389793616183
1.5027176518872105,0.033797027787609374,0.024428878460246124,0.01799769758677829,0.03883205396847409,-0.00725508600158637
1.502789169042137,0.033871437590867574,0.023238716736158353,0.017486670760106647,0.03662544923773717,-0.006421007047933658
1.5028606861970637,0.03289397904446062,0.0201093197682606,0.015274482970942199,0.0339082447198149,-0.006697907971638807
1.5029322033519903,0.030638444170610023,0.01652022078237942,0.012011118949132128,0.03137398378756085,-0.007944234479906552
1.5030037205069169,0.02725242384486997,0.014590071740572079,0.009441040885373031,0.029157809748065224,-0.00880016316769884
1.5030752376618435,0.023245599290448483,0.01597580583810281,0.008606550278537486,0.02750898017369617,-0.0085496870440802
1.50314675481677,0.019358366958489085,0.019244017040571222,0.008953985446160287,0.02625960457497824,-0.007553363858439779
1.5032182719716967,0.01638051368297583,0.02342342664961291,0.010426555451109277,0.02534823515190909,-0.005822967699051144
1.5032897891266233,0.01497089818834955,0.027502246822905193,0.012350463029946239,0.02509612822769999,-0.004095687063180472
1.5033613062815498,0.015499460648454992,0.030820793266610157,0.013981854206916533,0.02485412251748244,-0.00261488162465841
1.5034328234364764,0.01793079665045714,0.03131866300770794,0.01416864675154985,0.022526528540446185,-0.0011381637567199376
1.503504340591403,0.021792554285279486,0.03083694347220241,0.013806564009865633,0.020001393037955582,-1.2460236628592468e-06
1.5035758577463296,0.026283745634476982,0.03344594378204013,0.015751292513310384,0.02003062193316178,0.0015833403285828852
1.5036473749012562,0.03053094650102892,0.038544010346349376,0.019003856556851165,0.02498272807611375,0.0014476944562921857
1.5037188920561828,0.03389868374654469,0.04528975421045622,0.02304438568669538,0.034348765137264134,-0.0005472528269084777
1.5037904092111094,0.03619247413189749,0.053500706426669244,0.02836367437687625,0.044528251359125526,-0.0019507459532551528
1.503861926366036,0.03764566473947448,0.05954941075669585,0.03246316988130233,0.05425822999677667,-0.004104772949374108
1.5039334435209626,0.038716510453014726,0.062217430021587854,0.03408384953452373,0.0635529580097239,-0.008059783560400125
1.5040049606758892,0.0398171228344044,0.06336487129392976,0.03557140334761458,0.07026150320094397,-0.010654643630080975
1.5040764778308158,0.041095739566223526,0.06646906435817428,0.037525773851031737,0.07569492005466293,-0.012138384697913686
1.5041479949857424,0.04234364882306056,0.06966971792606404,0.038887791087543686,0.08072028458227874,-0.013880338497264442
1.504219512140669,0.043051695709888996,0.07105138455494846,0.03921573232033744,0.08498487087371685,-0.01604484661436235
1.5042910292955955,0.04260283060723393,0.06664479657785452,0.036347749549566495,0.08658534871360431,-0.01933236955923277
1.5043625464505221,0.04053910287302065,0.05627523957216679,0.030363706364527798,0.0835801589742625,-0.022561782387772632
1.5044340636054487,0.03679439695722014,0.04316950001065344,0.02344001313236871,0.07560902673735571,-0.02372479035161454
1.5045055807603753,0.03178229372791513,0.031763557856258215,0.01698689592080203,0.06724591480449525,-0.02427342786536003
1.504577097915302,0.026296542555493532,0.024008415347896404,0.012446934359831944,0.05865004634878394,-0.02311265021552433
1.5046486150702285,0.021278189004975218,0.021210905917103715,0.011187449324425095,0.05098291727255364,-0.019781399973465633
1.504720132225155,0.017555651134353225,0.020492950125358785,0.011283372248322305,0.0446645627995108,-0.01610473638598329
1.5047916493800817,0.01564621916050789,0.019571072822877338,0.010644076718018416,0.03980931764860361,-0.013868036961391356
1.5048631665350083,0.015656872938766518,0.017551346494541098,0.009217644422453899,0.03370640501379144,-0.011570754923017932
1.5049346836899349,0.017286051262519187,0.016217707328277146,0.008230188330603324,0.028056496097063708,-0.009170813244394022
1.5050062008448615,0.019918755698584013,0.016271450883801535,0.007905738300784866,0.023247891519243728,-0.00670421347206442
1.505077717999788,0.022804926807040774,0.01857935043257229,0.009361654152707073,0.020105240864275262,-0.0037195154156344926
1.5051492351547147,0.025289013466251117,0.023461138939435466,0.011726326065843064,0.023573340418996048,-0.0037439832161179974
1.5052207523096413,0.027015644551186973,0.02831551978566278,0.014241445734319206,0.02799196263947921,-0.004184795830954521
1.5052922694645678,0.028012475009877,0.030764680600591694,0.015961322224474977,0.031010923547805425,-0.004484756300570449
1.5053637866194944,0.028596359216805502,0.027528333325426747,0.014919408532213189,0.03129537504401738,-0.00550458761941244
1.505435303774421,0.02915112616185344,0.02108978909945489,0.013309044659559194,0.028253212171772055,-0.005101102347984762
1.5055068209293476,0.029900153036102176,0.016679901307151856,0.012321918805932341,0.025007027828975608,-0.004068541714098128
1.5055783380842742,0.030782681811496897,0.016082019827088963,0.01250866989698158,0.023340045063180218,-0.0029672685297631833
1.5056498552392008,0.03146961942071043,0.01838775554160807,0.013496870470295333,0.0251041821567345,-0.003156350636203975
1.5057213723941274,0.03149161794629547,0.019515619533005707,0.013134126432083434,0.02781296404972914,-0.004994851911422448
1.505792889549054,0.030427310908792447,0.01916105792287917,0.011855838401314541,0.03030504076721131,-0.007464274197645036
1.5058644067039806,0.02809465201809536,0.017151173741016223,0.009674998552531539,0.030868811339864695,-0.00958045711553009
1.5059359238589072,0.024683284499830333,0.013546664510464207,0.006168765257997816,0.029774851558010337,-0.011844825679775314
1.5060074410138338,0.020766913938386953,0.011250922824298694,0.003987129865862614,0.02741504950839633,-0.01229872890411048
1.5060789581687604,0.017165658691511196,0.012341986829781966,0.004506773893992003,0.024630486517541596,-0.010287898849997775
1.506150475323687,0.014695536880755058,0.01486467123424298,0.005603202541494299,0.023172612416345276,-0.008556694863328225
1.5062219924786135,0.013907828977730352,0.017113256418642833,0.006474304461408025,0.02183427859698661,-0.0070789478630614265
1.5062935096335401,0.014929925183180436,0.01762219612180392,0.007024475314287043,0.01830519393797543,-0.004620300241314837
1.5063650267884667,0.01746107614733839,0.016680629798811505,0.006681651925523114,0.015358899606346963,-0.0032281072599271697
1.5064365439433933,0.020900617081537138,0.018275611365099212,0.008103902228742074,0.013378396761420408,-0.0009320917403528907
1.50650806109832,0.024545654709518663,0.02236065074750678,0.01119024144466396,0.01193262047264436,0.0024297511926955812
1.5065795782532465,0.027795889555703463,0.029311079513956926,0.015188716512202768,0.016457622140519986,0.00315035219844873
1.506651095408173,0.030315638754338018,0.038343754246855696,0.02020329875354711,0.023456884292344746,0.0033026705984791965
1.5067226125630997,0.03210575674634778,0.04737160631158249,0.02516307524326057,0.03233093756655853,0.0023457685053941677
1.5067941297180263,0.03344435853615213,0.052487984169684435,0.02809340030703321,0.04038550425866934,0.0001823989949366873
1.5068656468729529,0.03469846610783441,0.052823664729658076,0.028836225363534616,0.04479972325061594,-0.00171542581913167
1.5069371640278795,0.03608805388876267,0.05179395041619138,0.029158238083419115,0.04689914046314918,-0.002644087183206098
1.507008681182806,0.03753193323000867,0.05161609924309476,0.029645090979329304,0.04938067468888979,-0.003654369981966328
1.5070801983377327,0.038657419159163646,0.05197563954218458,0.03000532215028713,0.051700206995427544,-0.00467716955899838
1.5071517154926592,0.038950459296790155,0.05091879229146359,0.029635790998015537,0.052370958446733167,-0.0053638436183833385
1.5072232326475858,0.03795818995272562,0.0456427770149651,0.026170643808596194,0.05203676079570567,-0.00803217496273004
1.5072947498025124,0.035465807062779846,0.03886918177518988,0.02167628316777021,0.050427247320936446,-0.010821901816721647
1.507366266957439,0.03160750390290827,0.03324288882641551,0.01779655130545853,0.0479604116950711,-0.012615295992270043
1.5074377841123656,0.02689036393457737,0.02841484224798377,0.014369878001425985,0.04515391512389159,-0.013841003692909285
1.5075093012672922,0.022110982309926926,0.02413042369504083,0.012274203971852665,0.040665632172792884,-0.013012837795674878
1.5075808184222188,0.018158898886019043,0.021345039649546496,0.010838451012952628,0.03770270951542718,-0.012509419520880725
1.5076523355771454,0.015750547010193554,0.01969765398329631,0.009985828883372298,0.03460398898691548,-0.01144879242165152
1.507723852732072,0.015198153002695225,0.01669527725872691,0.008495434228764531,0.029458744581302425,-0.009749760194903787
1.5077953698869986,0.01632710132796861,0.012704778479060515,0.006411917338543193,0.023036119274118912,-0.007813453415612001
1.5078668870419252,0.01858159605132472,0.009899078678039745,0.00521914285473996,0.016540006423043044,-0.005103022084933598
1.5079384041968518,0.02125563485920751,0.008319291016441925,0.005152249488431391,0.009885267777229697,-0.001376548061340322
1.5080099213517784,0.023737553869918368,0.008348228855788708,0.0057615299185219465,0.006642705154864297,0.0009672443296253998
1.508081438506705,0.025680396681245936,0.010396648079077158,0.007453924502377228,0.005717640058092705,0.0028856373748988922
1.5081529556616315,0.027059576075294776,0.01223609690930692,0.008842952470356694,0.006074378928195095,0.003826130048985272
1.5082244728165581,0.028112039179855254,0.011466533546570852,0.008942296206187028,0.005836982863924145,0.004042763754485198
1.5082959899714847,0.029172386947160022,0.009187584787563877,0.008780907310022895,0.005221770549947268,0.004259461109703843
1.5083675071264113,0.03045818310099522,0.009076664930224677,0.010026451111954632,0.005383739335587577,0.0051925391566289645
1.508439024281338,0.03190386747651281,0.013154688969868546,0.012747040105629182,0.007696328613261435,0.0061179381373566806
1.5085105414362645,0.03314377564440417,0.019247907193178995,0.01600259242207933,0.012457155343148929,0.006093204802014287
1.508582058591191,0.03366149064758627,0.024196467001444254,0.0186299276568245,0.017228950954417645,0.0055454940305523235
1.5086535757461177,0.03301661123576188,0.02394801173973938,0.017302793300784304,0.01961220562904729,0.003098614725627826
1.5087250929010443,0.031031763736761156,0.019823996909529077,0.013978643770450466,0.019884310217817468,0.00020696547333306812
1.5087966100559709,0.02787943173947238,0.014458547327072708,0.009773118861112214,0.018211968773251368,-0.0023048352321408047
1.5088681272108975,0.024071143965329337,0.009486453135841243,0.005405399448016361,0.01661328694977223,-0.004991371854187767
1.508939644365824,0.020368522042175177,0.005480831484781595,0.002619426200917792,0.013484224033738078,-0.005506037815037834
1.5090111615207507,0.017622660517009992,0.003519712814406504,0.001280243020763253,0.012187490285139846,-0.005871247257264548
1.5090826786756772,0.016549556574789192,0.0028582897934801266,0.001094148915450876,0.012017067390863825,-0.005927549245007251
1.5091541958306038,0.01749078347259404,0.0029613198990557214,0.001728275756159572,0.010612493177364011,-0.004607576703436649
1.5092257129855304,0.02026609634215111,0.0035938585478512736,0.002622344403247119,0.007559598803499589,-0.0021371385478148124
1.509297230140457,0.024225306810832306,0.0071467725482304645,0.005090188490138515,0.005374477256798194,0.0011353125438163959
1.5093687472953836,0.028505184243561566,0.015210526762560425,0.010396256019729185,0.0053621589808258785,0.0055091572928588186
1.5094402644503102,0.032363241212534366,0.026315610187963794,0.017181792517199104,0.00920056488018426,0.008913919574565223
1.5095117816052368,0.035420479974014,0.03840090246363738,0.023785576506019895,0.01566122020050067,0.01068173305881255
1.5095832987601634,0.03772295943106026,0.04734942735116595,0.028541189697550762,0.021050478522663413,0.011538370582994213
1.50965481591509,0.039632532833370364,0.0499771343457423,0.030196375009199177,0.024676045521650293,0.01084318927095493
1.5097263330700166,0.041605230836871475,0.045152755572442436,0.028415936049993602,0.024883093341098426,0.009258313218767618
1.5097978502249432,0.04392716574129624,0.03789566669784832,0.026087173799228647,0.020934498886258583,0.009582419752064792
1.5098693673798698,0.04649881119729661,0.03390865641585593,0.025125670272120693,0.016910636397464936,0.011075845619005412
1.5099408845347964,0.048782229516577,0.034429060721342136,0.025898717163670308,0.016667338477896098,0.01185076318538407
1.510012401689723,0.04998265464348263,0.03769123716562311,0.027970420605425636,0.01874544402750343,0.012377178540909667
1.5100839188446495,0.04939582665258717,0.03835076210995177,0.02744804663090382,0.020684843062379398,0.010845378389478218
1.5101554359995761,0.046726633743720845,0.035883075312324854,0.024915387052692306,0.021302353198340753,0.00840814438340198
1.5102269531545027,0.04221494386441091,0.032966146858134496,0.022036546886626967,0.021054183339289607,0.006177773979193213
1.5102984703094293,0.0365554045951188,0.03118258305079784,0.019143160662124768,0.021788279584433114,0.003377683941862314
1.510369987464356,0.030705701566729478,0.03097093620889252,0.01712115674686206,0.022933297480810962,0.0010618613254697543
1.5104415046192825,0.025671938650474672,0.03194793096158557,0.016152578444133103,0.024683923362596387,-0.0007306674663028689
1.510513021774209,0.02230380117340663,0.03351792074242735,0.01595046449902194,0.02731456184236197,-0.002392342636113748
1.5105845389291357,0.02110478427342222,0.032068034861767965,0.014310671393420193,0.02757013884850634,-0.0038879932161330925
1.5106560560840623,0.022087028251984653,0.026963253842220335,0.011927341615445858,0.023070269725850433,-0.003292548713236518
1.5107275732389889,0.02474352062355467,0.018795343891648598,0.008315005741078718,0.01606937233827984,-0.0022874651739503574
1.5107990903939155,0.028206425428266402,0.012585039394559017,0.006455089330600415,0.008715081558794024,0.0003605695440748367
1.510870607548842,0.03156791810921427,0.00969748977737216,0.006924877381908108,0.003450188392812758,0.0037384782505818447
1.5109421247037687,0.034217944840168574,0.010005755859322413,0.0085255112555674,0.002168471886303743,0.005783928021150593
1.5110136418586952,0.036025983655989566,0.013343046900265328,0.01161661354179527,0.0030368144510060815,0.007834562566571383
1.5110851590136218,0.03729532439305516,0.014994151474906953,0.013294021431409462,0.005206803872870622,0.007982409676077763
1.5111566761685484,0.03854470610167679,0.013422316624549561,0.013163190298163863,0.007281777690620645,0.006695973911279111
1.511228193323475,0.04022460916569971,0.011858267919065928,0.013651672900344249,0.007031917986353025,0.007239985614410516
1.5112997104784016,0.04246467581659284,0.01270619747493111,0.01442102957265151,0.007105322547916607,0.007831552902890455
1.5113712276333282,0.04493429586497486,0.017817959448223387,0.016921655013448497,0.009304828074014448,0.008640544517734449
1.5114427447882548,0.04689231770787431,0.023823557310662463,0.019784155718843215,0.012694610567650835,0.009071707037578194
1.5115142619431814,0.047454803887083834,0.026476141443700422,0.02007376929597759,0.015800004988737897,0.007546184872652843
