freq,gls,usurper,pdc_unbiased,shape_periodogram,shift_periodogram
1.5,0.031605246424144244,0.031243955746868543,0.022003088454338578,0.04803781557755566,-0.020897391729520622
1.5000715171549266,0.028595336453250155,0.02458447065419513,0.01679692217781675,0.04005288837312745,-0.018459114829296717
1.5001430343098532,0.024797888546036324,0.018877635747059564,0.011419584810450916,0.03413863185845656,-0.017674599228086698
1.5002145514647798,0.020789812632417533,0.017073885885896367,0.008796510756732951,0.029878432810088913,-0.016271046541642596
1.5002860686197064,0.017345459787468324,0.019671758488484188,0.009479677332466734,0.028922011350914784,-0.015102847157096068
1.500357585774633,0.015271945925960987,0.024207760277761805,0.011714688134418397,0.029711416793709207,-0.014189690489157695
1.5004291029295596,0.015165201318802408,0.029381025230032574,0.01415548030345099,0.0339837294346924,-0.0157241945218894
1.5005006200844861,0.01716595655706576,0.034180851255772964,0.016954003693511403,0.03710162965438347,-0.01616172945769955
1.5005721372394127,0.02086274426290797,0.03777064768611206,0.019187221778694714,0.04043216197669737,-0.017136635788339544
1.5006436543943393,0.02544081002802935,0.040931817269108765,0.02137618975240262,0.04428275040844203,-0.018527858637420284
1.500715171549266,0.03000884122307953,0.04429609008830578,0.02421994995090846,0.04731859319689549,-0.018874286357925638
1.5007866887041925,0.03391266896856934,0.04817649147372914,0.02666061786266369,0.05419510292656331,-0.02234676625348404
1.500858205859119,0.0368882624749449,0.05252584673935106,0.029368029530911475,0.06271227581414605,-0.026863372940527007
1.5009297230140457,0.0390355018056212,0.05730280654103607,0.03287087235373193,0.07306718618438926,-0.0322189046634661
1.5010012401689723,0.04067274274449097,0.05889650535156323,0.0349635290275476,0.08089395909455913,-0.0366454938302302
1.5010727573238989,0.04213722341942038,0.05909023700230852,0.036798409825528795,0.08598761325258283,-0.03921095480572515
1.5011442744788255,0.043587855733941964,0.059114666499905086,0.03793328428010061,0.09088790051478975,-0.04210543594544835
1.501215791633752,0.044880915226329254,0.05878858291455307,0.03824814004694497,0.09458935085727306,-0.04465849455845344
1.5012873087886787,0.045592465454410994,0.059748355474225426,0.03896037083855539,0.09888294718573784,-0.04738834323379503
1.5013588259436053,0.04519857422015515,0.0589566364193913,0.038338310339186395,0.09942436076820445,-0.048211885115679004
1.5014303430985318,0.04331902735671992,0.05521595172715604,0.03525172960142179,0.09743260078514286,-0.048799553373185936
1.5015018602534584,0.03989064242203222,0.047426300321416946,0.029380562295107576,0.09145242170166787,-0.048278453261584975
1.501573377408385,0.035207008956161204,0.0383726369799024,0.02275340008029923,0.08390781438514408,-0.0470979486816176
1.5016448945633116,0.029854908046904056,0.030148763380511836,0.01716592382272006,0.07455005837306533,-0.04387109236826981
1.5017164117182382,0.02460404968418353,0.02338282485420811,0.01272729457488559,0.0648165334164561,-0.03960019539976089
1.5017879288731648,0.020274028275387688,0.01945845929210696,0.010756457121333964,0.05611114654989842,-0.03444569219965064
1.5018594460280914,0.01756978332877583,0.017654235913038843,0.009814843547662735,0.050419813671108,-0.03084589714061916
1.501930963183018,0.016887968997375314,0.017426577100997053,0.009773529530205848,0.044659441651616553,-0.02659291561949323
1.5020024803379446,0.018154766828972088,0.016854216691927673,0.009545857603491862,0.03996651454846986,-0.02325938262039263
1.5020739974928712,0.020807783027131654,0.017629787464543654,0.00997328939183271,0.036862534750041434,-0.0206674067824103
1.5021455146477978,0.023992628107040868,0.02027854484749051,0.01144212206274167,0.036368007098011405,-0.019314949779058014
1.5022170318027244,0.026898257150269028,0.02478945385124337,0.014028974316248104,0.039626235077062026,-0.01999944312936063
1.502288548957651,0.029041972437567,0.02940320255717348,0.016679671046279716,0.04468507786643217,-0.021979083876167548
1.5023600661125776,0.03036170293294545,0.03423014795662726,0.019990738498687276,0.05056776225870462,-0.02412882067543124
1.5024315832675041,0.031115659296329378,0.03472302349394781,0.02077896981185265,0.05483942936722527,-0.026775651557676982
1.5025031004224307,0.031680428730509906,0.03192718111142611,0.019519808615351825,0.05634138053568504,-0.028737827326456366
1.5025746175773573,0.032340192227813126,0.028479525459060056,0.018649627815208736,0.055358174353697324,-0.02859066795700956
1.502646134732284,0.033131945974426154,0.026049874377365945,0.017871043624403338,0.052937879283447974,-0.02731351936467771
1.5027176518872105,0.033797027787609374,0.025713342380655937,0.01799769758677829,0.052418477357970734,-0.02684235670217648
1.502789169042137,0.033871437590867574,0.024543167150316656,0.017486670760106647,0.05096548198360437,-0.02610511435060449
1.5028606861970637,0.03289397904446062,0.021360452581836734,0.015274482970942199,0.04799375690623773,-0.02538066652219904
1.5029322033519903,0.030638444170610023,0.017650005739153964,0.012011118949132128,0.04492777526549424,-0.025291544148094834
1.5030037205069169,0.02725242384486997,0.015604434317265863,0.009441040885373031,0.04299870702662444,-0.025582071113172365
1.5030752376618435,0.023245599290448483,0.016872235504245152,0.008606550278537486,0.04265270328866906,-0.025884649243330015
1.50314675481677,0.019358366958489085,0.020094902775049005,0.008953985446160287,0.04290279721310731,-0.025837449271171892
1.5032182719716967,0.01638051368297583,0.024300552581221307,0.010426555451109277,0.04334625741926978,-0.025179327365879956
1.5032897891266233,0.01497089818834955,0.028394997330340992,0.012350463029946239,0.04331773896103837,-0.023867706404363715
1.5033613062815498,0.015499460648454992,0.03156004004671071,0.013981854206916533,0.04254258356123457,-0.022197425935233175
1.5034328234364764,0.01793079665045714,0.03185571690373648,0.01416864675154985,0.039639775063047604,-0.019915793055549677
1.503504340591403,0.021792554285279486,0.03123972257219027,0.013806564009865633,0.036674809900484204,-0.017956629937370856
1.5035758577463296,0.026283745634476982,0.03390386462634106,0.015751292513310384,0.0366605772480621,-0.016641244235756043
1.5036473749012562,0.03053094650102892,0.03913655151578528,0.019003856556851165,0.04161014838294476,-0.018134765951085693
1.5037188920561828,0.03389868374654469,0.046074207867488864,0.02304438568669538,0.051409080640316435,-0.022704125490600746
1.5037904092111094,0.03619247413189749,0.05440676261362239,0.02836367437687625,0.06270391366418086,-0.027532073499851473
1.503861926366036,0.03764566473947448,0.06054730072269635,0.03246316988130233,0.07360284464148445,-0.032892138294543426
1.5039334435209626,0.038716510453014726,0.06336656945823149,0.03408384953452373,0.08265276294982171,-0.03854896610880803
1.5040049606758892,0.0398171228344044,0.06479638817389803,0.03557140334761458,0.08956652547429567,-0.04270799120269818
1.5040764778308158,0.041095739566223526,0.06803464879101764,0.037525773851031737,0.09514361363659171,-0.045558819464419045
1.5041479949857424,0.04234364882306056,0.07126200093586203,0.038887791087543686,0.10012955919662929,-0.04836938601087675
1.504219512140669,0.043051695709888996,0.07269061724794594,0.03921573232033744,0.10367203088741918,-0.050798630501768846
1.5042910292955955,0.04260283060723393,0.06812736430628658,0.036347749549566495,0.10257963017269073,-0.05191130239926161
1.5043625464505221,0.04053910287302065,0.05752028196864381,0.030363706364527798,0.09593145207859248,-0.05096385678555048
1.5044340636054487,0.03679439695722014,0.044263060461063694,0.02344001313236871,0.08482353633368199,-0.04732018163992751
1.5045055807603753,0.03178229372791513,0.03266296791996014,0.01698689592080203,0.07452647449579061,-0.04397361319912873
1.504577097915302,0.026296542555493532,0.02480283206257392,0.012446934359831944,0.0652741758690321,-0.0401287898744833
1.5046486150702285,0.021278189004975218,0.022041649588126003,0.011187449324425095,0.057996237079379044,-0.03555859632190688
1.504720132225155,0.017555651134353225,0.021382869811004443,0.011283372248322305,0.051970360574365035,-0.031013658398494827
1.5047916493800817,0.01564621916050789,0.0204715623948845,0.010644076718018416,0.04696402643823038,-0.027721487441133643
1.5048631665350083,0.015656872938766518,0.01847028052989479,0.009217644422453899,0.04078015936212785,-0.0240838545934457
1.5049346836899349,0.017286051262519187,0.017096383710922442,0.008230188330603324,0.035722244536230754,-0.02098967186032874
1.5050062008448615,0.019918755698584013,0.017107815091135917,0.007905738300784866,0.03168537563366182,-0.01820991445181627
1.505077717999788,0.022804926807040774,0.019419012607139866,0.009361654152707073,0.02918346722979864,-0.015376095350242588
1.5051492351547147,0.025289013466251117,0.02426522165599739,0.011726326065843064,0.03319414150854181,-0.016767546582201507
1.5052207523096413,0.027015644551186973,0.02905904335832835,0.014241445734319206,0.03847848664936185,-0.019004412408348048
1.5052922694645678,0.028012475009877,0.031371240783833,0.015961322224474977,0.04173594703579741,-0.02027006325633821
1.5053637866194944,0.028596359216805502,0.028027993083550126,0.014919408532213189,0.04120355357924409,-0.0205736706796162
1.505435303774421,0.02915112616185344,0.02170028677818232,0.013309044659559194,0.03801704712462565,-0.019287240469330995
1.5055068209293476,0.029900153036102176,0.017385882923474195,0.012321918805932341,0.03501585367019517,-0.01772068276108206
1.5055783380842742,0.030782681811496897,0.016843454699532353,0.01250866989698158,0.034247299542561345,-0.017024715049920394
1.5056498552392008,0.03146961942071043,0.019195916066648076,0.013496870470295333,0.03713429834928641,-0.01850563767176967
1.5057213723941274,0.03149161794629547,0.020345984732614453,0.013134126432083434,0.040600909634510136,-0.021323752839108513
1.505792889549054,0.030427310908792447,0.01981645044917541,0.011855838401314541,0.04239855726158849,-0.02351662016582076
1.5058644067039806,0.02809465201809536,0.017616504065247302,0.009674998552531539,0.04187824149695189,-0.024592807532203213
1.5059359238589072,0.024683284499830333,0.013840640605825402,0.006168765257997816,0.04045672494106732,-0.025888090864786394
1.5060074410138338,0.020766913938386953,0.011517247559817017,0.003987129865862614,0.038589575093432645,-0.025964056161946598
1.5060789581687604,0.017165658691511196,0.012638747913349225,0.004506773893992003,0.03667483169710987,-0.024193763343898073
1.506150475323687,0.014695536880755058,0.0151806710220064,0.005603202541494299,0.03543329326913212,-0.02253670557060375
1.5062219924786135,0.013907828977730352,0.017390328595360976,0.006474304461408025,0.033452385847131644,-0.020481757441272185
1.5062935096335401,0.014929925183180436,0.01788350844501121,0.007024475314287043,0.02898234487736245,-0.01679427503706788
1.5063650267884667,0.01746107614733839,0.016959991627376637,0.006681651925523114,0.02509550964987986,-0.014139136256012246
1.5064365439433933,0.020900617081537138,0.018633599827357624,0.008103902228742074,0.022974702504892492,-0.01161127392276309
1.50650806109832,0.024545654709518663,0.022792133376812906,0.01119024144466396,0.02249735045848129,-0.009186882548167173
1.5065795782532465,0.027795889555703463,0.029807653918216735,0.015188716512202768,0.028585916701584734,-0.011023501253396299
1.506651095408173,0.030315638754338018,0.03896332608335417,0.02020329875354711,0.037658769560799145,-0.014394694764057053
1.5067226125630997,0.03210575674634778,0.04800925966998115,0.02516307524326057,0.04788219228853592,-0.018659739264733903
1.5067941297180263,0.03344435853615213,0.05319328039499708,0.02809340030703321,0.05556916267815082,-0.022405953016746805
1.5068656468729529,0.03469846610783441,0.0536712397620946,0.028836225363534616,0.05903713093830233,-0.024486265561123283
1.5069371640278795,0.03608805388876267,0.05277827143970166,0.029158238083419115,0.05990632170587118,-0.02491650322855654
1.507008681182806,0.03753193323000867,0.0526392124576867,0.029645090979329304,0.06123096635909959,-0.02557488604488087
1.5070801983377327,0.038657419159163646,0.05291359050671218,0.03000532215028713,0.06183167307452248,-0.02577976302190681
1.5071517154926592,0.038950459296790155,0.05176456443868465,0.029635790998015537,0.06070328278476603,-0.025188511292274035
1.5072232326475858,0.03795818995272562,0.046184521066002286,0.026170643808596194,0.05724316418270326,-0.02494272387252134
1.5072947498025124,0.035465807062779846,0.03914656691106262,0.02167628316777021,0.051954367427329645,-0.024028095624262703
1.507366266957439,0.03160750390290827,0.03331119724848668,0.01779655130545853,0.04728832352001475,-0.023164031154636677
1.5074377841123656,0.02689036393457737,0.028367938600042553,0.014369878001425985,0.04397274370864402,-0.022999628687042077
1.5075093012672922,0.022110982309926926,0.024168164338761646,0.012274203971852665,0.04013456354516564,-0.021554211627914665
1.5075808184222188,0.018158898886019043,0.02158154080570599,0.010838451012952628,0.038145649464220284,-0.02104003797808786
1.5076523355771454,0.015750547010193554,0.020003995891058227,0.009985828883372298,0.03557084724958473,-0.01969978640314378
1.507723852732072,0.015198153002695225,0.016926373846866946,0.008495434228764531,0.030018434818988415,-0.016576906163675888
1.5077953698869986,0.01632710132796861,0.012763190692770102,0.006411917338543193,0.023058450968201364,-0.01280817598224645
1.5078668870419252,0.01858159605132472,0.009730217762085547,0.00521914285473996,0.016668952570125427,-0.008866629155506392
1.5079384041968518,0.02125563485920751,0.00802309721292967,0.005152249488431391,0.010630068370081038,-0.0044309435811575055
1.5080099213517784,0.023737553869918368,0.008005676612404627,0.0057615299185219465,0.008021587180078596,-0.0020871416277546606
1.508081438506705,0.025680396681245936,0.009975267194071524,0.007453924502377228,0.00856897585887913,-0.0013582398890847475
1.5081529556616315,0.027059576075294776,0.011713163305254121,0.008842952470356694,0.010457068674861915,-0.0018273978018670891
1.5082244728165581,0.028112039179855254,0.010940780841696543,0.008942296206187028,0.011060664446822832,-0.0022085745343906403
1.5082959899714847,0.029172386947160022,0.008886139117698122,0.008780907310022895,0.011258524331592367,-0.002463610225580617
1.5083675071264113,0.03045818310099522,0.009016878847395503,0.010026451111954632,0.012332771123000274,-0.002425207046454044
1.508439024281338,0.03190386747651281,0.013197084384621527,0.012747040105629182,0.01604747899067099,-0.0033564215056329553
1.5085105414362645,0.03314377564440417,0.01930824569028463,0.01600259242207933,0.02205785862586087,-0.005632223183305567
1.508582058591191,0.03366149064758627,0.024239053572032227,0.0186299276568245,0.027643284600672013,-0.008014590548820099
1.5086535757461177,0.03301661123576188,0.023751941209173802,0.017302793300784304,0.029535186747243154,-0.010309599456537415
1.5087250929010443,0.031031763736761156,0.019417338863733355,0.013978643770450466,0.027891489642294785,-0.011319902941023061
1.5087966100559709,0.02787943173947238,0.013870484983809822,0.009773118861112214,0.02401885781989005,-0.01126664213218919
1.5088681272108975,0.024071143965329337,0.008759065944257266,0.005405399448016361,0.021016305848246458,-0.01196765467748406
1.508939644365824,0.020368522042175177,0.004848142483939238,0.002619426200917792,0.01780821514585686,-0.011455318039143347
1.5090111615207507,0.017622660517009992,0.0031004133647805424,0.001280243020763253,0.01696817935983351,-0.011730000147514767
1.5090826786756772,0.016549556574789192,0.002647315831144186,0.001094148915450876,0.016808170347644702,-0.011736058708987815
1.5091541958306038,0.01749078347259404,0.002829550720018343,0.001728275756159572,0.014955037177273195,-0.009935872657473503
1.5092257129855304,0.02026609634215111,0.0035065520168798305,0.002622344403247119,0.01224440828079821,-0.00732521050774102
1.509297230140457,0.024225306810832306,0.007086191753008827,0.005090188490138515,0.011507572322814848,-0.005123592212458102
1.5093687472953836,0.028505184243561566,0.015326497630968591,0.010396256019729185,0.013630654459636318,-0.0031401013312380276
1.5094402644503102,0.032363241212534366,0.02660932348152316,0.017181792517199104,0.0195061308419508,-0.0029474488803502884
1.5095117816052368,0.035420479974014,0.03885192119078436,0.023785576506019895,0.02788295635683827,-0.004731748151120047
1.5095832987601634,0.03772295943106026,0.04783504270903788,0.028541189697550762,0.033885900342348826,-0.00599419644418427
1.50965481591509,0.039632532833370364,0.05036889187066112,0.030196375009199177,0.036215129822620006,-0.006611590738544297
1.5097263330700166,0.041605230836871475,0.04557828651558061,0.028415936049993602,0.034714192329441985,-0.006693298590227323
1.5097978502249432,0.04392716574129624,0.03840427574853481,0.026087173799228647,0.02884836725526242,-0.0039028864332347197
1.5098693673798698,0.04649881119729661,0.03443931769234795,0.025125670272120693,0.023024757089711346,-0.00022658180452179503
1.5099408845347964,0.048782229516577,0.034938748293888586,0.025898717163670308,0.0213956534725479,0.0015012461554323464
1.510012401689723,0.04998265464348263,0.03813398874199943,0.027970420605425636,0.022159515157028346,0.002325565159609204
1.5100839188446495,0.04939582665258717,0.03867480534894342,0.02744804663090382,0.022189114932925393,0.0019528218106100895
1.5101554359995761,0.046726633743720845,0.036035515888430035,0.024915387052692306,0.02066087965635478,0.0013862404850254713
1.5102269531545027,0.04221494386441091,0.03299466605508301,0.022036546886626967,0.01847104651673732,0.001078536599107311
1.5102984703094293,0.0365554045951188,0.031126324680178542,0.019143160662124768,0.01884713962099648,-0.0011423326591050013
1.510369987464356,0.030705701566729478,0.030970631175789548,0.01712115674686206,0.020827355227251577,-0.003968542806041189
1.5104415046192825,0.025671938650474672,0.032006808452876956,0.016152578444133103,0.02372943136512466,-0.0067721117870311745
1.510513021774209,0.02230380117340663,0.03355840252905182,0.01595046449902194,0.026906132877827244,-0.00926549793682221
1.5105845389291357,0.02110478427342222,0.03189153496616216,0.014310671393420193,0.02678488189270369,-0.010275727789062052
1.5106560560840623,0.022087028251984653,0.026514505332730864,0.011927341615445858,0.021588601494670543,-0.008018028447428514
1.5107275732389889,0.02474352062355467,0.0181230247432115,0.008315005741078718,0.014124539880279138,-0.004902466906050261
1.5107990903939155,0.028206425428266402,0.011784145999727587,0.006455089330600415,0.007240465686716094,-0.001042527657923375
1.510870607548842,0.03156791810921427,0.008906118352906282,0.006924877381908108,0.003165026347494206,0.0022958682688782118
1.5109421247037687,0.034217944840168574,0.009279153195064846,0.0085255112555674,0.0037716503841081802,0.0029193046942005223
1.5110136418586952,0.036025983655989566,0.012648685263029886,0.01161661354179527,0.007115778412472181,0.0025117036094883674
1.5110851590136218,0.03729532439305516,0.014299562897717642,0.013294021431409462,0.01069680612662736,0.000980263065133634
1.5111566761685484,0.03854470610167679,0.012837854997764488,0.013163190298163863,0.014027392979240284,-0.0015784544997147797
1.511228193323475,0.04022460916569971,0.011421029636016489,0.013651672900344249,0.015140169944893268,-0.0020763787984773726
1.5112997104784016,0.04246467581659284,0.012316561698178696,0.01442102957265151,0.016395448043740737,-0.0024916164319942354
1.5113712276333282,0.04493429586497486,0.017406151066356387,0.016921655013448497,0.020384170544278293,-0.0037735396584286777
1.5114427447882548,0.04689231770787431,0.02346555518121478,0.019784155718843215,0.02505637894122846,-0.005319886470778015
1.5115142619431814,0.047454803887083834,0.026142953105723964,0.02007376929597759,0.027191747875192324,-0.006710392698521996
