freq,gls,usurper,pdc_unbiased,shape_periodogram,shift_periodogram
1.5,0.031605246424144244,0.032127422533247865,0.022003088454338578,0.031396692202582836,0.0018638497900255219
1.5000715171549266,0.028595336453250155,0.025075463411793713,0.01679692217781675,0.02513313833310743,0.000799262722560123
1.5001430343098532,0.024797888546036324,0.01919254304284275,0.011419584810450916,0.02034852332943566,-0.001197873434605471
1.5002145514647798,0.020789812632417533,0.017390124175065625,0.008796510756732951,0.016319225778026344,-0.0012668946671689587
1.5002860686197064,0.017345459787468324,0.02016387493696371,0.009479677332466734,0.014855338258721316,9.219959909812638e-05
1.500357585774633,0.015271945925960987,0.024915389891150462,0.011714688134418397,0.015270171204742099,0.0017617041331213544
1.5004291029295596,0.015165201318802408,0.0304435657176864,0.01415548030345099,0.01863000318891296,0.002034143224822585
1.5005006200844861,0.01716595655706576,0.035491327093057266,0.016954003693511403,0.021047314348275645,0.0031125336848779233
1.5005721372394127,0.02086274426290797,0.03932836016273675,0.019187221778694714,0.02350316977294006,0.0036922970360329975
1.5006436543943393,0.02544081002802935,0.042709648873642515,0.02137618975240262,0.02630172586229822,0.0040520620564047935
1.500715171549266,0.03000884122307953,0.04637805127460522,0.02421994995090846,0.02803930302347178,0.0055327894308634055
1.5007866887041925,0.03391266896856934,0.050794648301406876,0.02666061786266369,0.033214887618020654,0.004838216735412514
1.500858205859119,0.0368882624749449,0.055772610272734356,0.029368029530911475,0.04006623027684931,0.0034754995347593383
1.5009297230140457,0.0390355018056212,0.06111105892071539,0.03287087235373193,0.04877528179001476,0.0017952046065079724
1.5010012401689723,0.04067274274449097,0.06295407915293,0.0349635290275476,0.05550498250152843,-2.452717145151565e-05
1.5010727573238989,0.04213722341942038,0.06303443158404703,0.036798409825528795,0.05997724881042631,-0.0008572468655476439
1.5011442744788255,0.043587855733941964,0.06298472702520684,0.03793328428010061,0.0640532012361701,-0.002072760451532519
1.501215791633752,0.044880915226329254,0.06270912551150076,0.03824814004694497,0.06739306181574395,-0.0035917100578805
1.5012873087886787,0.045592465454410994,0.06380818743267071,0.03896037083855539,0.0706063590956764,-0.0047059338819064435
1.5013588259436053,0.04519857422015515,0.06309964796166627,0.038338310339186395,0.0707787861842581,-0.0053268268959542776
1.5014303430985318,0.04331902735671992,0.05920422507419569,0.03525172960142179,0.07039893445994962,-0.007745736959582448
1.5015018602534584,0.03989064242203222,0.05096594155692258,0.029380562295107576,0.06695777935756879,-0.010888069300994951
1.501573377408385,0.035207008956161204,0.04135687682316175,0.02275340008029923,0.06275966357900911,-0.014261948279700367
1.5016448945633116,0.029854908046904056,0.03258194430805764,0.01716592382272006,0.05594545604366162,-0.015350491627143468
1.5017164117182382,0.02460404968418353,0.02527202558525983,0.01272729457488559,0.04823037421374132,-0.014983093797398542
1.5017879288731648,0.020274028275387688,0.02082632347472547,0.010756457121333964,0.041478311052341475,-0.013042215679198652
1.5018594460280914,0.01756978332877583,0.01862275485532587,0.009814843547662735,0.03741989439383693,-0.01167068790450264
1.501930963183018,0.016887968997375314,0.018026607853675457,0.009773529530205848,0.03341252504253457,-0.009565081627549836
1.5020024803379446,0.018154766828972088,0.017129790932532384,0.009545857603491862,0.029783846070611956,-0.007819962612321872
1.5020739974928712,0.020807783027131654,0.01776160111288384,0.00997328939183271,0.027315757511813466,-0.0061405290770735295
1.5021455146477978,0.023992628107040868,0.02049621615480639,0.01144212206274167,0.026528518975635736,-0.004477344935551357
1.5022170318027244,0.026898257150269028,0.02537650138464206,0.014028974316248104,0.028750536347551942,-0.0034743220153194677
1.502288548957651,0.029041972437567,0.030440492623887365,0.016679671046279716,0.03215344277930233,-0.0030473493798822892
1.5023600661125776,0.03036170293294545,0.0357331186423038,0.019990738498687276,0.036721279349061074,-0.002682853494673382
1.5024315832675041,0.031115659296329378,0.03641659441708272,0.02077896981185265,0.03968066423259932,-0.003595718347217679
1.5025031004224307,0.031680428730509906,0.03341688354484238,0.019519808615351825,0.040822151714925446,-0.005271874871161726
1.5025746175773573,0.032340192227813126,0.02950749887295702,0.018649627815208736,0.03942722196203728,-0.005263708981023381
1.502646134732284,0.033131945974426154,0.026842067338015523,0.017871043624403338,0.03682501005497827,-0.004533180476264194
1.5027176518872105,0.033797027787609374,0.026461596925536773,0.01799769758677829,0.035466810014676206,-0.003700633253682385
1.502789169042137,0.033871437590867574,0.02526403136412999,0.017486670760106647,0.03315557444823053,-0.002899202648597425
1.5028606861970637,0.03289397904446062,0.021858575705932103,0.015274482970942199,0.030692348715805305,-0.003456780198075949
1.5029322033519903,0.030638444170610023,0.017930619006133148,0.012011118949132128,0.028529935526983942,-0.005064295465596593
1.5030037205069169,0.02725242384486997,0.01582535170066602,0.009441040885373031,0.027206341457138485,-0.0065324820117084155
1.5030752376618435,0.023245599290448483,0.01730782760448079,0.008606550278537486,0.02648361229719469,-0.006852722975115453
1.50314675481677,0.019358366958489085,0.02088495272658196,0.008953985446160287,0.02633517275635419,-0.0064795069416106
1.5032182719716967,0.01638051368297583,0.025512359630198416,0.010426555451109277,0.026476517724730756,-0.005308952930230158
1.5032897891266233,0.01497089818834955,0.029950634148667787,0.012350463029946239,0.026986702643779368,-0.00395326349103345
1.5033613062815498,0.015499460648454992,0.03336881627585468,0.013981854206916533,0.02696769042911658,-0.0025624818445131323
1.5034328234364764,0.01793079665045714,0.03368936028119076,0.01416864675154985,0.02462544395192179,-0.001154201840951691
1.503504340591403,0.021792554285279486,0.033031478289069154,0.013806564009865633,0.021773884158784403,6.12418519796879e-05
1.5035758577463296,0.026283745634476982,0.03580544215881081,0.015751292513310384,0.021697917343898993,0.0017475137207975226
1.5036473749012562,0.03053094650102892,0.04151663673573792,0.019003856556851165,0.02603295499800919,0.0021871346574458446
1.5037188920561828,0.03389868374654469,0.04913347784252156,0.02304438568669538,0.03396501329747794,0.0013748092116039705
1.5037904092111094,0.03619247413189749,0.05829854294126557,0.02836367437687625,0.04291330182380956,0.0011042063531017743
1.503861926366036,0.03764566473947448,0.06516456876359375,0.03246316988130233,0.05125261470778365,0.00012611100959903715
1.5039334435209626,0.038716510453014726,0.06843031270489777,0.03408384953452373,0.05930556990327071,-0.002802508041689128
1.5040049606758892,0.0398171228344044,0.06999952505449616,0.03557140334761458,0.06498808000318453,-0.004578611838772333
1.5040764778308158,0.041095739566223526,0.07358322263286361,0.037525773851031737,0.06990705857381867,-0.0055506493171541965
1.5041479949857424,0.04234364882306056,0.07719886873349044,0.038887791087543686,0.07476650454818398,-0.0069947636128821844
1.504219512140669,0.043051695709888996,0.0788885193564393,0.03921573232033744,0.0788738057306996,-0.008916174477627856
1.5042910292955955,0.04260283060723393,0.07414550009292019,0.036347749549566495,0.08012303057447104,-0.012023927787780884
1.5043625464505221,0.04053910287302065,0.06273652742978604,0.030363706364527798,0.0769760423597871,-0.015420677546441343
1.5044340636054487,0.03679439695722014,0.04837848474844546,0.02344001313236871,0.06933523631294657,-0.017201259306586825
1.5045055807603753,0.03178229372791513,0.035867818021721024,0.01698689592080203,0.06177885352650456,-0.018624420756616824
1.504577097915302,0.026296542555493532,0.0273173893050898,0.012446934359831944,0.054491609822371175,-0.018569505589978653
1.5046486150702285,0.021278189004975218,0.024127288919721296,0.011187449324425095,0.04821608466289208,-0.01627913754649356
1.504720132225155,0.017555651134353225,0.023142271016430207,0.011283372248322305,0.04342653603166865,-0.013637413251767176
1.5047916493800817,0.01564621916050789,0.021983077564727886,0.010644076718018416,0.039848177053627164,-0.012266249558144144
1.5048631665350083,0.015656872938766518,0.019640901499050265,0.009217644422453899,0.035272778690411385,-0.0110291026274064
1.5049346836899349,0.017286051262519187,0.017991785197822237,0.008230188330603324,0.03067699256011538,-0.009410166038236493
1.5050062008448615,0.019918755698584013,0.01786440402580047,0.007905738300784866,0.02653676092850118,-0.007474051679721483
1.505077717999788,0.022804926807040774,0.02020676527574053,0.009361654152707073,0.02363324975433341,-0.004692239888430139
1.5051492351547147,0.025289013466251117,0.025489582529952325,0.011726326065843064,0.0266756125203786,-0.004315367660688105
1.5052207523096413,0.027015644551186973,0.030838329721591857,0.014241445734319206,0.030368725618562895,-0.0041583944627425805
1.5052922694645678,0.028012475009877,0.03345475778910736,0.015961322224474977,0.032080623666614655,-0.0036165799167689073
1.5053637866194944,0.028596359216805502,0.029936562146403084,0.014919408532213189,0.03058817788438022,-0.003701716651009574
1.505435303774421,0.02915112616185344,0.022977199917479856,0.013309044659559194,0.026242832443679236,-0.0027449610549115638
1.5055068209293476,0.029900153036102176,0.018195995310221008,0.012321918805932341,0.02247062243372969,-0.0015669024029015277
1.5055783380842742,0.030782681811496897,0.01754180215599179,0.01250866989698158,0.0207853363545847,-0.0005094708061040101
1.5056498552392008,0.03146961942071043,0.020128971241951184,0.013496870470295333,0.02230537334260365,-0.00048446693800872714
1.5057213723941274,0.03149161794629547,0.02155153514520155,0.013134126432083434,0.024740725162042468,-0.002091213197112475
1.505792889549054,0.030427310908792447,0.02100272346650379,0.011855838401314541,0.027237311325809886,-0.004505623440811831
1.5058644067039806,0.02809465201809536,0.018716828508492222,0.009674998552531539,0.027904029220259616,-0.006707002845129673
1.5059359238589072,0.024683284499830333,0.014899463784070595,0.006168765257997816,0.027414733596127023,-0.009412381259437844
1.5060074410138338,0.020766913938386953,0.012562612074552294,0.003987129865862614,0.02600774627169272,-0.010506805228433657
1.5060789581687604,0.017165658691511196,0.013797706796354833,0.004506773893992003,0.02424907409049537,-0.009128304339756912
1.506150475323687,0.014695536880755058,0.016540569773062855,0.005603202541494299,0.023758550807682445,-0.007938909249812439
1.5062219924786135,0.013907828977730352,0.018877115762455824,0.006474304461408025,0.022752411005964406,-0.006664885096389621
1.5062935096335401,0.014929925183180436,0.01927758157573013,0.007024475314287043,0.019438506367527884,-0.004430658781229785
1.5063650267884667,0.01746107614733839,0.018202925613054966,0.006681651925523114,0.016902285127079343,-0.003367133127621588
1.5064365439433933,0.020900617081537138,0.019891721997728304,0.008103902228742074,0.01521920694870334,-0.0012658276122769333
1.50650806109832,0.024545654709518663,0.024342473998443966,0.01119024144466396,0.014032339167262087,0.0019784686245670653
1.5065795782532465,0.027795889555703463,0.03214111615892499,0.015188716512202768,0.018118117898624393,0.003181579876405732
1.506651095408173,0.030315638754338018,0.042294559516591966,0.02020329875354711,0.024745274049095982,0.003889630954432855
1.5067226125630997,0.03210575674634778,0.052360893771541454,0.02516307524326057,0.032652396992176154,0.0038698833446854596
1.5067941297180263,0.03344435853615213,0.058169231394312404,0.02809340030703321,0.03915093199345738,0.002883885254517384
1.5068656468729529,0.03469846610783441,0.05872985988496553,0.028836225363534616,0.04246110571270749,0.0017461888076898454
1.5069371640278795,0.03608805388876267,0.05767979521222628,0.029158238083419115,0.043863954928614515,0.0012700616526136416
1.507008681182806,0.03753193323000867,0.05745732133755694,0.029645090979329304,0.045920422843762465,0.0005845597442171825
1.5070801983377327,0.038657419159163646,0.057699482701713746,0.03000532215028713,0.04761633913013813,-1.582567262639034e-05
1.5071517154926592,0.038950459296790155,0.05642888001434646,0.029635790998015537,0.04773345492325394,-0.00039169807165450346
1.5072232326475858,0.03795818995272562,0.05041991827617065,0.026170643808596194,0.04702341776868306,-0.0029498437911668935
1.5072947498025124,0.035465807062779846,0.0428284737987261,0.02167628316777021,0.0452218745844825,-0.0057957389583033975
1.507366266957439,0.03160750390290827,0.0365265700740686,0.01779655130545853,0.043010286150250085,-0.007900320951409195
1.5074377841123656,0.02689036393457737,0.031227115754602915,0.014369878001425985,0.04099243347416833,-0.009723703288125047
1.5075093012672922,0.022110982309926926,0.026594209000990708,0.012274203971852665,0.037766640648227844,-0.009774363885998007
1.5075808184222188,0.018158898886019043,0.02369696707455436,0.010838451012952628,0.03631584890035545,-0.010214582933682905
1.5076523355771454,0.015750547010193554,0.021807182157991316,0.009985828883372298,0.03459829915179884,-0.010018743438653431
1.507723852732072,0.015198153002695225,0.01826467736056133,0.008495434228764531,0.030262281272078223,-0.008964273264334565
1.5077953698869986,0.01632710132796861,0.013563194943507205,0.006411917338543193,0.024296674799302153,-0.007542009685849171
1.5078668870419252,0.01858159605132472,0.010087228714276407,0.00521914285473996,0.0180253764222711,-0.005203679018967213
1.5079384041968518,0.02125563485920751,0.008066086140684405,0.005152249488431391,0.011605142916838578,-0.0018341749675541178
1.5080099213517784,0.023737553869918368,0.008001292806670229,0.0057615299185219465,0.007981440343474982,0.0006146808188605504
1.508081438506705,0.025680396681245936,0.010196327009946195,0.007453924502377228,0.006363699297000012,0.0029093145728963524
1.5081529556616315,0.027059576075294776,0.01225040741901562,0.008842952470356694,0.0058078328146790115,0.004380800158432419
1.5082244728165581,0.028112039179855254,0.011494620930672278,0.008942296206187028,0.004431670061816773,0.00519901472077007
1.5082959899714847,0.029172386947160022,0.009202820205585787,0.008780907310022895,0.0031257755422896202,0.005759193781476198
1.5083675071264113,0.03045818310099522,0.009168247559487024,0.010026451111954632,0.0027263584185051397,0.0070258097971951485
1.508439024281338,0.03190386747651281,0.013556096210433634,0.012747040105629182,0.004611027067380751,0.008321679478140975
1.5085105414362645,0.03314377564440417,0.020065820136872137,0.01600259242207933,0.008830817771876819,0.008824796261796719
1.508582058591191,0.03366149064758627,0.0254021626469564,0.0186299276568245,0.012972382904183297,0.008838659954089726
1.5086535757461177,0.03301661123576188,0.025071870691524546,0.017302793300784304,0.015046605453475163,0.006609188228810031
1.5087250929010443,0.031031763736761156,0.020533754386563238,0.013978643770450466,0.01527506250343211,0.003674572787203477
1.5087966100559709,0.02787943173947238,0.014725975827229258,0.009773118861112214,0.01365669608934165,0.0009800202661703356
1.5088681272108975,0.024071143965329337,0.009445801677383736,0.005405399448016361,0.012558668314332742,-0.002128840779952088
1.508939644365824,0.020368522042175177,0.005297442844120036,0.002619426200917792,0.010172272835182544,-0.0032119698168394913
1.5090111615207507,0.017622660517009992,0.0034807988137163346,0.001280243020763253,0.009385584572918527,-0.003924893112971262
1.5090826786756772,0.016549556574789192,0.0029447955173864016,0.001094148915450876,0.009864372529029853,-0.004337766000448284
1.5091541958306038,0.01749078347259404,0.0030061154819272045,0.001728275756159572,0.00907017706134704,-0.0033776516265485775
1.5092257129855304,0.02026609634215111,0.0036344823547652077,0.002622344403247119,0.006724157745339259,-0.001369686597040971
1.509297230140457,0.024225306810832306,0.007382692125880747,0.005090188490138515,0.005147797069258108,0.0015587018177200477
1.5093687472953836,0.028505184243561566,0.01613527268942339,0.010396256019729185,0.005713897242481397,0.005744816639242639
1.5094402644503102,0.032363241212534366,0.028290968996798425,0.017181792517199104,0.009512397994843665,0.009458905262362727
1.5095117816052368,0.035420479974014,0.04172808285775435,0.023785576506019895,0.015609088667258004,0.01179558688207237
1.5095832987601634,0.03772295943106026,0.05172532203560475,0.028541189697550762,0.020512211449441996,0.013206936121244751
1.50965481591509,0.039632532833370364,0.05468196321258706,0.030196375009199177,0.023057629792453654,0.01325132678450314
1.5097263330700166,0.041605230836871475,0.049589060954703744,0.028415936049993602,0.02222738520737091,0.01218624170521807
1.5097978502249432,0.04392716574129624,0.04172476513727001,0.026087173799228647,0.01748223735549852,0.01274494659985607
1.5098693673798698,0.04649881119729661,0.037277316678835486,0.025125670272120693,0.012855080750196172,0.014398469565586583
1.5099408845347964,0.048782229516577,0.0375905922150461,0.025898717163670308,0.012033477311236978,0.015490854840841565
1.510012401689723,0.04998265464348263,0.04082968193453482,0.027970420605425636,0.013378655282041265,0.016527220973309206
1.5100839188446495,0.04939582665258717,0.04134254360131328,0.02744804663090382,0.014796803522454183,0.015328921324498
1.5101554359995761,0.046726633743720845,0.038424960155798694,0.024915387052692306,0.015408917083777863,0.012858651361389039
1.5102269531545027,0.04221494386441091,0.03512782525415662,0.022036546886626967,0.01550772253369494,0.010369287196859506
1.5102984703094293,0.0365554045951188,0.03323417547384366,0.019143160662124768,0.0170578957252585,0.007093658151384298
1.510369987464356,0.030705701566729478,0.03317574023985661,0.01712115674686206,0.019524779940161798,0.004066364230300214
1.5104415046192825,0.025671938650474672,0.034427409499363536,0.016152578444133103,0.022229503070260725,0.0018034553559109993
1.510513021774209,0.02230380117340663,0.03613537514177967,0.01595046449902194,0.025369823691953602,-4.34863208084102e-05
1.5105845389291357,0.02110478427342222,0.03436485316976516,0.014310671393420193,0.025884688768936525,-0.0017061170615196622
1.5106560560840623,0.022087028251984653,0.028458098811098384,0.011927341615445858,0.02147220185237247,-0.0013679269594748758
1.5107275732389889,0.02474352062355467,0.0192163198236297,0.008315005741078718,0.014398793643615506,-0.0006494642408892494
1.5107990903939155,0.028206425428266402,0.012106242055694431,0.006455089330600415,0.006980310930085423,0.0017354695768920844
1.510870607548842,0.03156791810921427,0.008729888353591892,0.006924877381908108,0.001377800189055944,0.005121873968858427
1.5109421247037687,0.034217944840168574,0.009067295805398935,0.0085255112555674,-0.000867243684354388,0.007673427065401768
1.5110136418586952,0.036025983655989566,0.01271879209890433,0.01161661354179527,-0.0007291941053650552,0.010214249815104869
1.5110851590136218,0.03729532439305516,0.01464523625890232,0.013294021431409462,0.0003669925600892034,0.01104829462811272
1.5111566761685484,0.03854470610167679,0.013196809326193373,0.013163190298163863,0.001516515198011591,0.010324434556586309
1.511228193323475,0.04022460916569971,0.011625905089072039,0.013651672900344249,0.0005962765038812866,0.011228506790555539
1.5112997104784016,0.04246467581659284,0.012655162105223522,0.01442102957265151,0.0004051383546170516,0.0119812294404869
1.5113712276333282,0.04493429586497486,0.018173459298594416,0.016921655013448497,0.0026368768873331213,0.012906097177506617
1.5114427447882548,0.04689231770787431,0.024758227033956852,0.019784155718843215,0.0058517406314416145,0.01361311551553147
1.5115142619431814,0.047454803887083834,0.02773188434190837,0.02007376929597759,0.008801845104079121,0.012284799014978717
