freq,gls,usurper,pdc_unbiased,shape_periodogram,shift_periodogram
1.5,0.031605246424144244,0.029404449125628198,0.022003088454338578,0.009252205847153078,0.019304219772075384
1.5000715171549266,0.028595336453250155,0.02469673946825669,0.01679692217781675,0.005207942741689644,0.01516009804030067
1.5001430343098532,0.024797888546036324,0.021261201246726893,0.011419584810450916,0.0031639488552009996,0.010392677575019934
1.5002145514647798,0.020789812632417533,0.021437450599018977,0.008796510756732951,0.0035990808349472547,0.007739569394009777
1.5002860686197064,0.017345459787468324,0.0255192210742794,0.009479677332466734,0.005748860291214931,0.007912778195155762
1.500357585774633,0.015271945925960987,0.031118045589776773,0.011714688134418397,0.009488773341783526,0.00923310582217025
1.5004291029295596,0.015165201318802408,0.03737116211348991,0.01415548030345099,0.015300739851635308,0.010280294830981043
1.5005006200844861,0.01716595655706576,0.04281093258878747,0.016954003693511403,0.02013798337639442,0.011899452145556213
1.5005721372394127,0.02086274426290797,0.047017284359937135,0.019187221778694714,0.02337870397008414,0.013333722750163786
1.5006436543943393,0.02544081002802935,0.05064217579513046,0.02137618975240262,0.027385651543435502,0.014550386578386533
1.500715171549266,0.03000884122307953,0.0540537578169566,0.02421994995090846,0.02974937524081088,0.01678105206969171
1.5007866887041925,0.03391266896856934,0.057341413615082305,0.02666061786266369,0.031109430726421056,0.018848721711185012
1.500858205859119,0.0368882624749449,0.06010327681354068,0.029368029530911475,0.03152166989569294,0.02139301164982608
1.5009297230140457,0.0390355018056212,0.06211802914134683,0.03287087235373193,0.03182407480063654,0.024737879678743403
1.5010012401689723,0.04067274274449097,0.060716814101731735,0.0349635290275476,0.031387550610393236,0.026876994140856002
1.5010727573238989,0.04213722341942038,0.057701850102594966,0.036798409825528795,0.029970622965378453,0.028988205161186765
1.5011442744788255,0.043587855733941964,0.055442421177926915,0.03793328428010061,0.02917454717846321,0.030275629499711906
1.501215791633752,0.044880915226329254,0.05362993469103106,0.03824814004694497,0.02954064150091022,0.030499130782138218
1.5012873087886787,0.045592465454410994,0.053803333048686494,0.03896037083855539,0.032331514850148874,0.03055790751586045
1.5013588259436053,0.04519857422015515,0.052698401420236005,0.038338310339186395,0.03315909060055069,0.02976308277460038
1.5014303430985318,0.04331902735671992,0.05016918970851741,0.03525172960142179,0.0320477253962355,0.0270074734200577
1.5015018602534584,0.03989064242203222,0.04417838599802485,0.029380562295107576,0.0290587223378001,0.021967112320845666
1.501573377408385,0.035207008956161204,0.037329950403606975,0.02275340008029923,0.02640594878669055,0.01611584244794828
1.5016448945633116,0.029854908046904056,0.03092027899638063,0.01716592382272006,0.025363519150594708,0.010911267544460116
1.5017164117182382,0.02460404968418353,0.02564051714451349,0.01272729457488559,0.0236465394966367,0.006980823345003065
1.5017879288731648,0.020274028275387688,0.022032371739201348,0.010756457121333964,0.022877396839365814,0.005237425441830195
1.5018594460280914,0.01756978332877583,0.020213061356159686,0.009814843547662735,0.023012161469741572,0.0042896117418840946
1.501930963183018,0.016887968997375314,0.0200975403529848,0.009773529530205848,0.024202444366451387,0.003977029768214102
1.5020024803379446,0.018154766828972088,0.01986571612540738,0.009545857603491862,0.024927849324406528,0.0035893190266773514
1.5020739974928712,0.020807783027131654,0.021408110312312975,0.00997328939183271,0.025969433735306264,0.0037672525736470275
1.5021455146477978,0.023992628107040868,0.025324138364858022,0.01144212206274167,0.028207503983553886,0.004685739549087573
1.5022170318027244,0.026898257150269028,0.030213751471288238,0.014028974316248104,0.028743002506757237,0.007082943556980501
1.502288548957651,0.029041972437567,0.034475276398145974,0.016679671046279716,0.02698073807901616,0.010067910173778491
1.5023600661125776,0.03036170293294545,0.037641907909913085,0.019990738498687276,0.02372332424705523,0.014037608516824925
1.5024315832675041,0.031115659296329378,0.03628131072746406,0.02077896981185265,0.019935317850990713,0.015670905638850947
1.5025031004224307,0.031680428730509906,0.032010267228390905,0.019519808615351825,0.015886743033071617,0.015369861423294216
1.5025746175773573,0.032340192227813126,0.026687385087173412,0.018649627815208736,0.01218512792511007,0.015368624748360352
1.502646134732284,0.033131945974426154,0.022916140244585274,0.017871043624403338,0.009877610221068088,0.015138075575698925
1.5027176518872105,0.033797027787609374,0.021849971492773356,0.01799769758677829,0.01042147033673752,0.01513704966488657
1.502789169042137,0.033871437590867574,0.020106490140634994,0.017486670760106647,0.009923993825551213,0.014753229894633393
1.5028606861970637,0.03289397904446062,0.0176484985069337,0.015274482970942199,0.008356417770044486,0.012957863822490664
1.5029322033519903,0.030638444170610023,0.01562241998433806,0.012011118949132128,0.005662170005250344,0.01039702948462231
1.5030037205069169,0.02725242384486997,0.015509489263224685,0.009441040885373031,0.004029816940933792,0.008268465611776849
1.5030752376618435,0.023245599290448483,0.019413220225887373,0.008606550278537486,0.005567776973624998,0.007104206609204374
1.50314675481677,0.019358366958489085,0.025630810361636513,0.008953985446160287,0.008422135628220374,0.00678939566981443
1.5032182719716967,0.01638051368297583,0.03145250159313821,0.010426555451109277,0.010884324872417327,0.007659762737672502
1.5032897891266233,0.01497089818834955,0.036224918939896766,0.012350463029946239,0.012901385264280175,0.009071528153635766
1.5033613062815498,0.015499460648454992,0.039815673935406845,0.013981854206916533,0.014485124574273778,0.010297753533978623
1.5034328234364764,0.01793079665045714,0.04046923532513346,0.01416864675154985,0.014211298891761176,0.010542252255032355
1.503504340591403,0.021792554285279486,0.03981547558542727,0.013806564009865633,0.013670849039710112,0.010313293214102315
1.5035758577463296,0.026283745634476982,0.04212588092879098,0.015751292513310384,0.016633944876231797,0.011529344195964682
1.5036473749012562,0.03053094650102892,0.04655869877896501,0.019003856556851165,0.02037533053835282,0.013841534780873379
1.5037188920561828,0.03389868374654469,0.05205194354201597,0.02304438568669538,0.023720742033738706,0.017012634920601708
1.5037904092111094,0.03619247413189749,0.05793957186074698,0.02836367437687625,0.02572938241891581,0.021735973516095016
1.503861926366036,0.03764566473947448,0.06154611084647951,0.03246316988130233,0.026875121821320545,0.025468902764891627
1.5039334435209626,0.038716510453014726,0.06290163541594665,0.03408384953452373,0.027295972760717508,0.026952198736355053
1.5040049606758892,0.0398171228344044,0.06295817863296704,0.03557140334761458,0.02739479503268127,0.028379268024130478
1.5040764778308158,0.041095739566223526,0.06526390240039862,0.037525773851031737,0.028176407967999792,0.03010580631600177
1.5041479949857424,0.04234364882306056,0.0680210938396281,0.038887791087543686,0.031141596706772016,0.03075806471985626
1.504219512140669,0.043051695709888996,0.06853058688976071,0.03921573232033744,0.03486660178692509,0.03022977065508293
1.5042910292955955,0.04260283060723393,0.06371496388566592,0.036347749549566495,0.03557106633174911,0.027273241586045528
1.5043625464505221,0.04053910287302065,0.05355041367387473,0.030363706364527798,0.03330815686919652,0.021955882288076316
1.5044340636054487,0.03679439695722014,0.040160255071145484,0.02344001313236871,0.028444923838349602,0.016319054672679047
1.5045055807603753,0.03178229372791513,0.02889876365137108,0.01698689592080203,0.02498418565816869,0.010823608648565458
1.504577097915302,0.026296542555493532,0.021896637107388865,0.012446934359831944,0.0242748281477903,0.006564065978779014
1.5046486150702285,0.021278189004975218,0.019652373577454082,0.011187449324425095,0.023785542329195906,0.0054493889804598395
1.504720132225155,0.017555651134353225,0.018960988346929775,0.011283372248322305,0.023996355053247993,0.005494578030582848
1.5047916493800817,0.01564621916050789,0.01843794382323662,0.010644076718018416,0.024402204171990436,0.0047791269209307595
1.5048631665350083,0.015656872938766518,0.017906836267888995,0.009217644422453899,0.024672469088337916,0.0033281198947193494
1.5049346836899349,0.017286051262519187,0.017964985997307874,0.008230188330603324,0.022745073115449075,0.002807563298304192
1.5050062008448615,0.019918755698584013,0.019760759142240163,0.007905738300784866,0.02171604295887917,0.0027271034292309917
1.505077717999788,0.022804926807040774,0.023252581123251456,0.009361654152707073,0.021408437193540693,0.004215231868371811
1.5051492351547147,0.025289013466251117,0.02880217035068251,0.011726326065843064,0.022025083834585502,0.006376904657786688
1.5052207523096413,0.027015644551186973,0.0331711117810307,0.014241445734319206,0.02216839662997829,0.008793505573759098
1.5052922694645678,0.028012475009877,0.03356193703530109,0.015961322224474977,0.020101706221713377,0.010941009033117548
1.5053637866194944,0.028596359216805502,0.028880427099175654,0.014919408532213189,0.016347755434574923,0.010784730530162793
1.505435303774421,0.02915112616185344,0.020871005898519517,0.013309044659559194,0.011155766943382965,0.010404087699628306
1.5055068209293476,0.029900153036102176,0.015100029278238501,0.012321918805932341,0.00700319827346147,0.01039284376923449
1.5055783380842742,0.030782681811496897,0.01357998099652729,0.01250866989698158,0.0047798538531348255,0.011083244293305402
1.5056498552392008,0.03146961942071043,0.015232215480980188,0.013496870470295333,0.006241258062625533,0.011711001539133672
1.5057213723941274,0.03149161794629547,0.016300804493084933,0.013134126432083434,0.00745071363579074,0.011081209111291514
1.505792889549054,0.030427310908792447,0.017122048164594627,0.011855838401314541,0.007804225125892808,0.009755857500301625
1.5058644067039806,0.02809465201809536,0.016466545002371887,0.009674998552531539,0.0065496892519248924,0.007919711309242303
1.5059359238589072,0.024683284499830333,0.014782035738373635,0.006168765257997816,0.005553020923773232,0.0047343859073755165
1.5060074410138338,0.020766913938386953,0.014504198331319804,0.003987129865862614,0.0066450069195727055,0.0023606889340974904
1.5060789581687604,0.017165658691511196,0.01693638665710373,0.004506773893992003,0.0062332831767784105,0.0029607780146468626
1.506150475323687,0.014695536880755058,0.020124653704968378,0.005603202541494299,0.00663931647082811,0.003935241746796529
1.5062219924786135,0.013907828977730352,0.022416603117973062,0.006474304461408025,0.007682915533895167,0.004544476543553779
1.5062935096335401,0.014929925183180436,0.02276191964631768,0.007024475314287043,0.008407268020798872,0.004914342957159294
1.5063650267884667,0.01746107614733839,0.021822639584849833,0.006681651925523114,0.00780307557877649,0.004718839852390373
1.5064365439433933,0.020900617081537138,0.023221564640296795,0.008103902228742074,0.00811352053343927,0.00603241260691719
1.50650806109832,0.024545654709518663,0.026964441407496646,0.01119024144466396,0.009305571638388617,0.008764422879548376
1.5065795782532465,0.027795889555703463,0.03306737022908524,0.015188716512202768,0.011014670179466805,0.012266461536761905
1.506651095408173,0.030315638754338018,0.041187646109207714,0.02020329875354711,0.01237470493336238,0.016838112695750983
1.5067226125630997,0.03210575674634778,0.048297078437937804,0.02516307524326057,0.013746300372726195,0.02135436613370383
1.5067941297180263,0.03344435853615213,0.05189344675646925,0.02809340030703321,0.01477525496045972,0.02397306812672916
1.5068656468729529,0.03469846610783441,0.0509678876463164,0.028836225363534616,0.015025496801867034,0.024639365813621
1.5069371640278795,0.03608805388876267,0.04890137683871004,0.029158238083419115,0.014791659499176005,0.02500635701627965
1.507008681182806,0.03753193323000867,0.04811772091486288,0.029645090979329304,0.015191826175762004,0.025389156451697207
1.5070801983377327,0.038657419159163646,0.04721398411488274,0.03000532215028713,0.01782058700522317,0.025140007007354945
1.5071517154926592,0.038950459296790155,0.04466911246547667,0.029635790998015537,0.018930348570049875,0.02452680447275673
1.5072232326475858,0.03795818995272562,0.03899085983645179,0.026170643808596194,0.018963171599206463,0.021144214950977347
1.5072947498025124,0.035465807062779846,0.032315776306554946,0.02167628316777021,0.018029336113323313,0.01698030148256145
1.507366266957439,0.03160750390290827,0.02711510942760935,0.01779655130545853,0.017494241074082494,0.013324316328174452
1.5074377841123656,0.02689036393457737,0.023097439174725867,0.014369878001425985,0.01883445571995437,0.009680980984284793
1.5075093012672922,0.022110982309926926,0.019671685463574923,0.012274203971852665,0.01987177349748066,0.007402983722405262
1.5075808184222188,0.018158898886019043,0.01774228611425515,0.010838451012952628,0.021688148042218067,0.005589344738123115
1.5076523355771454,0.015750547010193554,0.01649502899729554,0.009985828883372298,0.022687243492601063,0.00453046432579872
1.507723852732072,0.015198153002695225,0.014110917888288062,0.008495434228764531,0.02204007036739634,0.003227188497911997
1.5077953698869986,0.01632710132796861,0.011047952489929671,0.006411917338543193,0.019280457145936066,0.0018299001396318596
1.5078668870419252,0.01858159605132472,0.009177653825396478,0.00521914285473996,0.017057630993028868,0.0011772465180500756
1.5079384041968518,0.02125563485920751,0.008600338450107728,0.005152249488431391,0.016098564890681358,0.0013316084222437417
1.5080099213517784,0.023737553869918368,0.0090509291936681,0.0057615299185219465,0.015186188515836679,0.002133612818376541
1.508081438506705,0.025680396681245936,0.010753955657546643,0.007453924502377228,0.013422935216745601,0.004184821576769955
1.5081529556616315,0.027059576075294776,0.011118546062687838,0.008842952470356694,0.01044499202374767,0.006218501566142455
1.5082244728165581,0.028112039179855254,0.009341464123476223,0.008942296206187028,0.007247237415200978,0.007046815862611235
1.5082959899714847,0.029172386947160022,0.006419383984249193,0.008780907310022895,0.003755957830965109,0.007688485724803797
1.5083675071264113,0.03045818310099522,0.00589436934484549,0.010026451111954632,0.0021518124888617158,0.0092680403391665
1.508439024281338,0.03190386747651281,0.009832246807395313,0.012747040105629182,0.0030194474389461192,0.011718015144242441
1.5085105414362645,0.03314377564440417,0.01574649868943631,0.01600259242207933,0.005752662168407548,0.014262199538278671
1.508582058591191,0.03366149064758627,0.020454522164177976,0.0186299276568245,0.008128805120037752,0.01627678011795382
1.5086535757461177,0.03301661123576188,0.020903210128682306,0.017302793300784304,0.008455979965010255,0.014909859939226142
1.5087250929010443,0.031031763736761156,0.017806299559442,0.013978643770450466,0.00699667383656093,0.012007249085281854
1.5087966100559709,0.02787943173947238,0.013402712977414202,0.009773118861112214,0.0036601495911700727,0.008676320830675937
1.5088681272108975,0.024071143965329337,0.009934863748620265,0.005405399448016361,0.0015617244558451748,0.004904574104231657
1.508939644365824,0.020368522042175177,0.007268971245592044,0.002619426200917792,0.0016169835979968313,0.002179872025898152
1.5090111615207507,0.017622660517009992,0.005432976092229327,0.001280243020763253,0.0024962066771181735,0.0006750151537149378
1.5090826786756772,0.016549556574789192,0.004440690921033384,0.001094148915450876,0.004750005449576283,-2.192354559497089e-05
1.5091541958306038,0.01749078347259404,0.0039244749863975035,0.001728275756159572,0.006376643896144965,0.00022312606554133416
1.5092257129855304,0.02026609634215111,0.004001397915172615,0.002622344403247119,0.006177298613154671,0.0011391105515269942
1.509297230140457,0.024225306810832306,0.007487642103804813,0.005090188490138515,0.005448884100990268,0.0037082238029787907
1.5093687472953836,0.028505184243561566,0.015965411666906685,0.010396256019729185,0.007690945338970267,0.008360791771572593
1.5094402644503102,0.032363241212534366,0.02710410058332071,0.017181792517199104,0.011297863266213293,0.014142266954297836
1.5095117816052368,0.035420479974014,0.03859643853565253,0.023785576506019895,0.012788348213212623,0.020231809714480704
1.5095832987601634,0.03772295943106026,0.045699759449949785,0.028541189697550762,0.01262170438206375,0.024900872405939488
1.50965481591509,0.039632532833370364,0.04620478437057045,0.030196375009199177,0.010606813606868205,0.026972766357978108
1.5097263330700166,0.041605230836871475,0.040351245107171696,0.028415936049993602,0.0068143786297986675,0.02610524359686124
1.5097978502249432,0.04392716574129624,0.031854765506486464,0.026087173799228647,0.0022059395467895707,0.024891031559722
1.5098693673798698,0.04649881119729661,0.02655024854701129,0.025125670272120693,-0.0013471127469803662,0.024767313600476244
1.5099408845347964,0.048782229516577,0.025487692382088756,0.025898717163670308,0.0006535716574085518,0.025062432935068688
1.510012401689723,0.04998265464348263,0.026986970515613093,0.027970420605425636,0.005298858531103995,0.026017707974163626
1.5100839188446495,0.04939582665258717,0.027153381028574113,0.02744804663090382,0.008425079620049639,0.024794876685844187
1.5101554359995761,0.046726633743720845,0.025498169467922698,0.024915387052692306,0.00905680400875009,0.022184514292881846
1.5102269531545027,0.04221494386441091,0.023458387717918455,0.022036546886626967,0.008808873320687248,0.019438122877835147
1.5102984703094293,0.0365554045951188,0.023395389388791273,0.019143160662124768,0.010021599147477526,0.01634375171245207
1.510369987464356,0.030705701566729478,0.025676746616419836,0.01712115674686206,0.014292517137374219,0.013398567039556199
1.5104415046192825,0.025671938650474672,0.028969607020879085,0.016152578444133103,0.017508379650790995,0.011720178683199828
1.510513021774209,0.02230380117340663,0.0319330168948889,0.01595046449902194,0.021364519618008785,0.010641711765435099
1.5105845389291357,0.02110478427342222,0.031019310548820365,0.014310671393420193,0.024323101764201223,0.008368173355187265
1.5106560560840623,0.022087028251984653,0.026118928870673023,0.011927341615445858,0.024759119948403265,0.005947244739111383
1.5107275732389889,0.02474352062355467,0.018225629805233443,0.008315005741078718,0.022758568615263604,0.002887070337210695
1.5107990903939155,0.028206425428266402,0.012177978590856073,0.006455089330600415,0.021056043525643026,0.0014655733276234917
1.510870607548842,0.03156791810921427,0.009092378564959888,0.006924877381908108,0.020545829927895096,0.002039789863774562
1.5109421247037687,0.034217944840168574,0.008834405718197972,0.0085255112555674,0.019648673691357088,0.00380368001551845
1.5110136418586952,0.036025983655989566,0.01078050942409184,0.01161661354179527,0.017715866988815554,0.007255774232518105
1.5110851590136218,0.03729532439305516,0.010772331783736247,0.013294021431409462,0.015432740322800153,0.0094112959947127
1.5111566761685484,0.03854470610167679,0.008972329624296728,0.013163190298163863,0.012019513173772227,0.010064531847916218
1.511228193323475,0.04022460916569971,0.007641679874629459,0.013651672900344249,0.00783130618602826,0.0114980233488114
1.5112997104784016,0.04246467581659284,0.009155850471276135,0.01442102957265151,0.004632745269992335,0.012978626621017906
1.5113712276333282,0.04493429586497486,0.014433697989984801,0.016921655013448497,0.0051039965038999985,0.015305303733147237
1.5114427447882548,0.04689231770787431,0.020150668901241297,0.019784155718843215,0.007198714434877614,0.017613192559377315
1.5115142619431814,0.047454803887083834,0.022923922371626118,0.02007376929597759,0.008526405059263716,0.017591640230803365
1.511585779098108,0.04599085839647899,0.020986589658984603,0.017243949592298295,0.00779228359955946,0.015004329491382954
