freq,gls,usurper,pdc_unbiased,shape_periodogram,shift_periodogram
1.5,0.031605246424144244,0.02803066955424232,0.022003088454338578,0.016879239072142477,0.009598897387403774
1.5000715171549266,0.028595336453250155,0.021465563617776212,0.01679692217781675,0.011776917312584241,0.007917667075977339
1.5001430343098532,0.024797888546036324,0.01577228313397214,0.011419584810450916,0.007608590366476137,0.005594585461929285
1.5002145514647798,0.020789812632417533,0.01382597156843725,0.008796510756732951,0.003271675154019203,0.0056915291278596646
1.5002860686197064,0.017345459787468324,0.016041491695443402,0.009479677332466734,0.00046550137935248427,0.007767246964620465
1.500357585774633,0.015271945925960987,0.020000243111011895,0.011714688134418397,-0.00028314794841181683,0.010056817387871862
1.5004291029295596,0.015165201318802408,0.024598339684492005,0.01415548030345099,0.0014488640459917024,0.01119630731273584
1.5005006200844861,0.01716595655706576,0.029099613334025536,0.016954003693511403,0.0029563411915336344,0.01275838617466724
1.5005721372394127,0.02086274426290797,0.032763186746727714,0.019187221778694714,0.005216096739557304,0.013441148246282703
1.5006436543943393,0.02544081002802935,0.03608369575264642,0.02137618975240262,0.007788179849334201,0.013920119708333562
1.500715171549266,0.03000884122307953,0.03982251608992761,0.02421994995090846,0.009528191054619791,0.015397413635284945
1.5007866887041925,0.03391266896856934,0.04386759816361436,0.02666061786266369,0.014272147574149591,0.014931434943643962
1.500858205859119,0.0368882624749449,0.048277488922442935,0.029368029530911475,0.020436422295777162,0.013934137138354235
1.5009297230140457,0.0390355018056212,0.05311892412264409,0.03287087235373193,0.028162393129491054,0.012778046473130892
1.5010012401689723,0.04067274274449097,0.05498642099368535,0.0349635290275476,0.0344348656946849,0.011203745500559194
1.5010727573238989,0.04213722341942038,0.055447277570676946,0.036798409825528795,0.039215087570028756,0.010207566750606818
1.5011442744788255,0.043587855733941964,0.05573584186775069,0.03793328428010061,0.04291720930484418,0.00919346073399839
1.501215791633752,0.044880915226329254,0.05565549764689888,0.03824814004694497,0.045420133784280586,0.008124044990357484
1.5012873087886787,0.045592465454410994,0.05666062016603846,0.03896037083855539,0.04657289343325866,0.008112613408786296
1.5013588259436053,0.04519857422015515,0.056022809411642234,0.038338310339186395,0.04526937891543972,0.008281031889518594
1.5014303430985318,0.04331902735671992,0.05236116184339497,0.03525172960142179,0.044307996421845686,0.006176833288582598
1.5015018602534584,0.03989064242203222,0.04470374050829676,0.029380562295107576,0.04130740670428639,0.0028029829668516906
1.501573377408385,0.035207008956161204,0.03591510741006116,0.02275340008029923,0.03844905903438057,-0.0012837482271994911
1.5016448945633116,0.029854908046904056,0.028059272369556763,0.01716592382272006,0.03280275297322196,-0.002997346106056931
1.5017164117182382,0.02460404968418353,0.02144328873964797,0.01272729457488559,0.02621496888803581,-0.0032341561492629576
1.5017879288731648,0.020274028275387688,0.017515051395891077,0.010756457121333964,0.020527432954320204,-0.0018638007157512416
1.5018594460280914,0.01756978332877583,0.015431925050088734,0.009814843547662735,0.01727053167712574,-0.000921073461560848
1.501930963183018,0.016887968997375314,0.014925940816631924,0.009773529530205848,0.01461153044334411,0.0004637604856660746
1.5020024803379446,0.018154766828972088,0.014294795449574266,0.009545857603491862,0.012546867263483566,0.001373561668615892
1.5020739974928712,0.020807783027131654,0.014964493629890824,0.00997328939183271,0.011366362336042867,0.0023653194526116125
1.5021455146477978,0.023992628107040868,0.017312887287135682,0.01144212206274167,0.01081771857509033,0.003900482476742997
1.5022170318027244,0.026898257150269028,0.021471092156608522,0.014028974316248104,0.012713396509347196,0.005076439842271205
1.502288548957651,0.029041972437567,0.0258066747274938,0.016679671046279716,0.01543645624059897,0.0058650269615393566
1.5023600661125776,0.03036170293294545,0.030613777756690483,0.019990738498687276,0.01953438520944489,0.006478853873150566
1.5024315832675041,0.031115659296329378,0.0312912091492347,0.02077896981185265,0.022905963285490508,0.005345976766185936
1.5025031004224307,0.031680428730509906,0.028614225833245438,0.019519808615351825,0.025785651078341458,0.002742800054269393
1.5025746175773573,0.032340192227813126,0.025399338124793478,0.018649627815208736,0.025893903223468708,0.0019485615786838592
1.502646134732284,0.033131945974426154,0.023308154557967312,0.017871043624403338,0.024631307836578038,0.0019639080732383085
1.5027176518872105,0.033797027787609374,0.02312280174466832,0.01799769758677829,0.0233012776898999,0.0027812814286861044
1.502789169042137,0.033871437590867574,0.022109272135490212,0.017486670760106647,0.020527051542938594,0.003830109919564462
1.5028606861970637,0.03289397904446062,0.019088076189213488,0.015274482970942199,0.018215018388547992,0.0031928982233975253
1.5029322033519903,0.030638444170610023,0.015416633002082802,0.012011118949132128,0.016166245291293905,0.0015262338852461877
1.5030037205069169,0.02725242384486997,0.013357650803590169,0.009441040885373031,0.014676881751908847,0.00014765897416493988
1.5030752376618435,0.023245599290448483,0.014375196617193992,0.008606550278537486,0.012764079812182982,0.00046318769370990646
1.50314675481677,0.019358366958489085,0.017150116544431385,0.008953985446160287,0.011207400689927904,0.0015881381742627852
1.5032182719716967,0.01638051368297583,0.02084265924047577,0.010426555451109277,0.00986364517688772,0.0035509171521718804
1.5032897891266233,0.01497089818834955,0.024479420407090818,0.012350463029946239,0.00974786354080103,0.005239855030399013
1.5033613062815498,0.015499460648454992,0.02743805950691363,0.013981854206916533,0.00936609091735684,0.006823438362663026
1.5034328234364764,0.01793079665045714,0.02790953838246384,0.01416864675154985,0.007565257283509089,0.00794269405209211
1.503504340591403,0.021792554285279486,0.027531752667970793,0.013806564009865633,0.0058037894144728815,0.008576704943588854
1.5035758577463296,0.026283745634476982,0.03011269955957493,0.015751292513310384,0.006538723349188118,0.00982917065254923
1.5036473749012562,0.03053094650102892,0.03511878401006269,0.019003856556851165,0.010654619543463691,0.01038356266335965
1.5037188920561828,0.03389868374654469,0.04164417958431955,0.02304438568669538,0.016994071733685612,0.0104187549035388
1.5037904092111094,0.03619247413189749,0.049803943024320195,0.02836367437687625,0.024173438499731994,0.011089716698484858
1.503861926366036,0.03764566473947448,0.05599614804658644,0.03246316988130233,0.030660381324334712,0.011099641790787419
1.5039334435209626,0.038716510453014726,0.05884827945114685,0.03408384953452373,0.03830296270424063,0.00839341612778164
1.5040049606758892,0.0398171228344044,0.06033018204681553,0.03557140334761458,0.04363368583668227,0.00680802451876224
1.5040764778308158,0.041095739566223526,0.0634865736152361,0.037525773851031737,0.04761654448612431,0.00633825053303582
1.5041479949857424,0.04234364882306056,0.06646925984204309,0.038887791087543686,0.05100550146989275,0.0056833945164173165
1.504219512140669,0.043051695709888996,0.06773098551288793,0.03921573232033744,0.05396419307042026,0.004380775080298238
1.5042910292955955,0.04260283060723393,0.0635679655410065,0.036347749549566495,0.05562682707968018,0.0010581678719522607
1.5043625464505221,0.04053910287302065,0.05358253503084915,0.030363706364527798,0.05401103603958717,-0.003153770489430316
1.5044340636054487,0.03679439695722014,0.041349066205694916,0.02344001313236871,0.04925504339671242,-0.006478582516339949
1.5045055807603753,0.03178229372791513,0.030724277780694035,0.01698689592080203,0.0439932993690475,-0.009130053426220098
1.504577097915302,0.026296542555493532,0.02338686086928051,0.012446934359831944,0.03826955328798128,-0.009912648811269131
1.5046486150702285,0.021278189004975218,0.02063312615875384,0.011187449324425095,0.03231762278392025,-0.007797291089121079
1.504720132225155,0.017555651134353225,0.019792579909052865,0.011283372248322305,0.02806949837784226,-0.005446410157811171
1.5047916493800817,0.01564621916050789,0.018578942898607214,0.010644076718018416,0.025007605018263643,-0.00435164340005299
1.5048631665350083,0.015656872938766518,0.01635953101614965,0.009217644422453899,0.02164176567531076,-0.0037605392118537323
1.5049346836899349,0.017286051262519187,0.014982397379802649,0.008230188330603324,0.018119396728132436,-0.002714649824578312
1.5050062008448615,0.019918755698584013,0.014836775808530909,0.007905738300784866,0.014540353911914099,-0.00107791914618509
1.505077717999788,0.022804926807040774,0.016903451073589468,0.009361654152707073,0.011900918744415928,0.0015626461538385174
1.5051492351547147,0.025289013466251117,0.021344118964170322,0.011726326065843064,0.014617635771886097,0.0021121673819025403
1.5052207523096413,0.027015644551186973,0.025938141562386406,0.014241445734319206,0.017910453966049088,0.0024815946989423876
1.5052922694645678,0.028012475009877,0.02827850250778054,0.015961322224474977,0.019033721030945017,0.003336859016529283
1.5053637866194944,0.028596359216805502,0.025429893827667728,0.014919408532213189,0.018813086074619966,0.0025731959916952913
1.505435303774421,0.02915112616185344,0.01987140201898649,0.013309044659559194,0.01663193080822053,0.0023754771774291317
1.5055068209293476,0.029900153036102176,0.016168453196539423,0.012321918805932341,0.014655695359371723,0.0025956162459805686
1.5055783380842742,0.030782681811496897,0.015814246242597627,0.01250866989698158,0.01375033655893085,0.003236933600849426
1.5056498552392008,0.03146961942071043,0.017930699938127886,0.013496870470295333,0.014597397087847384,0.0036205739363571435
1.5057213723941274,0.03149161794629547,0.018878948664616074,0.013134126432083434,0.016215323558394414,0.0024499453425738072
1.505792889549054,0.030427310908792447,0.018197567860009235,0.011855838401314541,0.018551360862495887,0.00012136580814611492
1.5058644067039806,0.02809465201809536,0.016206769461553604,0.009674998552531539,0.019879786804969515,-0.002432701919241904
1.5059359238589072,0.024683284499830333,0.01274849672184284,0.006168765257997816,0.019880666237622382,-0.005398702674928236
1.5060074410138338,0.020766913938386953,0.010653857730915567,0.003987129865862614,0.018326800642892355,-0.006413860201506446
1.5060789581687604,0.017165658691511196,0.011807200862237063,0.004506773893992003,0.015899430967263366,-0.0046781299052782235
1.506150475323687,0.014695536880755058,0.014038828421809169,0.005603202541494299,0.01473384814648455,-0.0031285007981105605
1.5062219924786135,0.013907828977730352,0.015848136783988425,0.006474304461408025,0.013489021971236487,-0.0017271341519186677
1.5062935096335401,0.014929925183180436,0.016207899266846015,0.007024475314287043,0.010770457734540948,0.00018965152042901774
1.5063650267884667,0.01746107614733839,0.015331056055981085,0.006681651925523114,0.009427837410033162,0.0006165667851161286
1.5064365439433933,0.020900617081537138,0.01691364800030378,0.008103902228742074,0.00794427184221191,0.0026113558766837613
1.50650806109832,0.024545654709518663,0.020978302681365336,0.01119024144466396,0.005877542815524983,0.006324703581678569
1.5065795782532465,0.027795889555703463,0.02773930651035669,0.015188716512202768,0.007696622001711322,0.00873531960171017
1.506651095408173,0.030315638754338018,0.03647277671214404,0.02020329875354711,0.011667830409960746,0.010857485917586179
1.5067226125630997,0.03210575674634778,0.04515825145004188,0.02516307524326057,0.017182885815132984,0.012110955542939901
1.5067941297180263,0.03344435853615213,0.05015232957460873,0.02809340030703321,0.02297693502945095,0.011499415575968676
1.5068656468729529,0.03469846610783441,0.05061120618150919,0.028836225363534616,0.026874434275176513,0.010048335191465687
1.5069371640278795,0.03608805388876267,0.0497837655458828,0.029158238083419115,0.029555509083450268,0.008889999954320094
1.507008681182806,0.03753193323000867,0.0498026617005396,0.029645090979329304,0.032146377662418374,0.007919298753014137
1.5070801983377327,0.038657419159163646,0.05008168309864059,0.03000532215028713,0.034094345451886464,0.007184469910273603
1.5071517154926592,0.038950459296790155,0.049115335629929854,0.029635790998015537,0.03482028588752126,0.006483831050885864
1.5072232326475858,0.03795818995272562,0.043908994598871764,0.026170643808596194,0.03585615567525652,0.002995496971487447
1.5072947498025124,0.035465807062779846,0.03730275085081971,0.02167628316777021,0.036356973487951284,-0.0010780330990900315
1.507366266957439,0.03160750390290827,0.03188552452895623,0.01779655130545853,0.03595723979104563,-0.004149031172362069
1.5074377841123656,0.02689036393457737,0.027301140966370832,0.014369878001425985,0.03469338482866361,-0.0063739341949433925
1.5075093012672922,0.022110982309926926,0.023313105013974187,0.012274203971852665,0.03177372421812601,-0.006587155140330949
1.5075808184222188,0.018158898886019043,0.02052726246866295,0.010838451012952628,0.029966790858828918,-0.00683645782251581
1.5076523355771454,0.015750547010193554,0.01873722723012693,0.009985828883372298,0.028333312870478147,-0.006685062484618979
1.507723852732072,0.015198153002695225,0.015658193976326347,0.008495434228764531,0.024695925202797012,-0.006002705008380207
1.5077953698869986,0.01632710132796861,0.011745559704812853,0.006411917338543193,0.019823894451414924,-0.00516273877167912
1.5078668870419252,0.01858159605132472,0.009067923144728192,0.00521914285473996,0.014419667049917028,-0.0032855255670651215
1.5079384041968518,0.02125563485920751,0.007628031487929897,0.005152249488431391,0.008494872395168773,-0.00017864689076921742
1.5080099213517784,0.023737553869918368,0.007697172933699588,0.0057615299185219465,0.004544757569792359,0.00244546908453855
1.508081438506705,0.025680396681245936,0.009845586170544995,0.007453924502377228,0.0019127562075294485,0.005281674950336666
1.5081529556616315,0.027059576075294776,0.01185204035960463,0.008842952470356694,0.0006988995772646148,0.00710423910584905
1.5082244728165581,0.028112039179855254,0.011318443285032261,0.008942296206187028,-0.0004728990486097735,0.007813789267370742
1.5082959899714847,0.029172386947160022,0.009493226595262172,0.008780907310022895,-0.0005754080318995101,0.007732044347513519
1.5083675071264113,0.03045818310099522,0.009709549201633609,0.010026451111954632,0.00015485362578866708,0.008395429461017003
1.508439024281338,0.03190386747651281,0.01362043605933178,0.012747040105629182,0.0014628783072777336,0.009997781304275831
1.5085105414362645,0.03314377564440417,0.019223175609079178,0.01600259242207933,0.0043491860063792605,0.011210355520823794
1.508582058591191,0.03366149064758627,0.02388896448273581,0.0186299276568245,0.007040890458739574,0.011995915240698115
1.5086535757461177,0.03301661123576188,0.023502259284717216,0.017302793300784304,0.009205140929821536,0.009718268751783977
1.5087250929010443,0.031031763736761156,0.019482003345316398,0.013978643770450466,0.010535957861413647,0.00619623958923233
1.5087966100559709,0.02787943173947238,0.014367612823951633,0.009773118861112214,0.010618698788241046,0.002595191959846836
1.5088681272108975,0.024071143965329337,0.009558546061023993,0.005405399448016361,0.010644438051141908,-0.0011122490529785853
1.508939644365824,0.020368522042175177,0.0058123855013898895,0.002619426200917792,0.008466363461424672,-0.0023052024680500056
1.5090111615207507,0.017622660517009992,0.003974655986203858,0.001280243020763253,0.007107811287843045,-0.0027122487376457912
1.5090826786756772,0.016549556574789192,0.0033032961345516006,0.001094148915450876,0.007606755435303281,-0.003135995702714987
1.5091541958306038,0.01749078347259404,0.0033593414513042913,0.001728275756159572,0.006865121655830754,-0.0022038296483079915
1.5092257129855304,0.02026609634215111,0.004076891423417225,0.002622344403247119,0.004327899193359332,-9.321839873725533e-05
1.509297230140457,0.024225306810832306,0.007621732664950098,0.005090188490138515,0.0016778714135099078,0.0034083226857947926
1.5093687472953836,0.028505184243561566,0.015428753775592713,0.010396256019729185,1.7743802877153798e-05,0.008781328154239999
1.5094402644503102,0.032363241212534366,0.025998325226711208,0.017181792517199104,0.0005249129701510259,0.01424870718686036
1.5095117816052368,0.035420479974014,0.037412146389141435,0.023785576506019895,0.0032393553633499033,0.018385401708404293
1.5095832987601634,0.03772295943106026,0.04583838541237911,0.028541189697550762,0.0062963386535817255,0.020777581532007885
1.50965481591509,0.039632532833370364,0.048250534182282964,0.030196375009199177,0.00852333614896021,0.020990217583317008
1.5097263330700166,0.041605230836871475,0.0439640399956247,0.028415936049993602,0.009148053600487805,0.019150434423697814
1.5097978502249432,0.04392716574129624,0.03747583360755598,0.026087173799228647,0.00719564836865557,0.018221633938868182
1.5098693673798698,0.04649881119729661,0.033928602376595625,0.025125670272120693,0.0050938408177567665,0.01852954843730988
1.5099408845347964,0.048782229516577,0.03436917196586962,0.025898717163670308,0.005608956379983215,0.018908693268934542
1.510012401689723,0.04998265464348263,0.03730387384923586,0.027970420605425636,0.0073871951762820446,0.0197127784052405
1.5100839188446495,0.04939582665258717,0.03754559566480002,0.02744804663090382,0.009692885352136357,0.01804081410952236
1.5101554359995761,0.046726633743720845,0.03479887304071409,0.024915387052692306,0.011617078107655604,0.014871252310051685
1.5102269531545027,0.04221494386441091,0.03176334399771979,0.022036546886626967,0.0135639107854436,0.011396577642930108
1.5102984703094293,0.0365554045951188,0.029738606553289994,0.019143160662124768,0.015694539298575748,0.0078114017951254585
1.510369987464356,0.030705701566729478,0.02909192299930506,0.01712115674686206,0.0176434896150305,0.005060325141902894
1.5104415046192825,0.025671938650474672,0.029581614241914495,0.016152578444133103,0.019095837935188528,0.0034655025487983437
1.510513021774209,0.02230380117340663,0.030576143772105026,0.01595046449902194,0.0210379494504403,0.0022575663114217273
1.5105845389291357,0.02110478427342222,0.028795753826396178,0.014310671393420193,0.021535632132113403,0.0006044887324585932
1.5106560560840623,0.022087028251984653,0.02398115549470001,0.011927341615445858,0.018468167325976288,0.0002262719542585721
1.5107275732389889,0.02474352062355467,0.01642561936202848,0.008315005741078718,0.012828770143524015,0.0001820830988533551
1.5107990903939155,0.028206425428266402,0.010909895653947574,0.006455089330600415,0.006088072285684389,0.002208022098964118
1.510870607548842,0.03156791810921427,0.008652559771044054,0.006924877381908108,0.00019996481926149443,0.00574869204267137
1.5109421247037687,0.034217944840168574,0.00926784547795013,0.0085255112555674,-0.003514619433645916,0.009085162726397781
1.5110136418586952,0.036025983655989566,0.012770599405104877,0.01161661354179527,-0.004967962624180171,0.012474689992783478
1.5110851590136218,0.03729532439305516,0.014564127648142315,0.013294021431409462,-0.0048856379195024386,0.013849073009179305
1.5111566761685484,0.03854470610167679,0.013472155020274433,0.013163190298163863,-0.003892634651711427,0.013208385046108065
1.511228193323475,0.04022460916569971,0.012492340925705999,0.013651672900344249,-0.004444223456252032,0.01391586210071806
1.5112997104784016,0.04246467581659284,0.01351369592379277,0.01442102957265151,-0.004371267431375306,0.014527458180354806
1.5113712276333282,0.04493429586497486,0.018365153681461698,0.016921655013448497,-0.0033170766359028703,0.01607926253486766
1.5114427447882548,0.04689231770787431,0.023990428502714066,0.019784155718843215,-0.0016827994499508797,0.01762767543090573
1.5115142619431814,0.047454803887083834,0.026138958086585694,0.02007376929597759,0.0009413806725731339,0.016472198028425367
