freq,gls,usurper,pdc_unbiased,shape_periodogram,shift_periodogram
1.5,0.031605246424144244,0.03060551083957173,0.022003088454338578,0.048034466381368254,-0.023314676525271624
1.5000715171549266,0.028595336453250155,0.024108272627542587,0.01679692217781675,0.03977382892563042,-0.020200646586044747
1.5001430343098532,0.024797888546036324,0.018493106924639333,0.011419584810450916,0.033702869932060675,-0.018894523780728232
1.5002145514647798,0.020789812632417533,0.01669436115494263,0.008796510756732951,0.029561120513429552,-0.017342582636874795
1.5002860686197064,0.017345459787468324,0.019205925822658673,0.009479677332466734,0.028951097409462646,-0.016437650896293565
1.500357585774633,0.015271945925960987,0.023628930319342743,0.011714688134418397,0.030118905473545246,-0.015929301380107883
1.5004291029295596,0.015165201318802408,0.02863868948217378,0.01415548030345099,0.03482321036221702,-0.01803258517368644
1.5005006200844861,0.01716595655706576,0.03329278301020039,0.016954003693511403,0.0382961051780005,-0.018955148707678424
1.5005721372394127,0.02086274426290797,0.03676832296368725,0.019187221778694714,0.041988612003327125,-0.020406020269355212
1.5006436543943393,0.02544081002802935,0.03984118677441027,0.02137618975240262,0.04617411335290295,-0.022267857862144698
1.500715171549266,0.03000884122307953,0.04309521594674803,0.02421994995090846,0.04955048810739235,-0.023087766665054896
1.5007866887041925,0.03391266896856934,0.0467539882771431,0.02666061786266369,0.05661320252434425,-0.027025497817345978
1.500858205859119,0.0368882624749449,0.05083776330674839,0.029368029530911475,0.06518379968303627,-0.031969074983832224
1.5009297230140457,0.0390355018056212,0.05537892576325192,0.03287087235373193,0.0753734050754054,-0.03767327483112128
1.5010012401689723,0.04067274274449097,0.05688052855003222,0.0349635290275476,0.08276935555600737,-0.04210391351809737
1.5010727573238989,0.04213722341942038,0.057128785961664846,0.036798409825528795,0.08745273411728088,-0.04458886634124259
1.5011442744788255,0.043587855733941964,0.0572059624642091,0.03793328428010061,0.09219022923239815,-0.047562025067245925
1.501215791633752,0.044880915226329254,0.056920379911844884,0.03824814004694497,0.09612912006942373,-0.050434573501193715
1.5012873087886787,0.045592465454410994,0.057821313994455094,0.03896037083855539,0.10056799056482267,-0.053447129326146134
1.5013588259436053,0.04519857422015515,0.05696310268628153,0.038338310339186395,0.10091392842804629,-0.05411175500321725
1.5014303430985318,0.04331902735671992,0.053264307609940005,0.03525172960142179,0.09834384853347948,-0.054062592631251384
1.5015018602534584,0.03989064242203222,0.045636201119500966,0.029380562295107576,0.09168136158772257,-0.05258546343103075
1.501573377408385,0.035207008956161204,0.03681675390880953,0.02275340008029923,0.08343393891235155,-0.0503543026459762
1.5016448945633116,0.029854908046904056,0.028858202574985684,0.01716592382272006,0.0737087528945445,-0.046320344534548384
1.5017164117182382,0.02460404968418353,0.022348456659260104,0.01272729457488559,0.06388609365552399,-0.04149139455218347
1.5017879288731648,0.020274028275387688,0.018657688054227742,0.010756457121333964,0.05518479225699688,-0.03597969686747877
1.5018594460280914,0.01756978332877583,0.017018726333859747,0.009814843547662735,0.04952953069047648,-0.032185507078702894
1.501930963183018,0.016887968997375314,0.016913415971210946,0.009773529530205848,0.044009084694905415,-0.02792839930084823
1.5020024803379446,0.018154766828972088,0.016468797987147503,0.009545857603491862,0.03978723557343334,-0.02479765775485185
1.5020739974928712,0.020807783027131654,0.017331332207971426,0.00997328939183271,0.03728974275288784,-0.02259051294189454
1.5021455146477978,0.023992628107040868,0.019971664044418976,0.01144212206274167,0.03747118418771652,-0.021802269019609823
1.5022170318027244,0.026898257150269028,0.024333655769863228,0.014028974316248104,0.04116764940082761,-0.02303291647735495
1.502288548957651,0.029041972437567,0.028749505462128677,0.016679671046279716,0.04632635610566806,-0.025358133465728152
1.5023600661125776,0.03036170293294545,0.03340632286721248,0.019990738498687276,0.052086571732646254,-0.027733525726434432
1.5024315832675041,0.031115659296329378,0.033831568288997915,0.02077896981185265,0.05576988735174235,-0.0300943885353006
1.5025031004224307,0.031680428730509906,0.031131249335396863,0.019519808615351825,0.056726016501247714,-0.03163370543839335
1.5025746175773573,0.032340192227813126,0.027882829419876312,0.018649627815208736,0.05530520585534733,-0.031081045543340336
1.502646134732284,0.033131945974426154,0.02560514363247923,0.017871043624403338,0.053091505915172546,-0.02985497093845404
1.5027176518872105,0.033797027787609374,0.0253261086364064,0.01799769758677829,0.05303472423653131,-0.029730754789542995
1.502789169042137,0.033871437590867574,0.024166651057171588,0.017486670760106647,0.05185541815782104,-0.029138606259033764
1.5028606861970637,0.03289397904446062,0.02105698247508424,0.015274482970942199,0.048751518859528255,-0.028129021343811313
1.5029322033519903,0.030638444170610023,0.017425478242321706,0.012011118949132128,0.04546666063877039,-0.027644204830800517
1.5030037205069169,0.02725242384486997,0.015400267050687706,0.009441040885373031,0.04336155187097657,-0.027636322457379278
1.5030752376618435,0.023245599290448483,0.016573220874658998,0.008606550278537486,0.04313500921158748,-0.027988232431403207
1.50314675481677,0.019358366958489085,0.01963013592753346,0.008953985446160287,0.04363447423116706,-0.028155997707046767
1.5032182719716967,0.01638051368297583,0.023623879166428864,0.010426555451109277,0.04429440001757639,-0.02773680572189423
1.5032897891266233,0.01497089818834955,0.02756321805444038,0.012350463029946239,0.04461389570568306,-0.026767989703261896
1.5033613062815498,0.015499460648454992,0.030615606022267594,0.013981854206916533,0.04420121096371662,-0.02541597167907371
1.5034328234364764,0.01793079665045714,0.030894622532781864,0.01416864675154985,0.041785024121243866,-0.023423449625119958
1.503504340591403,0.021792554285279486,0.03028778564452301,0.013806564009865633,0.03942924476260864,-0.021825252844399262
1.5035758577463296,0.026283745634476982,0.032902148806567416,0.015751292513310384,0.04017314836549951,-0.02117194694222335
1.5036473749012562,0.03053094650102892,0.03795454757971979,0.019003856556851165,0.04578319125122223,-0.023466012674034337
1.5037188920561828,0.03389868374654469,0.04457968913886872,0.02304438568669538,0.056001353847496806,-0.028840173209022116
1.5037904092111094,0.03619247413189749,0.05252480147214419,0.02836367437687625,0.06738479744021976,-0.034316190367696994
1.503861926366036,0.03764566473947448,0.05834510129751561,0.03246316988130233,0.07812677270434565,-0.0400743659938125
1.5039334435209626,0.038716510453014726,0.06097546322392559,0.03408384953452373,0.08681973141418824,-0.045816708146763974
1.5040049606758892,0.0398171228344044,0.06232733177986319,0.03557140334761458,0.09326372096602543,-0.04989684749400342
1.5040764778308158,0.041095739566223526,0.06541128079520785,0.037525773851031737,0.09875495981699822,-0.05294173625632114
1.5041479949857424,0.04234364882306056,0.06847998950401427,0.038887791087543686,0.1038784587960735,-0.056078301226747826
1.504219512140669,0.043051695709888996,0.06979602279983595,0.03921573232033744,0.10735250096340876,-0.05858458445582957
1.5042910292955955,0.04260283060723393,0.06533512941418575,0.036347749549566495,0.1056586854650618,-0.059079457100472334
1.5043625464505221,0.04053910287302065,0.055098650321110436,0.030363706364527798,0.09812224293381881,-0.056986310064999206
1.5044340636054487,0.03679439695722014,0.04236756692782793,0.02344001313236871,0.0861379714458471,-0.05202577158770224
1.5045055807603753,0.03178229372791513,0.031225036995436495,0.01698689592080203,0.07506217024828307,-0.04748618934133911
1.504577097915302,0.026296542555493532,0.023685377243377673,0.012446934359831944,0.06521928958090221,-0.04270446050164685
1.5046486150702285,0.021278189004975218,0.02108423861768411,0.011187449324425095,0.057617369760894106,-0.03759592246797343
1.504720132225155,0.017555651134353225,0.02054998261711234,0.011283372248322305,0.051460001274403304,-0.03275520913777751
1.5047916493800817,0.01564621916050789,0.01973118726413395,0.010644076718018416,0.046451753530153184,-0.029272990899713185
1.5048631665350083,0.015656872938766518,0.01788856307003611,0.009217644422453899,0.04065532020385445,-0.025678472190524347
1.5049346836899349,0.017286051262519187,0.016650344157726347,0.008230188330603324,0.036059235764234074,-0.022738625523853657
1.5050062008448615,0.019918755698584013,0.01673538981512998,0.007905738300784866,0.03264934368810168,-0.020299974629357086
1.505077717999788,0.022804926807040774,0.01907098919595057,0.009361654152707073,0.030822097998189472,-0.01796268369164168
1.5051492351547147,0.025289013466251117,0.023761737246685646,0.011726326065843064,0.03526316021608521,-0.019910313307841106
1.5052207523096413,0.027015644551186973,0.028321492018574212,0.014241445734319206,0.04072481631864673,-0.0225550234155466
1.5052922694645678,0.028012475009877,0.030501856091721232,0.015961322224474977,0.04385773764809861,-0.023897279594756224
1.5053637866194944,0.028596359216805502,0.027241359073001084,0.014919408532213189,0.04284047744813234,-0.02376726271894688
1.505435303774421,0.02915112616185344,0.021223644665521405,0.013309044659559194,0.039264243611671336,-0.022011993732847634
1.5055068209293476,0.029900153036102176,0.017157769038479865,0.012321918805932341,0.0362477237867023,-0.02029704605682034
1.5055783380842742,0.030782681811496897,0.0166736693672528,0.01250866989698158,0.03580071412861804,-0.019832292606867523
1.5056498552392008,0.03146961942071043,0.01891328676563464,0.013496870470295333,0.03909353196348395,-0.02176078346833754
1.5057213723941274,0.03149161794629547,0.019917503238605826,0.013134126432083434,0.04266562263060622,-0.02476092325783722
1.505792889549054,0.030427310908792447,0.019359583997731897,0.011855838401314541,0.0441527459103842,-0.02672305038737626
1.5058644067039806,0.02809465201809536,0.017190230705221268,0.009674998552531539,0.04322516101461122,-0.027382586158204374
1.5059359238589072,0.024683284499830333,0.013445768824710535,0.006168765257997816,0.041462183792007175,-0.028231943990708934
1.5060074410138338,0.020766913938386953,0.011146056345077662,0.003987129865862614,0.039514486587093965,-0.02810055451038688
1.5060789581687604,0.017165658691511196,0.012222576414854537,0.004506773893992003,0.03762960068651889,-0.026310441298240436
1.506150475323687,0.014695536880755058,0.014658038438791631,0.005603202541494299,0.03648161929888886,-0.024727138538900715
1.5062219924786135,0.013907828977730352,0.016765179023732986,0.006474304461408025,0.03467995020673489,-0.0227794397332472
1.5062935096335401,0.014929925183180436,0.01724721525682626,0.007024475314287043,0.030550414005519937,-0.019230078664521387
1.5063650267884667,0.01746107614733839,0.01636992206159487,0.006681651925523114,0.02706243039291219,-0.016743180613050825
1.5064365439433933,0.020900617081537138,0.018014316532694735,0.008103902228742074,0.025538890729892866,-0.014662906428241793
1.50650806109832,0.024545654709518663,0.022054472172246063,0.01119024144466396,0.025848835500917374,-0.012951109295864367
1.5065795782532465,0.027795889555703463,0.028754431290105693,0.015188716512202768,0.032726469857605654,-0.015753180338206427
1.506651095408173,0.030315638754338018,0.03745816491215002,0.02020329875354711,0.04247404751757947,-0.020139522699893955
1.5067226125630997,0.03210575674634778,0.04604015061582132,0.02516307524326057,0.053018350560095594,-0.025182535499501356
1.5067941297180263,0.03344435853615213,0.05094768114176825,0.02809340030703321,0.06063461860799984,-0.02924158442557282
1.5068656468729529,0.03469846610783441,0.05139710073488523,0.028836225363534616,0.06383294203358866,-0.031256133246089
1.5069371640278795,0.03608805388876267,0.050580987984765055,0.029158238083419115,0.06444381395055769,-0.031526869258821096
1.507008681182806,0.03753193323000867,0.05051963061104814,0.029645090979329304,0.06584079337381074,-0.03230419120924958
1.5070801983377327,0.038657419159163646,0.05084608274222166,0.03000532215028713,0.06662962007556006,-0.032689117986026264
1.5071517154926592,0.038950459296790155,0.04976767599376608,0.029635790998015537,0.06531780113965059,-0.031903581663298264
1.5072232326475858,0.03795818995272562,0.04437396026450083,0.026170643808596194,0.061024939967561156,-0.0307626466358301
1.5072947498025124,0.035465807062779846,0.0375673229104905,0.02167628316777021,0.05469391245103157,-0.028690974834958846
1.507366266957439,0.03160750390290827,0.031931357343870044,0.01779655130545853,0.04912794331108724,-0.026825549992503625
1.5074377841123656,0.02689036393457737,0.02718732905075111,0.014369878001425985,0.04528632629152627,-0.02601239968413414
1.5075093012672922,0.022110982309926926,0.023205883308071835,0.012274203971852665,0.04093848640927856,-0.023965109037432927
1.5075808184222188,0.018158898886019043,0.020770231517022352,0.010838451012952628,0.03847297216043154,-0.022960955442760514
1.5076523355771454,0.015750547010193554,0.019338179232611837,0.009985828883372298,0.035512862883388105,-0.02120473290328921
1.507723852732072,0.015198153002695225,0.01644400666131301,0.008495434228764531,0.02959193714519317,-0.01755687625175963
1.5077953698869986,0.01632710132796861,0.012528940241571297,0.006411917338543193,0.02269333084293757,-0.013527574633308344
1.5078668870419252,0.01858159605132472,0.009695637457398274,0.00521914285473996,0.016408616205100767,-0.009411844636056455
1.5079384041968518,0.02125563485920751,0.008140923004646927,0.005152249488431391,0.010621476085061863,-0.00497034502678892
1.5080099213517784,0.023737553869918368,0.008163914086549297,0.0057615299185219465,0.008352016980866133,-0.0028268139214452574
1.508081438506705,0.025680396681245936,0.010053639141387566,0.007453924502377228,0.009525190221115828,-0.0026654035384559896
1.5081529556616315,0.027059576075294776,0.011675968882516851,0.008842952470356694,0.01198860611726404,-0.003695438997620732
1.5082244728165581,0.028112039179855254,0.010925728722279152,0.008942296206187028,0.01284688571153753,-0.004297575943031747
1.5082959899714847,0.029172386947160022,0.009004314841179601,0.008780907310022895,0.013202930942269929,-0.00467550505912094
1.5083675071264113,0.03045818310099522,0.00923677690857059,0.010026451111954632,0.014579303882342123,-0.004954128744008116
1.508439024281338,0.03190386747651281,0.01334035525682088,0.012747040105629182,0.019078644980281403,-0.006719558553893958
1.5085105414362645,0.03314377564440417,0.019247850530486516,0.01600259242207933,0.025789938885136084,-0.009861071348043725
1.508582058591191,0.03366149064758627,0.023990409128792398,0.0186299276568245,0.0317231685104314,-0.012797847285916129
1.5086535757461177,0.03301661123576188,0.023415084615495307,0.017302793300784304,0.03339661426906777,-0.014935129353532849
1.5087250929010443,0.031031763736761156,0.019145430426081224,0.013978643770450466,0.031103187320836282,-0.015260222528162183
1.5087966100559709,0.02787943173947238,0.01368299895533056,0.009773118861112214,0.02656630354407435,-0.014403538082158496
1.5088681272108975,0.024071143965329337,0.008639994842079382,0.005405399448016361,0.023120412312368242,-0.01449504216329765
1.508939644365824,0.020368522042175177,0.004801227757594007,0.002619426200917792,0.019587613928805262,-0.013519037779714003
1.5090111615207507,0.017622660517009992,0.0030527064258826383,0.001280243020763253,0.018515177509176136,-0.013534812245832818
1.5090826786756772,0.016549556574789192,0.0026291269875229183,0.001094148915450876,0.018223493108833415,-0.013426467693215649
1.5091541958306038,0.01749078347259404,0.0028411345826152338,0.001728275756159572,0.01646974364124221,-0.011666650436888394
1.5092257129855304,0.02026609634215111,0.0035138239520997308,0.002622344403247119,0.014211499079576919,-0.009351611384118042
1.509297230140457,0.024225306810832306,0.006980105312874579,0.005090188490138515,0.014172069763663704,-0.007760484912752521
1.5093687472953836,0.028505184243561566,0.014945927195805715,0.010396256019729185,0.017176858846162626,-0.006732887659604719
1.5094402644503102,0.032363241212534366,0.0257940785806224,0.017181792517199104,0.02380008467757652,-0.007572720091678518
1.5095117816052368,0.035420479974014,0.03744696816877445,0.023785576506019895,0.03287180407739739,-0.01042492779660295
1.5095832987601634,0.03772295943106026,0.04594440482494644,0.028541189697550762,0.03942833455424086,-0.012497464295342195
1.50965481591509,0.039632532833370364,0.048312285575194985,0.030196375009199177,0.041811699947597834,-0.013297494123918566
1.5097263330700166,0.041605230836871475,0.04374200658208185,0.028415936049993602,0.040237838266065314,-0.013204671330045874
1.5097978502249432,0.04392716574129624,0.03696149854539783,0.026087173799228647,0.03425937121311532,-0.010043379320705656
1.5098693673798698,0.04649881119729661,0.03328213830150767,0.025125670272120693,0.028681887893913186,-0.00632832379022223
1.5099408845347964,0.048782229516577,0.03389018013695223,0.025898717163670308,0.027535615482688604,-0.00495035286501577
1.510012401689723,0.04998265464348263,0.037062019812687884,0.027970420605425636,0.028559466166281314,-0.004431974007962606
1.5100839188446495,0.04939582665258717,0.03756966205584797,0.02744804663090382,0.028233692796006637,-0.004510299440741063
1.5101554359995761,0.046726633743720845,0.0350235030583495,0.024915387052692306,0.02598150076592089,-0.004368448093678398
1.5102269531545027,0.04221494386441091,0.032066445364595894,0.022036546886626967,0.0227724938275554,-0.0037039622551297263
1.5102984703094293,0.0365554045951188,0.030192615106035933,0.019143160662124768,0.022216425772929968,-0.005104262472108423
1.510369987464356,0.030705701566729478,0.029967941733201758,0.01712115674686206,0.023372237737851083,-0.007279504482504885
1.5104415046192825,0.025671938650474672,0.030893915991178075,0.016152578444133103,0.025539713423578875,-0.009572229181400643
1.510513021774209,0.02230380117340663,0.03237098104537218,0.01595046449902194,0.02803710793470945,-0.011635866060604462
1.5105845389291357,0.02110478427342222,0.03075755927703245,0.014310671393420193,0.02736339508439236,-0.012151111162260293
1.5106560560840623,0.022087028251984653,0.025632700664366393,0.011927341615445858,0.021746361380308044,-0.009305365789694408
1.5107275732389889,0.02474352062355467,0.01764300086254293,0.008315005741078718,0.014095081864645434,-0.005661397936443792
1.5107990903939155,0.028206425428266402,0.011672312932280087,0.006455089330600415,0.007282202479283884,-0.0015594033366504569
1.510870607548842,0.03156791810921427,0.009042942702336305,0.006924877381908108,0.0032968169446040653,0.0018251268645076446
1.5109421247037687,0.034217944840168574,0.009441307861291852,0.0085255112555674,0.004253174458739077,0.0020965262954743646
1.5110136418586952,0.036025983655989566,0.012683184628187391,0.01161661354179527,0.008144453663066847,0.0010370335560672818
1.5110851590136218,0.03729532439305516,0.01422209430811289,0.013294021431409462,0.01198565201584798,-0.0008777891036488961
1.5111566761685484,0.03854470610167679,0.012818844275640114,0.013163190298163863,0.015515066467860984,-0.003695059386182083
1.511228193323475,0.04022460916569971,0.011507558938145639,0.013651672900344249,0.01680076345969634,-0.004382239388592745
1.5112997104784016,0.04246467581659284,0.012385721554696614,0.01442102957265151,0.018582930054022853,-0.005276454928833462
1.5113712276333282,0.04493429586497486,0.01729377056711779,0.016921655013448497,0.023416913077924238,-0.007440363074711767
1.5114427447882548,0.04689231770787431,0.023107162469120566,0.019784155718843215,0.028848308217307,-0.009838694290901452
1.5115142619431814,0.047454803887083834,0.02561474498250903,0.02007376929597759,0.03127119316888974,-0.0115336571089461
