freq,gls,usurper,pdc_unbiased,shape_periodogram,shift_periodogram
1.5,0.031605246424144244,0.030208654478091172,0.022003088454338578,0.017285292993913272,0.01061887888043855
1.5000715171549266,0.028595336453250155,0.0234640799506673,0.01679692217781675,0.012572258010979784,0.008411864230961484
1.5001430343098532,0.024797888546036324,0.017647036818447932,0.011419584810450916,0.008147098799220273,0.005915454503362375
1.5002145514647798,0.020789812632417533,0.015754210583890798,0.008796510756732951,0.004776347961067171,0.005296000449620945
1.5002860686197064,0.017345459787468324,0.018261245118924976,0.009479677332466734,0.003639112521942405,0.006451241632806617
1.500357585774633,0.015271945925960987,0.022771803063033384,0.011714688134418397,0.005208974406866165,0.0076213237068682846
1.5004291029295596,0.015165201318802408,0.027913723932889257,0.01415548030345099,0.008514453027013565,0.00811463521620946
1.5005006200844861,0.01716595655706576,0.03271943726259774,0.016954003693511403,0.010902651821740312,0.009371929761955103
1.5005721372394127,0.02086274426290797,0.03634307649436175,0.019187221778694714,0.013079327629284184,0.010241965574030953
1.5006436543943393,0.02544081002802935,0.03952914563387495,0.02137618975240262,0.015165716041918418,0.011118329463582932
1.500715171549266,0.03000884122307953,0.04299216773186759,0.02421994995090846,0.016728492725615163,0.012823217254473166
1.5007866887041925,0.03391266896856934,0.04694273561970357,0.02666061786266369,0.021335195447129255,0.012677060544813165
1.500858205859119,0.0368882624749449,0.05127208134837459,0.029368029530911475,0.026343326026127437,0.012566006402885011
1.5009297230140457,0.0390355018056212,0.055988990843949156,0.03287087235373193,0.03204765865663165,0.012805764245289387
1.5010012401689723,0.04067274274449097,0.057529787203527416,0.0349635290275476,0.0357415232740743,0.012808731962102828
1.5010727573238989,0.04213722341942038,0.05767015327911242,0.036798409825528795,0.03731887626879539,0.013630939689296505
1.5011442744788255,0.043587855733941964,0.05766924959160148,0.03793328428010061,0.038797754754775246,0.013891587050075394
1.501215791633752,0.044880915226329254,0.05748170089669955,0.03824814004694497,0.040927799805478324,0.013116094915629433
1.5012873087886787,0.045592465454410994,0.058554911023172104,0.03896037083855539,0.04331869565543451,0.012558577826251917
1.5013588259436053,0.04519857422015515,0.05781637266092457,0.038338310339186395,0.04296416143958539,0.012190690291061566
1.5014303430985318,0.04331902735671992,0.05408844208660597,0.03525172960142179,0.04298848384064862,0.00948629851473286
1.5015018602534584,0.03989064242203222,0.046255000391787655,0.029380562295107576,0.04063357383686442,0.00552889654603572
1.501573377408385,0.035207008956161204,0.03719338467743414,0.02275340008029923,0.03727305322985088,0.0014124089474991167
1.5016448945633116,0.029854908046904056,0.028985353984479132,0.01716592382272006,0.03147544508236071,-0.0005922982245639888
1.5017164117182382,0.02460404968418353,0.022190704641288646,0.01272729457488559,0.025167332132746037,-0.0013430720117713006
1.5017879288731648,0.020274028275387688,0.0183461580238828,0.010756457121333964,0.020981614942360928,-0.0009928475428265106
1.5018594460280914,0.01756978332877583,0.016579525104149704,0.009814843547662735,0.019118513548407563,-0.0008929661462773978
1.501930963183018,0.016887968997375314,0.016407163473581354,0.009773529530205848,0.01740905049386472,-8.550986364430184e-05
1.5020024803379446,0.018154766828972088,0.01588096710165006,0.009545857603491862,0.01545292547175375,0.0006814353986426632
1.5020739974928712,0.020807783027131654,0.01666311118717841,0.00997328939183271,0.01473872403431049,0.0014056717402351144
1.5021455146477978,0.023992628107040868,0.01922266348814229,0.01144212206274167,0.015172673048559834,0.002469649287205222
1.5022170318027244,0.026898257150269028,0.02364112340774564,0.014028974316248104,0.017748593777183665,0.003450008654775729
1.502288548957651,0.029041972437567,0.028129600976213216,0.016679671046279716,0.020560790824873526,0.004369734379698601
1.5023600661125776,0.03036170293294545,0.032825806781889615,0.019990738498687276,0.023644712337817893,0.005730765141590852
1.5024315832675041,0.031115659296329378,0.033238079132668984,0.02077896981185265,0.02517721273409163,0.005661089747285829
1.5025031004224307,0.031680428730509906,0.03034081589467609,0.019519808615351825,0.024752870502245714,0.004774142535726233
1.5025746175773573,0.032340192227813126,0.026894205235547548,0.018649627815208736,0.02284600485335979,0.004957234866852375
1.502646134732284,0.033131945974426154,0.02462287205490317,0.017871043624403338,0.02079440529038211,0.005291486479395458
1.5027176518872105,0.033797027787609374,0.024429598697917623,0.01799769758677829,0.020065373194895042,0.005761325468176342
1.502789169042137,0.033871437590867574,0.023308740812865287,0.017486670760106647,0.017716535691952105,0.0064750473740960365
1.5028606861970637,0.03289397904446062,0.020054280684558994,0.015274482970942199,0.015044564260771724,0.005867679331583406
1.5029322033519903,0.030638444170610023,0.016273252279228347,0.012011118949132128,0.013384110434087378,0.003847011231083252
1.5030037205069169,0.02725242384486997,0.014161928678241193,0.009441040885373031,0.01273180324580263,0.0019326018651381251
1.5030752376618435,0.023245599290448483,0.015347941556320036,0.008606550278537486,0.012449746574763849,0.0013456996333875283
1.50314675481677,0.019358366958489085,0.018438875509681454,0.008953985446160287,0.012642125027701045,0.0015530797182131458
1.5032182719716967,0.01638051368297583,0.022577137324761624,0.010426555451109277,0.013547507757467424,0.002387683236222389
1.5032897891266233,0.01497089818834955,0.026654118847844695,0.012350463029946239,0.01520880740299828,0.0032422113310275214
1.5033613062815498,0.015499460648454992,0.02987929607616931,0.013981854206916533,0.01606676305350472,0.004238613179233151
1.5034328234364764,0.01793079665045714,0.030273004834007373,0.01416864675154985,0.014366730489499383,0.005239703721107738
1.503504340591403,0.021792554285279486,0.029828940860050102,0.013806564009865633,0.01312336129836667,0.005537902987628331
1.5035758577463296,0.026283745634476982,0.03259879912121688,0.015751292513310384,0.014719259372427707,0.0064430594739984595
1.5036473749012562,0.03053094650102892,0.03790342633008285,0.019003856556851165,0.020124119776316854,0.006608152362240678
1.5037188920561828,0.03389868374654469,0.044823271728672606,0.02304438568669538,0.0273443601192644,0.006564717814463986
1.5037904092111094,0.03619247413189749,0.05303045564538972,0.02836367437687625,0.03340951183737478,0.008206561601665479
1.503861926366036,0.03764566473947448,0.05907114136769323,0.03246316988130233,0.03847259423061456,0.009282179841117063
1.5039334435209626,0.038716510453014726,0.061731930174964214,0.03408384953452373,0.04338393395664313,0.00827265594631598
1.5040049606758892,0.0398171228344044,0.06304915325165224,0.03557140334761458,0.04676822574094623,0.007900469263275145
1.5040764778308158,0.041095739566223526,0.06632104217975826,0.037525773851031737,0.05057404475498483,0.007727841767373434
1.5041479949857424,0.04234364882306056,0.06965229941306883,0.038887791087543686,0.05487651303529892,0.006793303414489297
1.504219512140669,0.043051695709888996,0.07111798645058962,0.03921573232033744,0.05816755850987888,0.0054548807947016175
1.5042910292955955,0.04260283060723393,0.06658177005371126,0.036347749549566495,0.0585352509192536,0.0027689639125099107
1.5043625464505221,0.04053910287302065,0.05603440243002774,0.030363706364527798,0.05507720199681269,-0.0007451621710227014
1.5044340636054487,0.03679439695722014,0.042835530356644676,0.02344001313236871,0.04759430932463981,-0.0030856134417877154
1.5045055807603753,0.03178229372791513,0.03138022321426592,0.01698689592080203,0.040569905108307325,-0.005238188517165556
1.504577097915302,0.026296542555493532,0.023623622738339116,0.012446934359831944,0.034884940577162335,-0.006383870578729257
1.5046486150702285,0.021278189004975218,0.02089865700689658,0.011187449324425095,0.030835618078223135,-0.005480992940339654
1.504720132225155,0.017555651134353225,0.02028588152301721,0.011283372248322305,0.02857859739989395,-0.004283372676902469
1.5047916493800817,0.01564621916050789,0.01939718123753093,0.010644076718018416,0.02720109583913377,-0.004159870883110376
1.5048631665350083,0.015656872938766518,0.017319311495813436,0.009217644422453899,0.02414520962036249,-0.0038930487566252625
1.5049346836899349,0.017286051262519187,0.015927796504192474,0.008230188330603324,0.02108403754449105,-0.0032416776446031813
1.5050062008448615,0.019918755698584013,0.015947655832865778,0.007905738300784866,0.019064950104498688,-0.0025277001083309747
1.505077717999788,0.022804926807040774,0.01828648908454311,0.009361654152707073,0.018195685265348396,-0.0008319947888616619
1.5051492351547147,0.025289013466251117,0.023171788816974848,0.011726326065843064,0.02211262551222135,-0.0007068918236074544
1.5052207523096413,0.027015644551186973,0.027974367882963147,0.014241445734319206,0.025160909065404222,-2.201384363631994e-05
1.5052922694645678,0.028012475009877,0.030336237995574455,0.015961322224474977,0.025839198507769105,0.0011403637490754544
1.5053637866194944,0.028596359216805502,0.02702563737572002,0.014919408532213189,0.02332853725580291,0.001472197161753397
1.505435303774421,0.02915112616185344,0.020755744167257225,0.013309044659559194,0.01774911832640345,0.002823240540652289
1.5055068209293476,0.029900153036102176,0.016573766170000424,0.012321918805932341,0.013683381359159962,0.003969825332613581
1.5055783380842742,0.030782681811496897,0.01617516137773437,0.01250866989698158,0.012308389015672697,0.004810540772999362
1.5056498552392008,0.03146961942071043,0.018607369500348532,0.013496870470295333,0.014119479241863943,0.004777096423856223
1.5057213723941274,0.03149161794629547,0.01968348655483976,0.013134126432083434,0.016281718782749196,0.003394885165557714
1.505792889549054,0.030427310908792447,0.019038841924495505,0.011855838401314541,0.018566234163405505,0.0011555366070731222
1.5058644067039806,0.02809465201809536,0.016714976800562244,0.009674998552531539,0.01901255227186432,-0.0009623720131837139
1.5059359238589072,0.024683284499830333,0.01285201079583201,0.006168765257997816,0.017680176892565624,-0.0033557205653907576
1.5060074410138338,0.020766913938386953,0.010402824550033614,0.003987129865862614,0.015488069113933087,-0.004172160314044108
1.5060789581687604,0.017165658691511196,0.011419500469956694,0.004506773893992003,0.013578827995027156,-0.0027781107382635864
1.506150475323687,0.014695536880755058,0.01394882245916247,0.005603202541494299,0.014182953082010284,-0.0021222929713596086
1.5062219924786135,0.013907828977730352,0.016277400570772052,0.006474304461408025,0.015341476529921487,-0.0019360026988372201
1.5062935096335401,0.014929925183180436,0.016867451521746665,0.007024475314287043,0.013873033304414842,-0.0007328813255135899
1.5063650267884667,0.01746107614733839,0.016057690770012595,0.006681651925523114,0.01271934502018132,-0.00046198570074251446
1.5064365439433933,0.020900617081537138,0.017906344905159764,0.008103902228742074,0.012920150674847655,0.0006763267782071333
1.50650806109832,0.024545654709518663,0.022236962380324927,0.01119024144466396,0.013080251666235913,0.003282646716801286
1.5065795782532465,0.027795889555703463,0.02935754384542762,0.015188716512202768,0.017110811086268347,0.004773884469647713
1.506651095408173,0.030315638754338018,0.038466317946108206,0.02020329875354711,0.0223279952844167,0.006565278263703482
1.5067226125630997,0.03210575674634778,0.04744077770422625,0.02516307524326057,0.028144631256407204,0.008015152243855843
1.5067941297180263,0.03344435853615213,0.05250147284196016,0.02809340030703321,0.03305081952398025,0.008147990200760034
1.5068656468729529,0.03469846610783441,0.05289572077302988,0.028836225363534616,0.03459743349594664,0.008032386721090216
1.5069371640278795,0.03608805388876267,0.051982122875452313,0.029158238083419115,0.03475215618558233,0.008236673358237724
1.507008681182806,0.03753193323000867,0.051939570898337506,0.029645090979329304,0.03623644068365433,0.007928810902592174
1.5070801983377327,0.038657419159163646,0.052402565007029826,0.03000532215028713,0.038653325121975744,0.007050510607523009
1.5071517154926592,0.038950459296790155,0.05134570367624992,0.029635790998015537,0.039287568978832635,0.0064155032444248436
1.5072232326475858,0.03795818995272562,0.0458125636042976,0.026170643808596194,0.03916936086929281,0.003453870418663769
1.5072947498025124,0.035465807062779846,0.03874517368554905,0.02167628316777021,0.03819160542780761,2.069313164974276e-05
1.507366266957439,0.03160750390290827,0.032840147215968896,0.01779655130545853,0.036333552685861206,-0.002441217383138561
1.5074377841123656,0.02689036393457737,0.02781145519735238,0.014369878001425985,0.03397207186990705,-0.004259071350844989
1.5075093012672922,0.022110982309926926,0.02346563066049878,0.012274203971852665,0.03001785767073748,-0.004131378659294841
1.5075808184222188,0.018158898886019043,0.02069692200059729,0.010838451012952628,0.027985283801177843,-0.004377757626459111
1.5076523355771454,0.015750547010193554,0.019024636817564347,0.009985828883372298,0.026481627465310176,-0.004377639989900004
1.507723852732072,0.015198153002695225,0.015975623775719806,0.008495434228764531,0.02322445061952857,-0.00406711381785742
1.5077953698869986,0.01632710132796861,0.011915988278159246,0.006411917338543193,0.0186076533098973,-0.0036018007132338054
1.5078668870419252,0.01858159605132472,0.00914260800179008,0.00521914285473996,0.014515086986951087,-0.002620283613961029
1.5079384041968518,0.02125563485920751,0.007686473722249624,0.005152249488431391,0.01057392997615187,-0.0007341418370173815
1.5080099213517784,0.023737553869918368,0.00786174137861803,0.0057615299185219465,0.00859775349951623,0.0007707595716525885
1.508081438506705,0.025680396681245936,0.009997113207733698,0.007453924502377228,0.0072975557427365206,0.0028844199649610764
1.5081529556616315,0.027059576075294776,0.011833065466941127,0.008842952470356694,0.005959538204356075,0.004752800124425629
1.5082244728165581,0.028112039179855254,0.011076897946557826,0.008942296206187028,0.003724336836114034,0.005941719180549979
1.5082959899714847,0.029172386947160022,0.008932892534799364,0.008780907310022895,0.0009013272979151245,0.007193738987003448
1.5083675071264113,0.03045818310099522,0.009013656955032862,0.010026451111954632,-0.0006874683323892761,0.009060882135561504
1.508439024281338,0.03190386747651281,0.013298205316125584,0.012747040105629182,0.0010989576670167285,0.010546475907458809
1.5085105414362645,0.03314377564440417,0.019532869124352644,0.01600259242207933,0.005825192775325639,0.011047982222381876
1.508582058591191,0.03366149064758627,0.024538813188123128,0.0186299276568245,0.010007112591013284,0.011271914012991286
1.5086535757461177,0.03301661123576188,0.024031768858864277,0.017302793300784304,0.011905997507623273,0.009180649387386861
1.5087250929010443,0.031031763736761156,0.019601388246794815,0.013978643770450466,0.01211801070211696,0.00618349949985386
1.5087966100559709,0.02787943173947238,0.013958274398871307,0.009773118861112214,0.010958680742810136,0.003096175646367942
1.5088681272108975,0.024071143965329337,0.008767936877898785,0.005405399448016361,0.010242570741368773,-0.0003504489669477606
1.508939644365824,0.020368522042175177,0.0046968443833272635,0.002619426200917792,0.007674282770232922,-0.0015070721558590398
1.5090111615207507,0.017622660517009992,0.002820068393434014,0.001280243020763253,0.0069436631334886005,-0.002311597246967628
1.5090826786756772,0.016549556574789192,0.0022987837737867014,0.001094148915450876,0.0076910647898468226,-0.002842178725892403
1.5091541958306038,0.01749078347259404,0.002515600957992148,0.001728275756159572,0.007265301024716279,-0.0020805256278973723
1.5092257129855304,0.02026609634215111,0.0032042189843733584,0.002622344403247119,0.004872533673015027,-0.00012243682245683603
1.509297230140457,0.024225306810832306,0.006847223004523954,0.005090188490138515,0.0035966353343473475,0.0026537017020635094
1.5093687472953836,0.028505184243561566,0.015167728273823835,0.010396256019729185,0.005675160234015327,0.006244385354197141
1.5094402644503102,0.032363241212534366,0.026515056962579456,0.017181792517199104,0.010494896191783641,0.009771227971076688
1.5095117816052368,0.035420479974014,0.03870908697936822,0.023785576506019895,0.016363581382727616,0.012624991348495603
1.5095832987601634,0.03772295943106026,0.04771635612505886,0.028541189697550762,0.020834018976492716,0.01456175488676662
1.50965481591509,0.039632532833370364,0.05039509726819766,0.030196375009199177,0.022922712646259773,0.014973735967492761
1.5097263330700166,0.041605230836871475,0.045665996610106535,0.028415936049993602,0.0209101137352295,0.014415168945879374
1.5097978502249432,0.04392716574129624,0.038553170176536485,0.026087173799228647,0.015431001585414423,0.015088369781964553
1.5098693673798698,0.04649881119729661,0.034713259969303835,0.025125670272120693,0.011565314707493552,0.016156935255740714
1.5099408845347964,0.048782229516577,0.03541526645089425,0.025898717163670308,0.012663452549225076,0.0162885224047584
1.510012401689723,0.04998265464348263,0.038791226889677344,0.027970420605425636,0.015894231351579132,0.016499600789046883
1.5100839188446495,0.04939582665258717,0.03929460083195821,0.02744804663090382,0.018839573076252586,0.014592990651114447
1.5101554359995761,0.046726633743720845,0.03648233140667342,0.024915387052692306,0.020355996677759853,0.01164020113359724
1.5102269531545027,0.04221494386441091,0.03320698764017676,0.022036546886626967,0.021038698655637077,0.008797131683514214
1.5102984703094293,0.0365554045951188,0.031083049722361707,0.019143160662124768,0.02248598494369647,0.0055644533434499105
1.510369987464356,0.030705701566729478,0.030526125400436022,0.01712115674686206,0.023880247076680253,0.0031164933417370446
1.5104415046192825,0.025671938650474672,0.031202263615691554,0.016152578444133103,0.025014424487764045,0.0017137967966822474
1.510513021774209,0.02230380117340663,0.03253291318703676,0.01595046449902194,0.02707921941319453,0.0005190441743314901
1.5105845389291357,0.02110478427342222,0.030842207270406256,0.014310671393420193,0.026969660675389685,-0.0008543083639587879
1.5106560560840623,0.022087028251984653,0.025558916423313458,0.011927341615445858,0.021992888041678357,-0.00047287515162863027
1.5107275732389889,0.02474352062355467,0.01734233855992918,0.008315005741078718,0.014473640652557906,9.362077260936143e-05
1.5107990903939155,0.028206425428266402,0.011261606766133575,0.006455089330600415,0.007541006810251065,0.0018953966394922137
1.510870607548842,0.03156791810921427,0.008650995686031754,0.006924877381908108,0.0026737919019636093,0.004704907442110087
1.5109421247037687,0.034217944840168574,0.00925382847856085,0.0085255112555674,0.00048920026142447,0.00717484769570323
1.5110136418586952,0.036025983655989566,0.012785093945891182,0.01161661354179527,-0.0002504378747265695,0.010228613530480199
1.5110851590136218,0.03729532439305516,0.014605059575596943,0.013294021431409462,-0.00019524688766557594,0.01166059585607952
1.5111566761685484,0.03854470610167679,0.013190784953882196,0.013163190298163863,-0.000805642243323955,0.011847822617037826
1.511228193323475,0.04022460916569971,0.011772467549606275,0.013651672900344249,-0.0034868953373976596,0.013595123886066903
1.5112997104784016,0.04246467581659284,0.01272941988419312,0.01442102957265151,-0.0043389744009536425,0.014684605986423925
1.5113712276333282,0.04493429586497486,0.01793407329617794,0.016921655013448497,-0.0019125464662189883,0.01566326146283352
1.5114427447882548,0.04689231770787431,0.0240575470527461,0.019784155718843215,0.0018652775397538003,0.01629074503140289
1.5115142619431814,0.047454803887083834,0.02672447393661914,0.02007376929597759,0.005773058236871379,0.01461599453634026
