freq,gls,usurper,pdc_unbiased,shape_periodogram,shift_periodogram
1.5,0.031605246424144244,0.029898088174273935,0.022003088454338578,0.02705318213753882,0.00437073708781015
1.5000715171549266,0.028595336453250155,0.022548752158360726,0.01679692217781675,0.02110092916470185,0.0030972315991496416
1.5001430343098532,0.024797888546036324,0.0161486067475776,0.011419584810450916,0.016638896921449205,0.0008917209525398094
1.5002145514647798,0.020789812632417533,0.013872235590495522,0.008796510756732951,0.013301954825082748,0.00043011165046693455
1.5002860686197064,0.017345459787468324,0.01604675569520442,0.009479677332466734,0.012383838394419179,0.0014956508362185472
1.500357585774633,0.015271945925960987,0.020337707448873456,0.011714688134418397,0.013219833600945457,0.0029507318490350374
1.5004291029295596,0.015165201318802408,0.025499408636583596,0.01415548030345099,0.01649301860946206,0.0032916432910237775
1.5005006200844861,0.01716595655706576,0.03057097105302905,0.016954003693511403,0.01882711123160323,0.0044333222910790514
1.5005721372394127,0.02086274426290797,0.03479734957724194,0.019187221778694714,0.021262628051479177,0.005041682529566245
1.5006436543943393,0.02544081002802935,0.03860342065482372,0.02137618975240262,0.0241052850041331,0.005397445083100445
1.500715171549266,0.03000884122307953,0.04299432823351779,0.02421994995090846,0.026109760888389483,0.0067532214336089025
1.5007866887041925,0.03391266896856934,0.04790003874517615,0.02666061786266369,0.03129809385273432,0.006083105013889178
1.500858205859119,0.0368882624749449,0.053290959990055765,0.029368029530911475,0.03779492706416881,0.0049478660627429
1.5009297230140457,0.0390355018056212,0.058987266330001974,0.03287087235373193,0.045480961003094136,0.0038602070572782378
1.5010012401689723,0.04067274274449097,0.06129926401124958,0.0349635290275476,0.05109064453443759,0.002671734291595638
1.5010727573238989,0.04213722341942038,0.06163724118265301,0.036798409825528795,0.054429957377210826,0.0024659224757697896
1.5011442744788255,0.043587855733941964,0.06181180007152869,0.03793328428010061,0.05753960781959755,0.0017856516987220603
1.501215791633752,0.044880915226329254,0.061875659665215924,0.03824814004694497,0.06057950616162137,0.00044345739309772876
1.5012873087886787,0.045592465454410994,0.06309824352200127,0.03896037083855539,0.06372391330569559,-0.0006159246051113867
1.5013588259436053,0.04519857422015515,0.0624942792352045,0.038338310339186395,0.06401430577933838,-0.0013000434210496746
1.5014303430985318,0.04331902735671992,0.05830422943782304,0.03525172960142179,0.0641003188750316,-0.003975853143151175
1.5015018602534584,0.03989064242203222,0.049719441047239764,0.029380562295107576,0.06124044312638212,-0.007459423593704475
1.501573377408385,0.035207008956161204,0.039670439749002286,0.02275340008029923,0.05766604827756388,-0.011203098040547537
1.5016448945633116,0.029854908046904056,0.030656017918589584,0.01716592382272006,0.05159965455522145,-0.012737296269553522
1.5017164117182382,0.02460404968418353,0.023055155411678678,0.01272729457488559,0.044713825711508594,-0.012859371793444282
1.5017879288731648,0.020274028275387688,0.018419077113163807,0.010756457121333964,0.038772825640629345,-0.011386063870576786
1.5018594460280914,0.01756978332877583,0.01594134060289821,0.009814843547662735,0.03528967373485421,-0.010341090050818486
1.501930963183018,0.016887968997375314,0.015261034432032234,0.009773529530205848,0.031951646178876164,-0.008608814509920657
1.5020024803379446,0.018154766828972088,0.014608233612942893,0.009545857603491862,0.02912787936733678,-0.007307359004653318
1.5020739974928712,0.020807783027131654,0.015496243857603646,0.00997328939183271,0.027324448499455405,-0.0059899194235428456
1.5021455146477978,0.023992628107040868,0.01830733705643023,0.01144212206274167,0.026944688373042237,-0.004541755300058149
1.5022170318027244,0.026898257150269028,0.023091357172704573,0.014028974316248104,0.02924012871075548,-0.0035598108078285346
1.502288548957651,0.029041972437567,0.028099095129333607,0.016679671046279716,0.03223172965291375,-0.0028917242061958187
1.5023600661125776,0.03036170293294545,0.0334478178010864,0.019990738498687276,0.03583047328171569,-0.0019834886801415627
1.5024315832675041,0.031115659296329378,0.03431619566054942,0.02077896981185265,0.03755283892375516,-0.0022253975534041047
1.5025031004224307,0.031680428730509906,0.03127759452221722,0.019519808615351825,0.03749837257734372,-0.0032665755066251475
1.5025746175773573,0.032340192227813126,0.027599641738121888,0.018649627815208736,0.03522187387087704,-0.0028008540163170182
1.502646134732284,0.033131945974426154,0.025395727549831215,0.017871043624403338,0.03218108142327061,-0.0018528604388200003
1.5027176518872105,0.033797027787609374,0.025265954204384343,0.01799769758677829,0.030493282419114205,-0.0008520587007735669
1.502789169042137,0.033871437590867574,0.02417403561442193,0.017486670760106647,0.027827632359923766,0.00012438544660499628
1.5028606861970637,0.03289397904446062,0.02050507690377519,0.015274482970942199,0.025281344733521473,-0.00040721053929231217
1.5029322033519903,0.030638444170610023,0.016153798047360588,0.012011118949132128,0.02347516086610653,-0.002222683919301211
1.5030037205069169,0.02725242384486997,0.013565504654619392,0.009441040885373031,0.022786613592963273,-0.004040450152605625
1.5030752376618435,0.023245599290448483,0.014544836920342951,0.008606550278537486,0.02258457264309913,-0.004642003701298026
1.50314675481677,0.019358366958489085,0.0175070760360291,0.008953985446160287,0.023075485270190616,-0.004606804550120207
1.5032182719716967,0.01638051368297583,0.021731617058179577,0.010426555451109277,0.023801169140363447,-0.003740574904235335
1.5032897891266233,0.01497089818834955,0.025992867498024742,0.012350463029946239,0.024757689096756415,-0.002613159591766919
1.5033613062815498,0.015499460648454992,0.029465940881466455,0.013981854206916533,0.025037911915274588,-0.0013761297881630778
1.5034328234364764,0.01793079665045714,0.03024602791791095,0.01416864675154985,0.023159362043605476,-0.00022359423898158566
1.503504340591403,0.021792554285279486,0.03027000336787044,0.013806564009865633,0.021055708232653868,0.0005818665836724814
1.5035758577463296,0.026283745634476982,0.0335325877441491,0.015751292513310384,0.021834951422481933,0.0018210003233315503
1.5036473749012562,0.03053094650102892,0.039600602146997184,0.019003856556851165,0.026902379020926653,0.001902643788923941
1.5037188920561828,0.03389868374654469,0.0474549382493275,0.02304438568669538,0.03483092838165375,0.0011405045352066432
1.5037904092111094,0.03619247413189749,0.05693560053098927,0.02836367437687625,0.043129664434685806,0.0012705153422846289
1.503861926366036,0.03764566473947448,0.06421726180366909,0.03246316988130233,0.05030115446731389,0.000961426574530405
1.5039334435209626,0.038716510453014726,0.06752527831931383,0.03408384953452373,0.057071696852554664,-0.0012451375862303072
1.5040049606758892,0.0398171228344044,0.0692023676154112,0.03557140334761458,0.061669991164603366,-0.002415052178965919
1.5040764778308158,0.041095739566223526,0.07294509609820983,0.037525773851031737,0.06589244722259494,-0.0029883058217923674
1.5041479949857424,0.04234364882306056,0.07647108509464856,0.038887791087543686,0.07039025849025506,-0.004212748082176247
1.504219512140669,0.043051695709888996,0.0778949849691392,0.03921573232033744,0.07387189688811246,-0.005780568714674618
1.5042910292955955,0.04260283060723393,0.07288937360838729,0.036347749549566495,0.07459699156779946,-0.008611267905542475
1.5043625464505221,0.04053910287302065,0.06124494004521776,0.030363706364527798,0.07125278601034105,-0.011935302013189673
1.5044340636054487,0.03679439695722014,0.04689331271736886,0.02344001313236871,0.06382367342972133,-0.01388581014705849
1.5045055807603753,0.03178229372791513,0.03444970847668453,0.01698689592080203,0.056908560647077465,-0.015704837589319603
1.504577097915302,0.026296542555493532,0.025854364591972358,0.012446934359831944,0.05071592407003497,-0.016278954639179766
1.5046486150702285,0.021278189004975218,0.022490816222697108,0.011187449324425095,0.045368548017630364,-0.014514391527392763
1.504720132225155,0.017555651134353225,0.021362489079941312,0.011283372248322305,0.04139171860274398,-0.012325776293995318
1.5047916493800817,0.01564621916050789,0.020036111253787802,0.010644076718018416,0.03840968002417426,-0.011289169238494979
1.5048631665350083,0.015656872938766518,0.017559135151519918,0.009217644422453899,0.03440988000172483,-0.01038235194054374
1.5049346836899349,0.017286051262519187,0.016033474050441806,0.008230188330603324,0.030538389391386252,-0.009171092866679418
1.5050062008448615,0.019918755698584013,0.016054269099418324,0.007905738300784866,0.027247205046496203,-0.007704457594267448
1.505077717999788,0.022804926807040774,0.018488511328436413,0.009361654152707073,0.025132610136593368,-0.005349261056742912
1.5051492351547147,0.025289013466251117,0.02360976470208157,0.011726326065843064,0.02858819183585057,-0.005170224473250818
1.5052207523096413,0.027015644551186973,0.02914418149914783,0.014241445734319206,0.03201298518692466,-0.004846969084962573
1.5052922694645678,0.028012475009877,0.03222563305047838,0.015961322224474977,0.0327027002902043,-0.003751205531802518
1.5053637866194944,0.028596359216805502,0.029239999746387035,0.014919408532213189,0.030143375683750376,-0.003281598086558498
1.505435303774421,0.02915112616185344,0.022813933021194256,0.013309044659559194,0.024972252241021647,-0.0019127206318573634
1.5055068209293476,0.029900153036102176,0.018646919638583424,0.012321918805932341,0.020894091223786045,-0.000593214663429019
1.5055783380842742,0.030782681811496897,0.018305999377341665,0.01250866989698158,0.01928511465323934,0.00041653071443828834
1.5056498552392008,0.03146961942071043,0.020732506681188846,0.013496870470295333,0.02074896039917087,0.00048118185274417027
1.5057213723941274,0.03149161794629547,0.021725801691939495,0.013134126432083434,0.023084250765891108,-0.0010623066341932368
1.505792889549054,0.030427310908792447,0.020581971972510764,0.011855838401314541,0.02565016196930248,-0.0035054090151946916
1.5058644067039806,0.02809465201809536,0.017877622683034024,0.009674998552531539,0.026432039401142426,-0.005770891184902005
1.5059359238589072,0.024683284499830333,0.01369397852385009,0.006168765257997816,0.02622223227597217,-0.008636586604797764
1.5060074410138338,0.020766913938386953,0.011121273872070415,0.003987129865862614,0.0253986114442484,-0.010052621550575352
1.5060789581687604,0.017165658691511196,0.012208602512191576,0.004506773893992003,0.02440330587771877,-0.009084764713317562
1.506150475323687,0.014695536880755058,0.014837717659884302,0.005603202541494299,0.024576874940892817,-0.008245900092027076
1.5062219924786135,0.013907828977730352,0.01728989745744863,0.006474304461408025,0.023982461277923015,-0.0071918551761356656
1.5062935096335401,0.014929925183180436,0.01808971397241191,0.007024475314287043,0.021084676096979334,-0.005191428148015856
1.5063650267884667,0.01746107614733839,0.017618742630928934,0.006681651925523114,0.019306105267613456,-0.004541398075610205
1.5064365439433933,0.020900617081537138,0.01991459519421288,0.008103902228742074,0.018617825341402893,-0.002969931188676425
1.50650806109832,0.024545654709518663,0.024998934451040608,0.01119024144466396,0.018328203166679494,-0.00019660890863447127
1.5065795782532465,0.027795889555703463,0.033104946182329405,0.015188716512202768,0.022984008605067423,0.0007353946181064708
1.506651095408173,0.030315638754338018,0.04344097990172258,0.02020329875354711,0.029490661754622553,0.0015521758906916839
1.5067226125630997,0.03210575674634778,0.05362189957091692,0.02516307524326057,0.036734720276241466,0.0019338202784457976
1.5067941297180263,0.03344435853615213,0.0594835381808449,0.02809340030703321,0.04233735968965044,0.0014600537583181045
1.5068656468729529,0.03469846610783441,0.05999242522937728,0.028836225363534616,0.04451927753594131,0.0009368110175057741
1.5069371640278795,0.03608805388876267,0.059045582642240746,0.029158238083419115,0.045103803279029256,0.0009012646145774085
1.507008681182806,0.03753193323000867,0.05893068917572053,0.029645090979329304,0.04682857138836064,0.00040225065445858015
1.5070801983377327,0.038657419159163646,0.05919144508882183,0.03000532215028713,0.04823428951374296,-3.5608981584218646e-05
1.5071517154926592,0.038950459296790155,0.05787399420716475,0.029635790998015537,0.04781473658533616,-0.00012783687583246099
1.5072232326475858,0.03795818995272562,0.0516037183984272,0.026170643808596194,0.04672577676696723,-0.002498672176454851
1.5072947498025124,0.035465807062779846,0.0437338525925124,0.02167628316777021,0.04466792562489091,-0.005230211400012667
1.507366266957439,0.03160750390290827,0.03708235019303136,0.01779655130545853,0.04235857387960974,-0.007304537571114319
1.5074377841123656,0.02689036393457737,0.031405544960432755,0.014369878001425985,0.04031084651548461,-0.009131411041552335
1.5075093012672922,0.022110982309926926,0.026281509460944333,0.012274203971852665,0.03721435142785388,-0.009271633703142055
1.5075808184222188,0.018158898886019043,0.022620162978430846,0.010838451012952628,0.03581561228141079,-0.009750321062598747
1.5076523355771454,0.015750547010193554,0.020230203011256113,0.009985828883372298,0.03425023402482969,-0.009645505165660602
1.507723852732072,0.015198153002695225,0.016652771120101193,0.008495434228764531,0.030076549230464968,-0.008701403057211224
1.5077953698869986,0.01632710132796861,0.0122674847646859,0.006411917338543193,0.024419480857625964,-0.007476088742709144
1.5078668870419252,0.01858159605132472,0.009380963443973043,0.00521914285473996,0.018790266197201182,-0.005509914319509133
1.5079384041968518,0.02125563485920751,0.008037950392961492,0.005152249488431391,0.013147361536331777,-0.0025813991364223962
1.5080099213517784,0.023737553869918368,0.008516749050094117,0.0057615299185219465,0.01009947073280921,-0.00045202998683370547
1.508081438506705,0.025680396681245936,0.01132131708755752,0.007453924502377228,0.00866340549489825,0.0017439992642946528
1.5081529556616315,0.027059576075294776,0.013922816077598793,0.008842952470356694,0.007970295796228205,0.0032895701151568037
1.5082244728165581,0.028112039179855254,0.01356084819098494,0.008942296206187028,0.006390604834166291,0.0042093739582841384
1.5082959899714847,0.029172386947160022,0.01138301461363877,0.008780907310022895,0.004790946056316575,0.004918421935571065
1.5083675071264113,0.03045818310099522,0.011469588913799013,0.010026451111954632,0.00415027332276892,0.0063144170501616146
1.508439024281338,0.03190386747651281,0.015927894350085545,0.012747040105629182,0.006029922745542201,0.007629579140894791
1.5085105414362645,0.03314377564440417,0.022306602061563666,0.01600259242207933,0.010328381743830274,0.00812007772659769
1.508582058591191,0.03366149064758627,0.02747888308036595,0.0186299276568245,0.014475700798669744,0.008157678238133837
1.5086535757461177,0.03301661123576188,0.02686329125186352,0.017302793300784304,0.016575392409900993,0.005920395586998098
1.5087250929010443,0.031031763736761156,0.02213461563216953,0.013978643770450466,0.01692432595064322,0.002913372306044276
1.5087966100559709,0.02787943173947238,0.016226437993991427,0.009773118861112214,0.015646542637823165,1.892002598813783e-05
1.5088681272108975,0.024071143965329337,0.010824506350851667,0.005405399448016361,0.01489274809114933,-0.0032898406997504473
1.508939644365824,0.020368522042175177,0.006560242951851781,0.002619426200917792,0.012775963127895109,-0.004534664795610869
1.5090111615207507,0.017622660517009992,0.004451932758585852,0.001280243020763253,0.01206846070500952,-0.005296982801560356
1.5090826786756772,0.016549556574789192,0.0037130219112624973,0.001094148915450876,0.012742485624339347,-0.005811480315127739
1.5091541958306038,0.01749078347259404,0.003889967967551652,0.001728275756159572,0.0122255218713932,-0.004999818870562076
1.5092257129855304,0.02026609634215111,0.0050065173921882535,0.002622344403247119,0.010308932806760186,-0.003227171493061586
1.509297230140457,0.024225306810832306,0.00942769069454456,0.005090188490138515,0.009427932728890627,-0.0006666263323000064
1.5093687472953836,0.028505184243561566,0.0187874944140527,0.010396256019729185,0.010672698614790314,0.0031787421944589746
1.5094402644503102,0.032363241212534366,0.0312643517357049,0.017181792517199104,0.014849873055938824,0.006730191546912155
1.5095117816052368,0.035420479974014,0.04482069414273792,0.023785576506019895,0.020803935133689413,0.009190040913856484
1.5095832987601634,0.03772295943106026,0.05492990790676185,0.028541189697550762,0.02518692848211015,0.010913153991880134
1.50965481591509,0.039632532833370364,0.05795972147425852,0.030196375009199177,0.02707627808207906,0.01132099725082785
1.5097263330700166,0.041605230836871475,0.05293300634433574,0.028415936049993602,0.025661975379633724,0.010555541625452351
1.5097978502249432,0.04392716574129624,0.04534036096531425,0.026087173799228647,0.020443930834530475,0.01133562548036389
1.5098693673798698,0.04649881119729661,0.0412405787821894,0.025125670272120693,0.015857898956640106,0.012943338736773155
1.5099408845347964,0.048782229516577,0.04160782865441746,0.025898717163670308,0.015103800091271317,0.013998581109348363
1.510012401689723,0.04998265464348263,0.044703678372017844,0.027970420605425636,0.016198682319982963,0.015179618959894314
1.5100839188446495,0.04939582665258717,0.044711282927446146,0.02744804663090382,0.01718858465074563,0.014212629920242054
1.5101554359995761,0.046726633743720845,0.04110865259661572,0.024915387052692306,0.017532913107154734,0.011879214269598619
1.5102269531545027,0.04221494386441091,0.03711525902494582,0.022036546886626967,0.017550177646715973,0.009424904103434379
1.5102984703094293,0.0365554045951188,0.034344405365222125,0.019143160662124768,0.0190169295308442,0.00619197596299968
1.510369987464356,0.030705701566729478,0.033149223168536544,0.01712115674686206,0.02120074157239348,0.0033197810902228734
1.5104415046192825,0.025671938650474672,0.03320918827249762,0.016152578444133103,0.023189015245602223,0.0014454639590279921
1.510513021774209,0.02230380117340663,0.033962021283487485,0.01595046449902194,0.02544494506341684,8.031360627529337e-05
1.5105845389291357,0.02110478427342222,0.031802239859076764,0.014310671393420193,0.025021797365032492,-0.001088373804059432
1.5106560560840623,0.022087028251984653,0.026154609996440408,0.011927341615445858,0.01992784201330793,-0.0004170466484700003
1.5107275732389889,0.02474352062355467,0.01754858586448658,0.008315005741078718,0.01263354698062938,0.0003749478313464293
1.5107990903939155,0.028206425428266402,0.011294443830856545,0.006455089330600415,0.005546756616802356,0.0025446596387837285
1.510870607548842,0.03156791810921427,0.008758856369757217,0.006924877381908108,0.0005029808217524856,0.005610991020460294
1.5109421247037687,0.034217944840168574,0.009785169000117569,0.0085255112555674,-0.0014193409855672641,0.007986115975643046
1.5110136418586952,0.036025983655989566,0.013993536533111167,0.01161661354179527,-0.0012360594429886359,0.010512593523923064
1.5110851590136218,0.03729532439305516,0.016282902093649555,0.013294021431409462,-0.00023821004546480137,0.011408553597946217
1.5111566761685484,0.03854470610167679,0.01499793088029573,0.013163190298163863,0.000939088618043884,0.010674939706195636
1.511228193323475,0.04022460916569971,0.013683135789470788,0.013651672900344249,0.00016892695258009116,0.011496808039374747
1.5112997104784016,0.04246467581659284,0.015012311768898962,0.01442102957265151,0.0006610670342697362,0.011889556887786428
1.5113712276333282,0.04493429586497486,0.020619656268069435,0.016921655013448497,0.0035757358310905245,0.012470896724480162
1.5114427447882548,0.04689231770787431,0.027090400514803437,0.019784155718843215,0.007339805535386735,0.0129107515174368
1.5115142619431814,0.047454803887083834,0.02976687030956473,0.02007376929597759,0.01050527027138669,0.011483030885182348
