freq,gls,usurper,pdc_unbiased,shape_periodogram,shift_periodogram
1.5,0.031605246424144244,0.030526842519904614,0.022003088454338578,0.02026761159509761,0.0054479882118669085
1.5000715171549266,0.028595336453250155,0.023495974968314976,0.01679692217781675,0.01539938636549458,0.004200859639767132
1.5001430343098532,0.024797888546036324,0.017497016155550937,0.011419584810450916,0.011587883693147198,0.002184104255779561
1.5002145514647798,0.020789812632417533,0.015502488238595262,0.008796510756732951,0.008259483290003007,0.002082174018704865
1.5002860686197064,0.017345459787468324,0.01802131293174256,0.009479677332466734,0.007124863268030209,0.003309533898915468
1.500357585774633,0.015271945925960987,0.022583969919890777,0.011714688134418397,0.008248772015735508,0.004423600657595031
1.5004291029295596,0.015165201318802408,0.02791633602512093,0.01415548030345099,0.012115910087361206,0.00405672176338142
1.5005006200844861,0.01716595655706576,0.03295801298016535,0.016954003693511403,0.015460571771878947,0.004289883324183282
1.5005721372394127,0.02086274426290797,0.03684374276516326,0.019187221778694714,0.019189365410715153,0.0038403789114322315
1.5006436543943393,0.02544081002802935,0.040294333298343886,0.02137618975240262,0.022906708947757974,0.0033625279837924634
1.500715171549266,0.03000884122307953,0.04403584060974793,0.02421994995090846,0.02537511270260607,0.004158808979847157
1.5007866887041925,0.03391266896856934,0.04829583016621475,0.02666061786266369,0.030611625166180028,0.0029715613160828493
1.500858205859119,0.0368882624749449,0.053007040765032785,0.029368029530911475,0.03681190575099941,0.0014196332710414536
1.5009297230140457,0.0390355018056212,0.05814559298892837,0.03287087235373193,0.04422159633881185,-0.00022078969408541562
1.5010012401689723,0.04067274274449097,0.060000731056428856,0.0349635290275476,0.04937328148557249,-0.0016364158725978705
1.5010727573238989,0.04213722341942038,0.06035227956987392,0.036798409825528795,0.052357961914077496,-0.001957073571808225
1.5011442744788255,0.043587855733941964,0.06052897314360391,0.03793328428010061,0.05499163221917316,-0.002628684999917294
1.501215791633752,0.044880915226329254,0.06040119104627439,0.03824814004694497,0.05685557966166873,-0.0034962404204338824
1.5012873087886787,0.045592465454410994,0.06152342007816756,0.03896037083855539,0.05882619253263292,-0.004108940914039356
1.5013588259436053,0.04519857422015515,0.06078899689965326,0.038338310339186395,0.0579494793277822,-0.0040814510053169255
1.5014303430985318,0.04331902735671992,0.056837301556047506,0.03525172960142179,0.05724687144319783,-0.006137366025381606
1.5015018602534584,0.03989064242203222,0.04864106703643853,0.029380562295107576,0.053775689834793354,-0.008761538833083662
1.501573377408385,0.035207008956161204,0.03912290188971529,0.02275340008029923,0.04939871451786628,-0.011443601069525198
1.5016448945633116,0.029854908046904056,0.03049125867734871,0.01716592382272006,0.04214691450356933,-0.01156171469403743
1.5017164117182382,0.02460404968418353,0.02333438403710513,0.01272729457488559,0.03417212558350903,-0.010325163506222325
1.5017879288731648,0.020274028275387688,0.019115333741103545,0.010756457121333964,0.027652049466657412,-0.007987604611575888
1.5018594460280914,0.01756978332877583,0.01708336806489009,0.009814843547662735,0.02420852715966546,-0.006673997841989977
1.501930963183018,0.016887968997375314,0.016721152346731515,0.009773529530205848,0.021256832520849925,-0.004935348301274613
1.5020024803379446,0.018154766828972088,0.016075364860063775,0.009545857603491862,0.01847693204348734,-0.003449147174963339
1.5020739974928712,0.020807783027131654,0.016798454269735374,0.00997328939183271,0.016839595005369266,-0.002124506863293206
1.5021455146477978,0.023992628107040868,0.019412946940537475,0.01144212206274167,0.016414407837444394,-0.0006939084381554583
1.5022170318027244,0.026898257150269028,0.023954024082473168,0.014028974316248104,0.018315597272684378,0.00023557972301388997
1.502288548957651,0.029041972437567,0.02863892891635823,0.016679671046279716,0.02121005621854319,0.0006204177213461267
1.5023600661125776,0.03036170293294545,0.033537794368679,0.019990738498687276,0.025085148737013976,0.0009458494000199066
1.5024315832675041,0.031115659296329378,0.03404609757544724,0.02077896981185265,0.027204599751241735,0.00030503058076358585
1.5025031004224307,0.031680428730509906,0.03111901675299682,0.019519808615351825,0.027591402579949454,-0.0009354745608698368
1.5025746175773573,0.032340192227813126,0.027541126779685732,0.018649627815208736,0.025730540242596172,-0.000515350754805518
1.502646134732284,0.033131945974426154,0.025143008389227135,0.017871043624403338,0.023205797136275852,0.00037652171865470963
1.5027176518872105,0.033797027787609374,0.024848733723865438,0.01799769758677829,0.022317024633871464,0.001011290363743366
1.502789169042137,0.033871437590867574,0.023726854871975463,0.017486670760106647,0.020235582262682482,0.0018512132063918656
1.5028606861970637,0.03289397904446062,0.02036424415792422,0.015274482970942199,0.018520266903684926,0.0011096804067914265
1.5029322033519903,0.030638444170610023,0.01637988063378023,0.012011118949132128,0.017289523880811803,-0.0007636794909494568
1.5030037205069169,0.02725242384486997,0.014082083535032772,0.009441040885373031,0.016560105802176577,-0.002382710336604857
1.5030752376618435,0.023245599290448483,0.01524004940152551,0.008606550278537486,0.01640205813541224,-0.0029556372556539152
1.50314675481677,0.019358366958489085,0.018447831244245275,0.008953985446160287,0.016843674960586374,-0.002942632128433743
1.5032182719716967,0.01638051368297583,0.022774611941270742,0.010426555451109277,0.017564364120666955,-0.002196713314651238
1.5032897891266233,0.01497089818834955,0.027037613479444444,0.012350463029946239,0.01941558756389092,-0.0017679478396922985
1.5033613062815498,0.015499460648454992,0.030428872704378968,0.013981854206916533,0.021005502824981613,-0.0014163648189014643
1.5034328234364764,0.01793079665045714,0.030960542570895973,0.01416864675154985,0.020413036993863088,-0.0009112949247123506
1.503504340591403,0.021792554285279486,0.030622673050392582,0.013806564009865633,0.01946771354738803,-0.0006338085019597299
1.5035758577463296,0.026283745634476982,0.03359902470914822,0.015751292513310384,0.02080698395315593,0.00011912805397603606
1.5036473749012562,0.03053094650102892,0.03917973427199857,0.019003856556851165,0.025459154183857143,-6.883726383673687e-05
1.5037188920561828,0.03389868374654469,0.04654391865646442,0.02304438568669538,0.03314993794201735,-0.0014492774462798916
1.5037904092111094,0.03619247413189749,0.055331768713090444,0.02836367437687625,0.040807227312077095,-0.0017844244091627542
1.503861926366036,0.03764566473947448,0.06191511586002745,0.03246316988130233,0.04754693356992362,-0.0025452669330920286
1.5039334435209626,0.038716510453014726,0.06499002500916959,0.03408384953452373,0.054165529115608846,-0.005222281891540882
1.5040049606758892,0.0398171228344044,0.06660996960827678,0.03557140334761458,0.05848622121954135,-0.006625971043178365
1.5040764778308158,0.041095739566223526,0.07013123348846773,0.037525773851031737,0.06235204872359277,-0.0073816840921605885
1.5041479949857424,0.04234364882306056,0.07354787861878362,0.038887791087543686,0.06644736038400212,-0.00875160253215391
1.504219512140669,0.043051695709888996,0.07502752316533715,0.03921573232033744,0.06991605879247452,-0.010576071759288761
1.5042910292955955,0.04260283060723393,0.0702502679004937,0.036347749549566495,0.07091682704572151,-0.013483301680514833
1.5043625464505221,0.04053910287302065,0.05916814307493823,0.030363706364527798,0.06756742834793741,-0.016271396610897403
1.5044340636054487,0.03679439695722014,0.04530395299734167,0.02344001313236871,0.05941317435434352,-0.016916566440846742
1.5045055807603753,0.03178229372791513,0.03319314240470099,0.01698689592080203,0.051157962832898515,-0.017121851025096314
1.504577097915302,0.026296542555493532,0.024892334723023244,0.012446934359831944,0.04333038238161152,-0.016051797680493515
1.5046486150702285,0.021278189004975218,0.021825472919343815,0.011187449324425095,0.03673235155375033,-0.013095645195794689
1.504720132225155,0.017555651134353225,0.020952358891186906,0.011283372248322305,0.03203817511471239,-0.010199475187014275
1.5047916493800817,0.01564621916050789,0.019873205130064204,0.010644076718018416,0.02877842876880056,-0.008753820508929248
1.5048631665350083,0.015656872938766518,0.017648226945277713,0.009217644422453899,0.024642361045941082,-0.007412362685766066
1.5049346836899349,0.017286051262519187,0.01613634869733217,0.008230188330603324,0.020827281137277668,-0.005912598833878449
1.5050062008448615,0.019918755698584013,0.016128612364739385,0.007905738300784866,0.017808556813061812,-0.00436049000390915
1.505077717999788,0.022804926807040774,0.018464307973206355,0.009361654152707073,0.0158295292023871,-0.0020078265713559286
1.5051492351547147,0.025289013466251117,0.023402193595119476,0.011726326065843064,0.018946725653081826,-0.001986090920196999
1.5052207523096413,0.027015644551186973,0.028393963655222253,0.014241445734319206,0.022078362709998436,-0.001852455749505707
1.5052922694645678,0.028012475009877,0.03088151204794918,0.015961322224474977,0.02334805120647276,-0.0012377298834311125
1.5053637866194944,0.028596359216805502,0.027555606514718747,0.014919408532213189,0.02153115572163558,-0.000981367769901741
1.505435303774421,0.02915112616185344,0.021162289944128693,0.013309044659559194,0.016676987890769795,0.0006426434383052052
1.5055068209293476,0.029900153036102176,0.016864550859538405,0.012321918805932341,0.01246987204917187,0.0023770010065559933
1.5055783380842742,0.030782681811496897,0.016402434263927363,0.01250866989698158,0.010753494166043449,0.003556234604465654
1.5056498552392008,0.03146961942071043,0.018843616278962756,0.013496870470295333,0.012412060406716939,0.0033519633351898176
1.5057213723941274,0.03149161794629547,0.019966161677274465,0.013134126432083434,0.014893981721203198,0.0015725183067777401
1.505792889549054,0.030427310908792447,0.01920140839502644,0.011855838401314541,0.018106358817219278,-0.0013781271921229617
1.5058644067039806,0.02809465201809536,0.01673678793547571,0.009674998552531539,0.01961951731098203,-0.004031519783172244
1.5059359238589072,0.024683284499830333,0.012778458022127626,0.006168765257997816,0.019246860348644108,-0.006613581838581327
1.5060074410138338,0.020766913938386953,0.010324272282566011,0.003987129865862614,0.017726163033669484,-0.007446490679334242
1.5060789581687604,0.017165658691511196,0.011421219159544643,0.004506773893992003,0.01624365287795546,-0.006141012264013956
1.506150475323687,0.014695536880755058,0.014046409422479686,0.005603202541494299,0.01675187298408772,-0.005568739943852553
1.5062219924786135,0.013907828977730352,0.016459825367152365,0.006474304461408025,0.01750718428549785,-0.005325022538247349
1.5062935096335401,0.014929925183180436,0.017192453335233823,0.007024475314287043,0.016244117536700606,-0.004126802568835033
1.5063650267884667,0.01746107614733839,0.016498371796796002,0.006681651925523114,0.015583485970854108,-0.0040046660290396
1.5064365439433933,0.020900617081537138,0.018527903554211838,0.008103902228742074,0.015579891335103372,-0.0028644745231817884
1.50650806109832,0.024545654709518663,0.02312805213151528,0.01119024144466396,0.015343183100865954,-0.00025268007373307593
1.5065795782532465,0.027795889555703463,0.030648206314338268,0.015188716512202768,0.01916854747054235,0.0006520174739462937
1.506651095408173,0.030315638754338018,0.04034659622336995,0.02020329875354711,0.024753827332029323,0.0013148944186642138
1.5067226125630997,0.03210575674634778,0.049878611458083755,0.02516307524326057,0.03128617290184412,0.0013668694167830932
1.5067941297180263,0.03344435853615213,0.05535480243883752,0.02809340030703321,0.03699286404038434,0.00028931152094816416
1.5068656468729529,0.03469846610783441,0.05596230448803765,0.028836225363534616,0.03971750770132968,-0.0007512122109746335
1.5069371640278795,0.03608805388876267,0.05511338690025865,0.029158238083419115,0.04062670551287424,-0.0010390356757406143
1.507008681182806,0.03753193323000867,0.05500836036880483,0.029645090979329304,0.042386986585871596,-0.0017058444508677706
1.5070801983377327,0.038657419159163646,0.055261494928097885,0.03000532215028713,0.044258016976688845,-0.0025407979815464925
1.5071517154926592,0.038950459296790155,0.0539992275984072,0.029635790998015537,0.04465078043296109,-0.0030730422326666626
1.5072232326475858,0.03795818995272562,0.04808558436031608,0.026170643808596194,0.044627785726582284,-0.005837330033387118
1.5072947498025124,0.035465807062779846,0.040601275030131535,0.02167628316777021,0.04357034237199866,-0.008803848126911009
1.507366266957439,0.03160750390290827,0.03429386737177957,0.01779655130545853,0.04129676268784005,-0.010545807350809264
1.5074377841123656,0.02689036393457737,0.028906954974250307,0.014369878001425985,0.03858542299146687,-0.011661003942619617
1.5075093012672922,0.022110982309926926,0.024266017445925336,0.012274203971852665,0.03409935515116225,-0.01064417478712793
1.5075808184222188,0.018158898886019043,0.02123587175419863,0.010838451012952628,0.031161953154062224,-0.010029431058899358
1.5076523355771454,0.015750547010193554,0.01929611892696531,0.009985828883372298,0.028765994488824782,-0.00927320158722066
1.507723852732072,0.015198153002695225,0.01600600691660308,0.008495434228764531,0.024681215776385493,-0.008013659022244818
1.5077953698869986,0.01632710132796861,0.011690040603557675,0.006411917338543193,0.019556354358973814,-0.006604773164766478
1.5078668870419252,0.01858159605132472,0.00865422396315495,0.00521914285473996,0.014268543888713644,-0.004385772009295154
1.5079384041968518,0.02125563485920751,0.0070277089913781355,0.005152249488431391,0.00854609847285495,-0.0010055765393001377
1.5080099213517784,0.023737553869918368,0.007155832334406697,0.0057615299185219465,0.0051089736871184925,0.0015441354901916085
1.508081438506705,0.025680396681245936,0.009374731234553754,0.007453924502377228,0.0031042386170853646,0.004100932653360771
1.5081529556616315,0.027059576075294776,0.01137651713787241,0.008842952470356694,0.0019416545873469809,0.005909736486877715
1.5082244728165581,0.028112039179855254,0.010725959296575386,0.008942296206187028,0.00011760406688521867,0.007083528324643009
1.5082959899714847,0.029172386947160022,0.008707218031474838,0.008780907310022895,-0.0016607405764239214,0.008021298977873592
1.5083675071264113,0.03045818310099522,0.008926499705052675,0.010026451111954632,-0.002505652725673871,0.009524660429110989
1.508439024281338,0.03190386747651281,0.013325348813977221,0.012747040105629182,-0.0007636186620829156,0.01065621736175998
1.5085105414362645,0.03314377564440417,0.019651133481485606,0.01600259242207933,0.0036474480812153116,0.010615050626154362
1.508582058591191,0.03366149064758627,0.024743631069870212,0.0186299276568245,0.008087301604045556,0.010054438929294699
1.5086535757461177,0.03301661123576188,0.024183704955917127,0.017302793300784304,0.010530328246210384,0.007526815340844716
1.5087250929010443,0.031031763736761156,0.019587361990918574,0.013978643770450466,0.011328612746236474,0.00438754427218835
1.5087966100559709,0.02787943173947238,0.013731561185128636,0.009773118861112214,0.010409212795554115,0.0015738021582694893
1.5088681272108975,0.024071143965329337,0.008362952462407971,0.005405399448016361,0.009690587231414657,-0.0014897450088962854
1.508939644365824,0.020368522042175177,0.0042562724345129675,0.002619426200917792,0.007212296026793132,-0.0022316863973505167
1.5090111615207507,0.017622660517009992,0.002394029481650709,0.001280243020763253,0.006427507961696322,-0.0028321992369250938
1.5090826786756772,0.016549556574789192,0.0019159148413538764,0.001094148915450876,0.007171307941292262,-0.0034273628052260245
1.5091541958306038,0.01749078347259404,0.002234711355690369,0.001728275756159572,0.006872663767718275,-0.002740855951256922
1.5092257129855304,0.02026609634215111,0.0031736686161401174,0.002622344403247119,0.005341782512110375,-0.0011070461458611315
1.509297230140457,0.024225306810832306,0.0071564463728679695,0.005090188490138515,0.004903208122575398,0.0011304773788166427
1.5093687472953836,0.028505184243561566,0.015961849155273926,0.010396256019729185,0.006372396957458717,0.0044943639537697345
1.5094402644503102,0.032363241212534366,0.027879834158068963,0.017181792517199104,0.01053417072147049,0.007427667310522971
1.5095117816052368,0.035420479974014,0.040757836187194994,0.023785576506019895,0.016559487444107318,0.009099757867693539
1.5095832987601634,0.03772295943106026,0.0502553563865909,0.028541189697550762,0.021188708876982154,0.010131694511415372
1.50965481591509,0.039632532833370364,0.053040215509626815,0.030196375009199177,0.023540368851109255,0.01004716135511315
1.5097263330700166,0.041605230836871475,0.048201644003063315,0.028415936049993602,0.02232336281619293,0.009350766153567256
1.5097978502249432,0.04392716574129624,0.04086221485418097,0.026087173799228647,0.016915158309308353,0.010729444074283882
1.5098693673798698,0.04649881119729661,0.03684120260229244,0.025125670272120693,0.012504631365960604,0.0126047574350779
1.5099408845347964,0.048782229516577,0.037344531766412004,0.025898717163670308,0.012383845159435821,0.013296140860094667
1.510012401689723,0.04998265464348263,0.040543903097022764,0.027970420605425636,0.014621889110210845,0.013612913881716784
1.5100839188446495,0.04939582665258717,0.040861259658153695,0.02744804663090382,0.017220989364801254,0.011635863699879859
1.5101554359995761,0.046726633743720845,0.037743467032312274,0.024915387052692306,0.018811550970591943,0.008653575188164888
1.5102269531545027,0.04221494386441091,0.034170108245552513,0.022036546886626967,0.019564154789068658,0.0058968219575656865
1.5102984703094293,0.0365554045951188,0.031808853543515495,0.019143160662124768,0.020909013939319154,0.0027732742107050108
1.510369987464356,0.030705701566729478,0.031165746189674097,0.01712115674686206,0.022553820118135712,0.00016743815737865333
1.5104415046192825,0.025671938650474672,0.03183892615501051,0.016152578444133103,0.024477415553881488,-0.0017624460603212482
1.510513021774209,0.02230380117340663,0.03313103534728543,0.01595046449902194,0.027165353316595513,-0.0035376664487108698
1.5105845389291357,0.02110478427342222,0.03129886537873284,0.014310671393420193,0.027573815541525847,-0.005095634783764873
1.5106560560840623,0.022087028251984653,0.025767796390341123,0.011927341615445858,0.023240634864101908,-0.004402289358382982
1.5107275732389889,0.02474352062355467,0.01721264882534834,0.008315005741078718,0.016501631277316804,-0.00324868486911079
1.5107990903939155,0.028206425428266402,0.010846785573784233,0.006455089330600415,0.009247519073041806,-0.00038404855222259497
1.510870607548842,0.03156791810921427,0.008062061785424773,0.006924877381908108,0.0033919082367002552,0.0035050713859959325
1.5109421247037687,0.034217944840168574,0.008701063503676183,0.0085255112555674,0.00034900855875703726,0.006611251360273223
1.5110136418586952,0.036025983655989566,0.012401672806375235,0.01161661354179527,-0.0006582404233333142,0.009688581176471676
1.5110851590136218,0.03729532439305516,0.014326945972920498,0.013294021431409462,-0.0008162858607645138,0.011125438774498647
1.5111566761685484,0.03854470610167679,0.013001752410678573,0.013163190298163863,-0.0010183716305635733,0.011141990444824562
1.511228193323475,0.04022460916569971,0.011694614466864477,0.013651672900344249,-0.0031874643455637912,0.012833993158880867
1.5112997104784016,0.04246467581659284,0.012835386725253186,0.01442102957265151,-0.003723592972829394,0.01377111990246003
1.5113712276333282,0.04493429586497486,0.01821370244946167,0.016921655013448497,-0.001671984151616454,0.014541170671329961
1.5114427447882548,0.04689231770787431,0.024524752706949236,0.019784155718843215,0.0017495880474046475,0.014779431908247353
