freq,gls,usurper,pdc_unbiased,shape_periodogram,shift_periodogram
1.5,0.031605246424144244,0.031269586475720514,0.022003088454338578,0.02490587136488956,0.004346781364010506
1.5000715171549266,0.028595336453250155,0.024153050604675572,0.01679692217781675,0.019401773031789492,0.003099242969059155
1.5001430343098532,0.024797888546036324,0.0181528921226668,0.011419584810450916,0.01520603067754024,0.0009803689716141157
1.5002145514647798,0.020789812632417533,0.01627358257765849,0.008796510756732951,0.011551636397866933,0.0008451967254911903
1.5002860686197064,0.017345459787468324,0.018988842343765536,0.009479677332466734,0.01011378497127754,0.002215065984214307
1.500357585774633,0.015271945925960987,0.023757656814598377,0.011714688134418397,0.010777458362470795,0.0036987141109112213
1.5004291029295596,0.015165201318802408,0.02938248076765421,0.01415548030345099,0.014093188133971016,0.0038721183027507567
1.5005006200844861,0.01716595655706576,0.034685521563653066,0.016954003693511403,0.016716929331668313,0.004729167164162584
1.5005721372394127,0.02086274426290797,0.03881473487362508,0.019187221778694714,0.019394128501691955,0.0050875365597700265
1.5006436543943393,0.02544081002802935,0.042420574209574735,0.02137618975240262,0.022121893170930263,0.005381237076689733
1.500715171549266,0.03000884122307953,0.04633664378838597,0.02421994995090846,0.023644332561839,0.006892174770031404
1.5007866887041925,0.03391266896856934,0.05086138245661285,0.02666061786266369,0.02817064802704357,0.006391278761076687
1.500858205859119,0.0368882624749449,0.05592880424731499,0.029368029530911475,0.033951337180257675,0.0054117274396399
1.5009297230140457,0.0390355018056212,0.06143364973851425,0.03287087235373193,0.041456268734897585,0.004130384030144157
1.5010012401689723,0.04067274274449097,0.06345425076887491,0.0349635290275476,0.0475376171417779,0.0024719634075565087
1.5010727573238989,0.04213722341942038,0.06371123570337844,0.036798409825528795,0.0515130039434387,0.0017761757833748746
1.5011442744788255,0.043587855733941964,0.0637310601614321,0.03793328428010061,0.054757145210238674,0.0009066175335670323
1.501215791633752,0.044880915226329254,0.06341508270977192,0.03824814004694497,0.05731551773647813,-0.0002623281331424432
1.5012873087886787,0.045592465454410994,0.06445918125777647,0.03896037083855539,0.05989008140890019,-0.0011097122730585344
1.5013588259436053,0.04519857422015515,0.06373466706267115,0.038338310339186395,0.05961201552732515,-0.0014721861719648856
1.5014303430985318,0.04331902735671992,0.05976418981824524,0.03525172960142179,0.05935630190927924,-0.0038991029005388516
1.5015018602534584,0.03989064242203222,0.05144246603910568,0.029380562295107576,0.05654293178510421,-0.007210042823730598
1.501573377408385,0.035207008956161204,0.04165941454055335,0.02275340008029923,0.052980816333272104,-0.010726464419789524
1.5016448945633116,0.029854908046904056,0.03275771836932433,0.01716592382272006,0.046720814793541524,-0.011865382533542704
1.5017164117182382,0.02460404968418353,0.025313122100229832,0.01272729457488559,0.03952216915070772,-0.011523987679033126
1.5017879288731648,0.020274028275387688,0.020756733219718694,0.010756457121333964,0.033571291014666854,-0.009832283665824518
1.5018594460280914,0.01756978332877583,0.018483030328243562,0.009814843547662735,0.030307906951964603,-0.008789445155231597
1.501930963183018,0.016887968997375314,0.017900520922161853,0.009773529530205848,0.027086259231885894,-0.0070230797622445945
1.5020024803379446,0.018154766828972088,0.017044726429973817,0.009545857603491862,0.024076402324172297,-0.005530016906084056
1.5020739974928712,0.020807783027131654,0.017591240817649484,0.00997328939183271,0.021956084959338516,-0.003990592836432811
1.5021455146477978,0.023992628107040868,0.02022375622349943,0.01144212206274167,0.021125145406249733,-0.0023074811293771653
1.5022170318027244,0.026898257150269028,0.02493259058185827,0.014028974316248104,0.022724554132194992,-0.0010542411882053459
1.502288548957651,0.029041972437567,0.02991064807956623,0.016679671046279716,0.02562953244232786,-0.00047709198252624305
1.5023600661125776,0.03036170293294545,0.03516312614204154,0.019990738498687276,0.029533565898757448,9.053157954817925e-05
1.5024315832675041,0.031115659296329378,0.035912869277009214,0.02077896981185265,0.03250407965281265,-0.0009148333601471766
1.5025031004224307,0.031680428730509906,0.03295135442020063,0.019519808615351825,0.03383426220780774,-0.002703920278228865
1.5025746175773573,0.032340192227813126,0.029022506645005042,0.018649627815208736,0.03248251203122458,-0.002671009975551568
1.502646134732284,0.033131945974426154,0.026251351301225863,0.017871043624403338,0.029801790775730187,-0.0018193399025754884
1.5027176518872105,0.033797027787609374,0.025768554906544214,0.01799769758677829,0.02848205999211391,-0.000976729151874696
1.502789169042137,0.033871437590867574,0.024566155122094414,0.017486670760106647,0.026235691845050573,-0.0001458420548422358
1.5028606861970637,0.03289397904446062,0.021168549451761942,0.015274482970942199,0.024133108193229152,-0.0008074321883507809
1.5029322033519903,0.030638444170610023,0.017187920431475545,0.012011118949132128,0.022571798061923963,-0.0026435404583722024
1.5030037205069169,0.02725242384486997,0.014963294183233925,0.009441040885373031,0.021607382507347943,-0.00423741645994935
1.5030752376618435,0.023245599290448483,0.01635312445252531,0.008606550278537486,0.021060664466109366,-0.004624378856107609
1.50314675481677,0.019358366958489085,0.019847722865199435,0.008953985446160287,0.020778277342821293,-0.004178321790056196
1.5032182719716967,0.01638051368297583,0.024401789070048786,0.010426555451109277,0.02070753694824345,-0.0029169005636077434
1.5032897891266233,0.01497089818834955,0.02879178761976263,0.012350463029946239,0.0212815994705525,-0.0016411015068291523
1.5033613062815498,0.015499460648454992,0.03230859049987946,0.013981854206916533,0.021501446913768815,-0.00041003534127503346
1.5034328234364764,0.01793079665045714,0.032902207247756415,0.01416864675154985,0.019700748297342533,0.0007509150183638663
1.503504340591403,0.021792554285279486,0.03246588507148368,0.013806564009865633,0.017428077294746366,0.0017199204273376826
1.5035758577463296,0.026283745634476982,0.03540944978782917,0.015751292513310384,0.017629576754362213,0.003221272932786814
1.5036473749012562,0.03053094650102892,0.0411280235063606,0.019003856556851165,0.021721536203379493,0.0036353989030011974
1.5037188920561828,0.03389868374654469,0.04877128247692836,0.02304438568669538,0.028977025081924224,0.0029372926185348043
1.5037904092111094,0.03619247413189749,0.058041817654731806,0.02836367437687625,0.036453283487818816,0.0031792559588914816
1.503861926366036,0.03764566473947448,0.06514386408541536,0.03246316988130233,0.043652794677479644,0.00256377824627354
1.5039334435209626,0.038716510453014726,0.06856382417756163,0.03408384953452373,0.050931447263528565,-0.00015753480559173113
1.5040049606758892,0.0398171228344044,0.07026029960940162,0.03557140334761458,0.05598096108403485,-0.0017441381176975712
1.5040764778308158,0.041095739566223526,0.07383654038525371,0.037525773851031737,0.060160688717783295,-0.002455904659405634
1.5041479949857424,0.04234364882306056,0.07729018966311609,0.038887791087543686,0.06420008560684543,-0.003582641247169056
1.504219512140669,0.043051695709888996,0.07875656376117414,0.03921573232033744,0.06776942189982237,-0.005308289252696443
1.5042910292955955,0.04260283060723393,0.07389248993254074,0.036347749549566495,0.06905377226534881,-0.008417364153313683
1.5043625464505221,0.04053910287302065,0.06250553224968634,0.030363706364527798,0.06671037624630406,-0.01208682608887767
1.5044340636054487,0.03679439695722014,0.04816901247520651,0.02344001313236871,0.06002935075219173,-0.014102778281776298
1.5045055807603753,0.03178229372791513,0.03561000410988508,0.01698689592080203,0.05325352454845891,-0.01567077171380027
1.504577097915302,0.026296542555493532,0.026948312951274127,0.012446934359831944,0.046638117054642055,-0.015737917021115398
1.5046486150702285,0.021278189004975218,0.023640275084632848,0.011187449324425095,0.04085261383237745,-0.013546456670149911
1.504720132225155,0.017555651134353225,0.022552253111141323,0.011283372248322305,0.03667543693122893,-0.01113058212219689
1.5047916493800817,0.01564621916050789,0.021312591831772962,0.010644076718018416,0.03373050585205699,-0.010014572167772372
1.5048631665350083,0.015656872938766518,0.01892848668564466,0.009217644422453899,0.029791974682822783,-0.008996659079014131
1.5049346836899349,0.017286051262519187,0.01727949531217287,0.008230188330603324,0.025740312967273502,-0.007551575813426702
1.5050062008448615,0.019918755698584013,0.017206420429252526,0.007905738300784866,0.02207709888365419,-0.005773787720327922
1.505077717999788,0.022804926807040774,0.019462698462278168,0.009361654152707073,0.01944287259252636,-0.003093978997531818
1.5051492351547147,0.025289013466251117,0.024527261107386233,0.011726326065843064,0.022152213635029176,-0.002645454674824659
1.5052207523096413,0.027015644551186973,0.02975796615398182,0.014241445734319206,0.02514491137938837,-0.0022301835624604534
1.5052922694645678,0.028012475009877,0.03241309750830165,0.015961322224474977,0.026347530937956685,-0.001474563560713224
1.5053637866194944,0.028596359216805502,0.02909072984676562,0.014919408532213189,0.025022956092186573,-0.0015993237666495905
1.505435303774421,0.02915112616185344,0.02239764483985292,0.013309044659559194,0.021239828256187105,-0.0008222540847123374
1.5055068209293476,0.029900153036102176,0.017722155915309526,0.012321918805932341,0.017828055851213116,0.0002644903899016622
1.5055783380842742,0.030782681811496897,0.017069443170048545,0.01250866989698158,0.0162018729729298,0.0013278169209224766
1.5056498552392008,0.03146961942071043,0.019550263781177617,0.013496870470295333,0.017634726523733744,0.0013474924779620092
1.5057213723941274,0.03149161794629547,0.020871744066882993,0.013134126432083434,0.02006308568489634,-0.00031003195780247893
1.505792889549054,0.030427310908792447,0.02031977202470111,0.011855838401314541,0.02297504516049263,-0.002997706033639105
1.5058644067039806,0.02809465201809536,0.018051187659081976,0.009674998552531539,0.02418245390568315,-0.005482114489037899
1.5059359238589072,0.024683284499830333,0.014297285313286142,0.006168765257997816,0.023927536800917557,-0.008248973598768626
1.5060074410138338,0.020766913938386953,0.0119504472006225,0.003987129865862614,0.02244460208915537,-0.009230302644643487
1.5060789581687604,0.017165658691511196,0.013115149212218902,0.004506773893992003,0.020467364398163986,-0.007694380861788069
1.506150475323687,0.014695536880755058,0.015776490351963476,0.005603202541494299,0.01994535989177684,-0.006493088248199522
1.5062219924786135,0.013907828977730352,0.018155196113252507,0.006474304461408025,0.019290817536727956,-0.005404674604319909
1.5062935096335401,0.014929925183180436,0.01876613397834716,0.007024475314287043,0.016588799720627483,-0.003438683495037514
1.5063650267884667,0.01746107614733839,0.017855549013538086,0.006681651925523114,0.014540658592119272,-0.0025789626012845644
1.5064365439433933,0.020900617081537138,0.019687526278698804,0.008103902228742074,0.013166667381708564,-0.0006315118697208634
1.50650806109832,0.024545654709518663,0.024254686248450622,0.01119024144466396,0.011760460072899657,0.002714568604061221
1.5065795782532465,0.027795889555703463,0.032053201404636564,0.015188716512202768,0.014957755073820616,0.004246663357478153
1.506651095408173,0.030315638754338018,0.042206415553847576,0.02020329875354711,0.02027657927748999,0.005438138844366594
1.5067226125630997,0.03210575674634778,0.052315088148685775,0.02516307524326057,0.026850245712266994,0.005884906159544392
1.5067941297180263,0.03344435853615213,0.05821571405749709,0.02809340030703321,0.03303644281041495,0.004863661424702532
1.5068656468729529,0.03469846610783441,0.05887260562166118,0.028836225363534616,0.03638315336236052,0.0036111543710143127
1.5069371640278795,0.03608805388876267,0.05782227428909964,0.029158238083419115,0.037727824912939426,0.003127420831991343
1.507008681182806,0.03753193323000867,0.05752113737276366,0.029645090979329304,0.03960600439311619,0.002482519787636867
1.5070801983377327,0.038657419159163646,0.05754859267459368,0.03000532215028713,0.04115663506866527,0.0019153536452963117
1.5071517154926592,0.038950459296790155,0.05609421376907941,0.029635790998015537,0.041310392182410866,0.0015222231368866716
1.5072232326475858,0.03795818995272562,0.050073193161280186,0.026170643808596194,0.04125194946154039,-0.0013252401079635783
1.5072947498025124,0.035465807062779846,0.042460993687655414,0.02167628316777021,0.04036418161992442,-0.004563204179786978
1.507366266957439,0.03160750390290827,0.03609301714630687,0.01779655130545853,0.03864898293265227,-0.00682660450622549
1.5074377841123656,0.02689036393457737,0.030687061216213955,0.014369878001425985,0.036889954689570896,-0.008688310809041838
1.5075093012672922,0.022110982309926926,0.02594713378087167,0.012274203971852665,0.03384266149112093,-0.008724235912898956
1.5075808184222188,0.018158898886019043,0.022818658407461417,0.010838451012952628,0.03232406865705059,-0.009066961757563732
1.5076523355771454,0.015750547010193554,0.020783997215281496,0.009985828883372298,0.03076989773998917,-0.008905788397182247
1.507723852732072,0.015198153002695225,0.017319340988854005,0.008495434228764531,0.027062621811373647,-0.008070471448954316
1.5077953698869986,0.01632710132796861,0.012752435505067702,0.006411917338543193,0.021851802293400214,-0.006887335627409312
1.5078668870419252,0.01858159605132472,0.009437670974936795,0.00521914285473996,0.016336399858653795,-0.004795441317089626
1.5079384041968518,0.02125563485920751,0.0075441075757550925,0.005152249488431391,0.010299890469306437,-0.0014789296547501043
1.5080099213517784,0.023737553869918368,0.007495273237819485,0.0057615299185219465,0.006613315445489805,0.0010856018090421627
1.508081438506705,0.025680396681245936,0.009732604955994777,0.007453924502377228,0.0045469273546844755,0.003643627160455687
1.5081529556616315,0.027059576075294776,0.011875681588758605,0.008842952470356694,0.0033919799896670643,0.0054409263168661865
1.5082244728165581,0.028112039179855254,0.01127188963305231,0.008942296206187028,0.001981692876966092,0.006310946396477492
1.5082959899714847,0.029172386947160022,0.00917249138309557,0.008780907310022895,0.0009479741725450428,0.006754371442768769
1.5083675071264113,0.03045818310099522,0.009238879037448274,0.010026451111954632,0.0006880457785191451,0.007932756359015828
1.508439024281338,0.03190386747651281,0.013583801443033859,0.012747040105629182,0.0023910936325202427,0.00923860559524265
1.5085105414362645,0.03314377564440417,0.019970560164896754,0.01600259242207933,0.006218883403576008,0.009802104964209213
1.508582058591191,0.03366149064758627,0.02520536589191046,0.0186299276568245,0.01009044855846763,0.009820416285853381
1.5086535757461177,0.03301661123576188,0.024911599662357745,0.017302793300784304,0.012320878656566552,0.0074736330113971215
1.5087250929010443,0.031031763736761156,0.02042082354363869,0.013978643770450466,0.013063880141334744,0.004300247838104258
1.5087966100559709,0.02787943173947238,0.014599790638088765,0.009773118861112214,0.012053346696342646,0.0013752199505375825
1.5088681272108975,0.024071143965329337,0.009301404307932063,0.005405399448016361,0.011327429366170972,-0.001842871028575595
1.508939644365824,0.020368522042175177,0.005193889395088059,0.002619426200917792,0.009031814936735792,-0.002871724824939064
1.5090111615207507,0.017622660517009992,0.0033035798739533386,0.001280243020763253,0.008161824564957183,-0.0034966598570189663
1.5090826786756772,0.016549556574789192,0.00277104809490499,0.001094148915450876,0.008763413696875546,-0.003987048062821952
1.5091541958306038,0.01749078347259404,0.0029949859812361773,0.001728275756159572,0.008183223803749792,-0.00313696490382732
1.5092257129855304,0.02026609634215111,0.0038730595446237236,0.002622344403247119,0.005842069598422633,-0.0010876895958143533
1.509297230140457,0.024225306810832306,0.007848141447294637,0.005090188490138515,0.00408107885114974,0.0019429909114431004
1.5093687472953836,0.028505184243561566,0.01674897879672561,0.010396256019729185,0.0040588278292456,0.006357087286198767
1.5094402644503102,0.032363241212534366,0.028904359293661606,0.017181792517199104,0.006956668067747871,0.010368557029335985
1.5095117816052368,0.035420479974014,0.042214160904831745,0.023785576506019895,0.011748842991309873,0.013173390282302685
1.5095832987601634,0.03772295943106026,0.052023491435161426,0.028541189697550762,0.015555141179652347,0.014996682723072105
1.50965481591509,0.039632532833370364,0.05489933458889365,0.030196375009199177,0.01782616800265658,0.015103568140085295
1.5097263330700166,0.041605230836871475,0.0499251336473197,0.028415936049993602,0.017458716086590335,0.013830137405028607
1.5097978502249432,0.04392716574129624,0.04214549792260242,0.026087173799228647,0.013263786307364153,0.01423825395233417
1.5098693673798698,0.04649881119729661,0.03767411285826764,0.025125670272120693,0.00918452234757791,0.01571715902857064
1.5099408845347964,0.048782229516577,0.03783521318697376,0.025898717163670308,0.008840924231292705,0.016550586363680696
1.510012401689723,0.04998265464348263,0.04080789565230237,0.027970420605425636,0.010443836931084463,0.01737561307168463
1.5100839188446495,0.04939582665258717,0.04108771620847713,0.02744804663090382,0.012243394753539659,0.01593757019725635
1.5101554359995761,0.046726633743720845,0.03807087083109387,0.024915387052692306,0.013521639172087097,0.013121561474112028
1.5102269531545027,0.04221494386441091,0.034606961034835175,0.022036546886626967,0.01440981197800636,0.010236002604372666
1.5102984703094293,0.0365554045951188,0.03249799056909453,0.019143160662124768,0.01621508450144115,0.0068263657418066006
1.510369987464356,0.030705701566729478,0.0321825085197892,0.01712115674686206,0.01842913639615493,0.003911609414133176
1.5104415046192825,0.025671938650474672,0.033211790518184445,0.016152578444133103,0.020675489181903095,0.0018529788436802803
1.510513021774209,0.02230380117340663,0.03476181597202814,0.01595046449902194,0.02359291059339074,5.545479806564133e-05
1.5105845389291357,0.02110478427342222,0.03309509696614649,0.014310671393420193,0.024321652492277995,-0.0017127442064762716
1.5106560560840623,0.022087028251984653,0.02744650231385943,0.011927341615445858,0.020422376424949682,-0.0015122088261149346
1.5107275732389889,0.02474352062355467,0.01850082935713031,0.008315005741078718,0.014005276724851645,-0.0009247985928821227
1.5107990903939155,0.028206425428266402,0.011721108679239296,0.006455089330600415,0.007051585243096086,0.0014161662703960605
1.510870607548842,0.03156791810921427,0.008569145251210879,0.006924877381908108,0.0015095838969011572,0.00490109361280703
1.5109421247037687,0.034217944840168574,0.009062582273283885,0.0085255112555674,-0.0010868617804849483,0.0076789181724664386
1.5110136418586952,0.036025983655989566,0.012822425512757911,0.01161661354179527,-0.0015795396783746076,0.010518181317559938
1.5110851590136218,0.03729532439305516,0.014844270594124746,0.013294021431409462,-0.0009029744001828061,0.011531837158485556
1.5111566761685484,0.03854470610167679,0.01364521337571548,0.013163190298163863,0.00032914204849089775,0.01073527116447871
1.511228193323475,0.04022460916569971,0.012321704768434095,0.013651672900344249,-0.0005477194606651113,0.011630148673915274
1.5112997104784016,0.04246467581659284,0.013466878426497521,0.01442102957265151,-0.0008943365559763117,0.012461927017006692
1.5113712276333282,0.04493429586497486,0.018945799665151673,0.016921655013448497,0.0008621675194869435,0.013555629081753704
1.5114427447882548,0.04689231770787431,0.02532439397889184,0.019784155718843215,0.003550727377275156,0.01442947866140043
1.5115142619431814,0.047454803887083834,0.028028975627328024,0.02007376929597759,0.006311828582950342,0.013128273648499045
