freq,gls,usurper,pdc_unbiased,shape_periodogram,shift_periodogram
1.5,0.031605246424144244,0.02939868097198835,0.022003088454338578,0.014245271105711515,0.011888029340356423
1.5000715171549266,0.028595336453250155,0.022695731591452304,0.01679692217781675,0.010697419005809923,0.009162545935482073
1.5001430343098532,0.024797888546036324,0.016944087768262475,0.011419584810450916,0.007918211812401158,0.0059045939254873826
1.5002145514647798,0.020789812632417533,0.015090489639572026,0.008796510756732951,0.0051998743197441835,0.004999466628779671
1.5002860686197064,0.017345459787468324,0.017547917878832774,0.009479677332466734,0.004063041747421302,0.00616088691626838
1.500357585774633,0.015271945925960987,0.02190514291392568,0.011714688134418397,0.0048167401865105396,0.007716107219185307
1.5004291029295596,0.015165201318802408,0.027032146185545333,0.01415548030345099,0.0078620751365062,0.008299683902343995
1.5005006200844861,0.01716595655706576,0.031853906436179524,0.016954003693511403,0.010496710757847038,0.009399159292711765
1.5005721372394127,0.02086274426290797,0.03556706223621256,0.019187221778694714,0.01345154264094285,0.009849226019819248
1.5006436543943393,0.02544081002802935,0.0389068634353817,0.02137618975240262,0.017141373603847574,0.009892636320866859
1.500715171549266,0.03000884122307953,0.04261096646157144,0.02421994995090846,0.020136188212286382,0.010851989188249977
1.5007866887041925,0.03391266896856934,0.0468140657223626,0.02666061786266369,0.02551047860571549,0.010269353685408834
1.500858205859119,0.0368882624749449,0.05155848696397452,0.029368029530911475,0.03133208939118051,0.009693932899848845
1.5009297230140457,0.0390355018056212,0.05675416066078832,0.03287087235373193,0.03833966594125358,0.009213595019701704
1.5010012401689723,0.04067274274449097,0.05876393956713122,0.0349635290275476,0.04328349810616898,0.00854711399952189
1.5010727573238989,0.04213722341942038,0.0592945329316816,0.036798409825528795,0.04596183313390691,0.0087944581629014
1.5011442744788255,0.043587855733941964,0.05949102003272405,0.03793328428010061,0.04810573206131175,0.008703047840551398
1.501215791633752,0.044880915226329254,0.05931924762304357,0.03824814004694497,0.05020606330365986,0.007921953127315655
1.5012873087886787,0.045592465454410994,0.06034446948285457,0.03896037083855539,0.05151577574919462,0.007882604459568218
1.5013588259436053,0.04519857422015515,0.05966403089869002,0.038338310339186395,0.0502505109150593,0.007977896588217813
1.5014303430985318,0.04331902735671992,0.0560086187307759,0.03525172960142179,0.05002385846092155,0.005413300651881083
1.5015018602534584,0.03989064242203222,0.04820978830016949,0.029380562295107576,0.047678194057428645,0.0014991174521555722
1.501573377408385,0.035207008956161204,0.03909115691230576,0.02275340008029923,0.044844094050307995,-0.0028212850399217003
1.5016448945633116,0.029854908046904056,0.030859241926923985,0.01716592382272006,0.039361314777299844,-0.004906610174267479
1.5017164117182382,0.02460404968418353,0.0239338964989841,0.01272729457488559,0.033012903816789604,-0.005560493292155239
1.5017879288731648,0.020274028275387688,0.019770960134138874,0.010756457121333964,0.027683853080328502,-0.004590002170532931
1.5018594460280914,0.01756978332877583,0.017630732162577975,0.009814843547662735,0.024254521112531558,-0.0036829763647557917
1.501930963183018,0.016887968997375314,0.01701991757814212,0.009773529530205848,0.021377891161417945,-0.002274574647886201
1.5020024803379446,0.018154766828972088,0.01616856837886791,0.009545857603491862,0.019133619641675825,-0.0013450040449387644
1.5020739974928712,0.020807783027131654,0.016678773608999928,0.00997328939183271,0.018128124288253084,-0.00047047686592310064
1.5021455146477978,0.023992628107040868,0.019125259282417286,0.01144212206274167,0.017819710506273567,0.000955229082909912
1.5022170318027244,0.026898257150269028,0.02348482870405467,0.014028974316248104,0.01949702624779081,0.0023518572737749746
1.502288548957651,0.029041972437567,0.027960957639967556,0.016679671046279716,0.0211467731337076,0.0038179063678434274
1.5023600661125776,0.03036170293294545,0.03287201277557783,0.019990738498687276,0.023746745332912877,0.005379157340363335
1.5024315832675041,0.031115659296329378,0.03348229071335813,0.02077896981185265,0.024869520981629947,0.005498101972860063
1.5025031004224307,0.031680428730509906,0.030663947241706648,0.019519808615351825,0.024530557339858695,0.004578127285507338
1.5025746175773573,0.032340192227813126,0.027037315891402146,0.018649627815208736,0.02251254119088231,0.004837595503008316
1.502646134732284,0.033131945974426154,0.024513245037130028,0.017871043624403338,0.020423045600499838,0.005212243928428608
1.5027176518872105,0.033797027787609374,0.02422556769397707,0.01799769758677829,0.019126226843341605,0.00597260816669055
1.502789169042137,0.033871437590867574,0.023166924734497,0.017486670760106647,0.016736670979365695,0.006729350367158538
1.5028606861970637,0.03289397904446062,0.020032843520597397,0.015274482970942199,0.014653461718978009,0.005860287501410431
1.5029322033519903,0.030638444170610023,0.016293704379306793,0.012011118949132128,0.013427984454679605,0.0036515729246024303
1.5030037205069169,0.02725242384486997,0.014173862433821077,0.009441040885373031,0.012904371373730945,0.0016907675151568054
1.5030752376618435,0.023245599290448483,0.015375536705110169,0.008606550278537486,0.012429005474301862,0.0012073859957105616
1.50314675481677,0.019358366958489085,0.018485304335667533,0.008953985446160287,0.012540160693963957,0.0014521777313715005
1.5032182719716967,0.01638051368297583,0.022541615690670563,0.010426555451109277,0.013103226751196613,0.0024435983370169278
1.5032897891266233,0.01497089818834955,0.026479840227230555,0.012350463029946239,0.014453075904454648,0.003430763370917272
1.5033613062815498,0.015499460648454992,0.029620256127335324,0.013981854206916533,0.01578289947958521,0.004175014930555864
1.5034328234364764,0.01793079665045714,0.029999129902931958,0.01416864675154985,0.015551957299997641,0.004452537401672343
1.503504340591403,0.021792554285279486,0.029424831894059877,0.013806564009865633,0.015486558333324688,0.004172046672098548
1.5035758577463296,0.026283745634476982,0.032155116370765624,0.015751292513310384,0.01805657170219922,0.00456522282095258
1.5036473749012562,0.03053094650102892,0.03748363219590979,0.019003856556851165,0.023957225617503287,0.0044192137869435225
1.5037188920561828,0.03389868374654469,0.04448840387165042,0.02304438568669538,0.030960394216054822,0.004402844492800687
1.5037904092111094,0.03619247413189749,0.05305486977245484,0.02836367437687625,0.03784891604462983,0.005553325341392009
1.503861926366036,0.03764566473947448,0.05952655155155255,0.03246316988130233,0.04390717588280319,0.006065758606078272
1.5039334435209626,0.038716510453014726,0.06258487097927395,0.03408384953452373,0.04957062367639204,0.004627695289966433
1.5040049606758892,0.0398171228344044,0.06413756450432438,0.03557140334761458,0.05274381458211885,0.004324635722463706
1.5040764778308158,0.041095739566223526,0.06736484668906366,0.037525773851031737,0.055700433886469856,0.004535763738058373
1.5041479949857424,0.04234364882306056,0.07057508453247377,0.038887791087543686,0.05883317964001038,0.004144465050111553
1.504219512140669,0.043051695709888996,0.07209656996947968,0.03921573232033744,0.061121778669629076,0.0032792401294667976
1.5042910292955955,0.04260283060723393,0.06785648335694582,0.036347749549566495,0.061197821896808786,0.0007503499605829373
1.5043625464505221,0.04053910287302065,0.05757447444695841,0.030363706364527798,0.058489607502157086,-0.003081884646928697
1.5044340636054487,0.03679439695722014,0.04461647118074234,0.02344001313236871,0.05238664872404294,-0.00601736947225483
1.5045055807603753,0.03178229372791513,0.033256501909165403,0.01698689592080203,0.04635363884596291,-0.0085756921766707
1.504577097915302,0.026296542555493532,0.025429225258114974,0.012446934359831944,0.04070619445480592,-0.009668441733393034
1.5046486150702285,0.021278189004975218,0.022483956488404296,0.011187449324425095,0.03556219934131613,-0.00817396947318805
1.504720132225155,0.017555651134353225,0.021547303795345363,0.011283372248322305,0.031752583307818716,-0.006177279967189778
1.5047916493800817,0.01564621916050789,0.02031613611045719,0.010644076718018416,0.029092552484923657,-0.005394654319157015
1.5048631665350083,0.015656872938766518,0.01798510559546218,0.009217644422453899,0.026103723545792257,-0.005128219990193971
1.5049346836899349,0.017286051262519187,0.01634220577807536,0.008230188330603324,0.023130222337316785,-0.004489695169350298
1.5050062008448615,0.019918755698584013,0.01606442870379371,0.007905738300784866,0.020601543446603338,-0.0035009424649786454
1.505077717999788,0.022804926807040774,0.018077520981555115,0.009361654152707073,0.01893576896226945,-0.0014050713826757066
1.5051492351547147,0.025289013466251117,0.022716648453001656,0.011726326065843064,0.021381812098138143,-0.0005867728046038076
1.5052207523096413,0.027015644551186973,0.027402028745588655,0.014241445734319206,0.023580303710553682,0.00048624988655167085
1.5052922694645678,0.028012475009877,0.029702079231253346,0.015961322224474977,0.02397933418899468,0.0017745126519974
1.5053637866194944,0.028596359216805502,0.026570473119386557,0.014919408532213189,0.022180520536044447,0.0017756103532382958
1.505435303774421,0.02915112616185344,0.02056256667306934,0.013309044659559194,0.018147034495988465,0.002406394067423541
1.5055068209293476,0.029900153036102176,0.01634040325934454,0.012321918805932341,0.015263681572386698,0.002999274445229439
1.5055783380842742,0.030782681811496897,0.015759266161681097,0.01250866989698158,0.013960655916077452,0.0038147581986468994
1.5056498552392008,0.03146961942071043,0.018029802620704655,0.013496870470295333,0.014615144321631397,0.004341364386902941
1.5057213723941274,0.03149161794629547,0.0191745629834171,0.013134126432083434,0.015757333498612063,0.0034543143640664888
1.505792889549054,0.030427310908792447,0.018687731914041585,0.011855838401314541,0.017636534550487054,0.0014051413760485156
1.5058644067039806,0.02809465201809536,0.016681543498714164,0.009674998552531539,0.0183719668174738,-0.0008509597396282146
1.5059359238589072,0.024683284499830333,0.013163500177996234,0.006168765257997816,0.017808433609790612,-0.0036016136621777424
1.5060074410138338,0.020766913938386953,0.010960292312691309,0.003987129865862614,0.0165195909505521,-0.004841988940993856
1.5060789581687604,0.017165658691511196,0.012043754260195678,0.004506773893992003,0.015171344354931011,-0.003715703033585533
1.506150475323687,0.014695536880755058,0.014386258984659376,0.005603202541494299,0.015555361533650898,-0.00295995368938185
1.5062219924786135,0.013907828977730352,0.016354924720414287,0.006474304461408025,0.016046179441742036,-0.002452715302789285
1.5062935096335401,0.014929925183180436,0.0167126563184919,0.007024475314287043,0.015363646869279518,-0.0016341682086553917
1.5063650267884667,0.01746107614733839,0.01573978764361958,0.006681651925523114,0.016070555925197814,-0.0022855696446017707
1.5064365439433933,0.020900617081537138,0.01736411952044536,0.008103902228742074,0.017412661343882852,-0.001728762708723194
1.50650806109832,0.024545654709518663,0.021556795883242805,0.01119024144466396,0.018094915700266213,0.0005991587006558902
1.5065795782532465,0.027795889555703463,0.028698930091458436,0.015188716512202768,0.021989201432045205,0.002104711977562574
1.506651095408173,0.030315638754338018,0.03788200961757457,0.02020329875354711,0.02671008130405054,0.004075997149972738
1.5067226125630997,0.03210575674634778,0.04702372483098146,0.02516307524326057,0.032112029027219886,0.0056598591361462355
1.5067941297180263,0.03344435853615213,0.052347878778977494,0.02809340030703321,0.037129204136596504,0.005680377892701377
1.5068656468729529,0.03469846610783441,0.05296580556585048,0.028836225363534616,0.03944161169987416,0.005163349189566464
1.5069371640278795,0.03608805388876267,0.052085720835032545,0.029158238083419115,0.040405394503083183,0.00495860811034849
1.507008681182806,0.03753193323000867,0.05195086849285931,0.029645090979329304,0.04181664416878365,0.0046720952639933274
1.5070801983377327,0.038657419159163646,0.052174018486914456,0.03000532215028713,0.04285856907923881,0.004461241356556289
1.5071517154926592,0.038950459296790155,0.05110712518685934,0.029635790998015537,0.04194416525254927,0.004600009662514893
1.5072232326475858,0.03795818995272562,0.04575416031671197,0.026170643808596194,0.04100730559112091,0.0020671635708024625
1.5072947498025124,0.035465807062779846,0.03889615721755847,0.02167628316777021,0.03994597665395585,-0.0012937925086641201
1.507366266957439,0.03160750390290827,0.0332192915705044,0.01779655130545853,0.03778510253090721,-0.0035686726082492194
1.5074377841123656,0.02689036393457737,0.028513335654475978,0.014369878001425985,0.03528003435353933,-0.00527732361062439
1.5075093012672922,0.022110982309926926,0.024476562452987436,0.012274203971852665,0.03168624185143614,-0.005286360135519454
1.5075808184222188,0.018158898886019043,0.021764187373825097,0.010838451012952628,0.029624117780900384,-0.005493380657914537
1.5076523355771454,0.015750547010193554,0.019956380708870115,0.009985828883372298,0.027774511818743686,-0.005302430444654661
1.507723852732072,0.015198153002695225,0.016666475468764305,0.008495434228764531,0.02435323904356827,-0.004874229311182699
1.5077953698869986,0.01632710132796861,0.012383143308396353,0.006411917338543193,0.020306920241917936,-0.004645475055379323
1.5078668870419252,0.01858159605132472,0.00929491800348076,0.00521914285473996,0.01631097975722763,-0.0036714807388452853
1.5079384041968518,0.02125563485920751,0.00752729059719913,0.005152249488431391,0.012040518917951616,-0.0015859202906479259
1.5080099213517784,0.023737553869918368,0.007398841964997374,0.0057615299185219465,0.009392627098420422,0.00027004120517804344
1.508081438506705,0.025680396681245936,0.009428321269996287,0.007453924502377228,0.007716631683615463,0.002575127232942329
1.5081529556616315,0.027059576075294776,0.011301147897212082,0.008842952470356694,0.0068508659344485535,0.004211170491831584
1.5082244728165581,0.028112039179855254,0.010671862343758663,0.008942296206187028,0.005887423112113902,0.004780566636648635
1.5082959899714847,0.029172386947160022,0.008792054148732487,0.008780907310022895,0.00469603520329818,0.005238794197537112
1.5083675071264113,0.03045818310099522,0.008923355355846516,0.010026451111954632,0.0041139476073179335,0.006608324585784476
1.508439024281338,0.03190386747651281,0.012950575453546814,0.012747040105629182,0.005437695982499261,0.008297612647041621
1.5085105414362645,0.03314377564440417,0.01889031385685267,0.01600259242207933,0.008338509052702324,0.009658735325074287
1.508582058591191,0.03366149064758627,0.023847827356746405,0.0186299276568245,0.010803309728935487,0.010695507223771598
1.5086535757461177,0.03301661123576188,0.023550151026169083,0.017302793300784304,0.01187883143356407,0.009007551222161706
1.5087250929010443,0.031031763736761156,0.019374749674096765,0.013978643770450466,0.012360125421319697,0.0058897736419670525
1.5087966100559709,0.02787943173947238,0.013984731095923204,0.009773118861112214,0.011458058988739264,0.0027038836476656804
1.5088681272108975,0.024071143965329337,0.00902015606636504,0.005405399448016361,0.010914407357066025,-0.0008017567414719681
1.508939644365824,0.020368522042175177,0.005208937677694045,0.002619426200917792,0.008821951628752977,-0.002161541259103312
1.5090111615207507,0.017622660517009992,0.0035179186250315873,0.001280243020763253,0.007959433877969022,-0.0028870491284449713
1.5090826786756772,0.016549556574789192,0.0030620493421563526,0.001094148915450876,0.00900665054744175,-0.003573587974136455
1.5091541958306038,0.01749078347259404,0.003116297006125224,0.001728275756159572,0.009184985184630571,-0.0031145792448878493
1.5092257129855304,0.02026609634215111,0.003673074117937884,0.002622344403247119,0.00786565901664899,-0.0016790852478827726
1.509297230140457,0.024225306810832306,0.007168426239988809,0.005090188490138515,0.007303557317112914,0.0007377089466908463
1.5093687472953836,0.028505184243561566,0.015238752414819994,0.010396256019729185,0.008563338664876572,0.004695584816528268
1.5094402644503102,0.032363241212534366,0.026321623826566613,0.017181792517199104,0.01172551911993189,0.008979766225334687
1.5095117816052368,0.035420479974014,0.03838310182994033,0.023785576506019895,0.015974259325849307,0.012563604694060444
1.5095832987601634,0.03772295943106026,0.04722302718023848,0.028541189697550762,0.019455844387555682,0.014934635212850898
1.50965481591509,0.039632532833370364,0.04987050131631485,0.030196375009199177,0.0219066580520481,0.01513899304692449
1.5097263330700166,0.041605230836871475,0.04543546627987354,0.028415936049993602,0.021377429071438796,0.013862517256663941
1.5097978502249432,0.04392716574129624,0.038494586352012444,0.026087173799228647,0.01724114738784091,0.013920598341454751
1.5098693673798698,0.04649881119729661,0.03455170426604606,0.025125670272120693,0.013567314734676799,0.014930767137566671
1.5099408845347964,0.048782229516577,0.034861790874875384,0.025898717163670308,0.013225958193354792,0.015771090335829643
1.510012401689723,0.04998265464348263,0.037846823700284055,0.027970420605425636,0.014481792594032976,0.016934695201980824
1.5100839188446495,0.04939582665258717,0.03824365321222153,0.02744804663090382,0.01564888341188618,0.015897242189435716
1.5101554359995761,0.046726633743720845,0.0355378347183321,0.024915387052692306,0.01624656299724208,0.013405019986350056
1.5102269531545027,0.04221494386441091,0.03244824380664121,0.022036546886626967,0.016407564902469595,0.010832329596788544
1.5102984703094293,0.0365554045951188,0.030504611258774385,0.019143160662124768,0.016920247582503562,0.00807085085430387
1.510369987464356,0.030705701566729478,0.030192744343615383,0.01712115674686206,0.01734594353360176,0.006107312021679005
1.5104415046192825,0.025671938650474672,0.031108995956642918,0.016152578444133103,0.017415123022419043,0.0052343803254095685
1.510513021774209,0.02230380117340663,0.03248903633072413,0.01595046449902194,0.0184021847274577,0.004564151542089057
1.5105845389291357,0.02110478427342222,0.03076918309820274,0.014310671393420193,0.018128926644260475,0.0032822313622420493
1.5106560560840623,0.022087028251984653,0.025544542473112906,0.011927341615445858,0.014426956053891063,0.003077773722884911
1.5107275732389889,0.02474352062355467,0.01736192602971488,0.008315005741078718,0.009089381802033294,0.0026311354234570734
1.5107990903939155,0.028206425428266402,0.011252397044617383,0.006455089330600415,0.003994975922899494,0.0035787088845593445
1.510870607548842,0.03156791810921427,0.008573638683691416,0.006924877381908108,0.00016131435738970422,0.0059088471447043414
1.5109421247037687,0.034217944840168574,0.00911252310225523,0.0085255112555674,-0.0016716661067054661,0.008213153671410017
1.5110136418586952,0.036025983655989566,0.012601214742826149,0.01161661354179527,-0.0018578877706599383,0.010980326889158766
1.5110851590136218,0.03729532439305516,0.014403455625793966,0.013294021431409462,-0.000758180248456269,0.0118794951649341
1.5111566761685484,0.03854470610167679,0.013288098310660117,0.013163190298163863,0.000457173148603226,0.011156534635663485
1.511228193323475,0.04022460916569971,0.012132056652818746,0.013651672900344249,-0.0010232547483904819,0.012321864422767271
1.5112997104784016,0.04246467581659284,0.013103333589098628,0.01442102957265151,-0.0014793388203083306,0.013216194637105935
1.5113712276333282,0.04493429586497486,0.018056220749361303,0.016921655013448497,-0.00013082305112219422,0.014702757320505067
1.5114427447882548,0.04689231770787431,0.02389447448637328,0.019784155718843215,0.0019089105625678757,0.016155864906738378
1.5115142619431814,0.047454803887083834,0.02632794864539587,0.02007376929597759,0.004398726871971309,0.015157523440361623
