freq,gls,usurper,pdc_unbiased,shape_periodogram,shift_periodogram
1.5,0.031605246424144244,0.0314328535933619,0.022003088454338578,0.026534718813336258,0.004254866838392653
1.5000715171549266,0.028595336453250155,0.024343391038697277,0.01679692217781675,0.02096399517751316,0.0028650666320802092
1.5001430343098532,0.024797888546036324,0.01835930155033487,0.011419584810450916,0.016540942358130525,0.0007143930770714314
1.5002145514647798,0.020789812632417533,0.016505787439530843,0.008796510756732951,0.01271937540795134,0.0005619834597485743
1.5002860686197064,0.017345459787468324,0.019230119889882474,0.009479677332466734,0.011244838917458266,0.001931884163034284
1.500357585774633,0.015271945925960987,0.02401070135336726,0.011714688134418397,0.011833307365540807,0.0034985702791916714
1.5004291029295596,0.015165201318802408,0.029587910486429843,0.01415548030345099,0.015088451950246053,0.0038027518167109836
1.5005006200844861,0.01716595655706576,0.034817425420850805,0.016954003693511403,0.017673919511964207,0.004769459071680809
1.5005721372394127,0.02086274426290797,0.03883671545399087,0.019187221778694714,0.020273317808087866,0.005252441243566875
1.5006436543943393,0.02544081002802935,0.042354259055111275,0.02137618975240262,0.022909953603842632,0.005678376143089567
1.500715171549266,0.03000884122307953,0.046193191060548575,0.02421994995090846,0.024322182074059635,0.007316358598169022
1.5007866887041925,0.03391266896856934,0.05066073825668752,0.02666061786266369,0.02884131753609742,0.0069417504214270885
1.500858205859119,0.0368882624749449,0.05563747019918121,0.029368029530911475,0.034681203098711734,0.006081355683053945
1.5009297230140457,0.0390355018056212,0.061059980575449736,0.03287087235373193,0.042212533811464274,0.004981847115152009
1.5010012401689723,0.04067274274449097,0.0630039839053445,0.0349635290275476,0.04820818991327629,0.003518799335025122
1.5010727573238989,0.04213722341942038,0.06316684222715356,0.036798409825528795,0.05213312572579749,0.0029539505752298493
1.5011442744788255,0.043587855733941964,0.0631112496250788,0.03793328428010061,0.05536466548848087,0.0021711241107821846
1.501215791633752,0.044880915226329254,0.06277033560272852,0.03824814004694497,0.05800329973562542,0.001014310848206622
1.5012873087886787,0.045592465454410994,0.0638253654729469,0.03896037083855539,0.06087902683663357,6.542877204824952e-05
1.5013588259436053,0.04519857422015515,0.06312923606842197,0.038338310339186395,0.06084777558451998,-0.0004440007327882781
1.5014303430985318,0.04331902735671992,0.059208958540808175,0.03525172960142179,0.060696799491094154,-0.0029733409517266256
1.5015018602534584,0.03989064242203222,0.05096449110486887,0.029380562295107576,0.05788071263474157,-0.006416606638186816
1.501573377408385,0.035207008956161204,0.041253032346335546,0.02275340008029923,0.05411930043031096,-0.009984046084747539
1.5016448945633116,0.029854908046904056,0.03244353869520611,0.01716592382272006,0.04764489077891019,-0.011205829441696085
1.5017164117182382,0.02460404968418353,0.025098018934261,0.01272729457488559,0.040311931972694184,-0.01099401938355974
1.5017879288731648,0.020274028275387688,0.020638051916702677,0.010756457121333964,0.034185648812267225,-0.009352368352254996
1.5018594460280914,0.01756978332877583,0.018408991665556027,0.009814843547662735,0.030718813879863558,-0.00827734609806924
1.501930963183018,0.016887968997375314,0.017861277216036506,0.009773529530205848,0.027382767913910085,-0.006514177140867113
1.5020024803379446,0.018154766828972088,0.01702838352171787,0.009545857603491862,0.024274027577839332,-0.005030903349761445
1.5020739974928712,0.020807783027131654,0.017645293424602866,0.00997328939183271,0.02205810940023033,-0.003476701548925015
1.5021455146477978,0.023992628107040868,0.020371614605402787,0.01144212206274167,0.021281001255375853,-0.0018199339080832478
1.5022170318027244,0.026898257150269028,0.025174696025260134,0.014028974316248104,0.02305764162474386,-0.0005963353264473893
1.502288548957651,0.029041972437567,0.030198322484704117,0.016679671046279716,0.02614581520479199,-2.512472636733439e-05
1.5023600661125776,0.03036170293294545,0.03544794953635329,0.019990738498687276,0.03014585918592704,0.0006121628393104193
1.5024315832675041,0.031115659296329378,0.03616948538192058,0.02077896981185265,0.03309200547173864,-0.00031039940852542323
1.5025031004224307,0.031680428730509906,0.033126069905120306,0.019519808615351825,0.0343868141458113,-0.0020703820593983148
1.5025746175773573,0.032340192227813126,0.02913744633705639,0.018649627815208736,0.03302573575155683,-0.002070865882547658
1.502646134732284,0.033131945974426154,0.026347687316431556,0.017871043624403338,0.030476754848157882,-0.001353937753945729
1.5027176518872105,0.033797027787609374,0.02585678482961376,0.01799769758677829,0.02948675029719258,-0.0007136734073875769
1.502789169042137,0.033871437590867574,0.024656620241410753,0.017486670760106647,0.027513115455644804,-8.125766850055077e-05
1.5028606861970637,0.03289397904446062,0.021258155522667764,0.015274482970942199,0.02554289819404863,-0.0008851424595470954
1.5029322033519903,0.030638444170610023,0.017303121834050986,0.012011118949132128,0.024004629515581497,-0.002807636433775959
1.5030037205069169,0.02725242384486997,0.015093894145356414,0.009441040885373031,0.02295104900172999,-0.004406426162317935
1.5030752376618435,0.023245599290448483,0.01649811904733348,0.008606550278537486,0.022237820700906637,-0.004725522889868145
1.50314675481677,0.019358366958489085,0.020015351898864886,0.008953985446160287,0.021802757937356535,-0.0041982820270597505
1.5032182719716967,0.01638051368297583,0.02461399829955936,0.010426555451109277,0.021638486061919197,-0.0028685681554589
1.5032897891266233,0.01497089818834955,0.029003131962724544,0.012350463029946239,0.022090806497303824,-0.0014904987262568936
1.5033613062815498,0.015499460648454992,0.032450088972829076,0.013981854206916533,0.022193528678059134,-0.00017055530141385993
1.5034328234364764,0.01793079665045714,0.03291736855572723,0.01416864675154985,0.020232491494755832,0.0010432745647109196
1.503504340591403,0.021792554285279486,0.03241244622625376,0.013806564009865633,0.017830731746159848,0.0020317004304881217
1.5035758577463296,0.026283745634476982,0.035312712704580626,0.015751292513310384,0.0180680177539067,0.003543283744942849
1.5036473749012562,0.03053094650102892,0.041010192667652254,0.019003856556851165,0.022276060571154922,0.004019213215500987
1.5037188920561828,0.03389868374654469,0.04862590925983647,0.02304438568669538,0.029632948675684473,0.003464371060894433
1.5037904092111094,0.03619247413189749,0.05782593824440973,0.02836367437687625,0.03721225136098458,0.0038700211665637263
1.503861926366036,0.03764566473947448,0.06487043910591903,0.03246316988130233,0.04447037686433008,0.0034207699001113892
1.5039334435209626,0.038716510453014726,0.06822416524845545,0.03408384953452373,0.051746175206427124,0.0008679363994109685
1.5040049606758892,0.0398171228344044,0.06986599876820049,0.03557140334761458,0.05687727043843418,-0.0006419994215548616
1.5040764778308158,0.041095739566223526,0.07344007269620115,0.037525773851031737,0.06129526053088451,-0.0013728687391858763
1.5041479949857424,0.04234364882306056,0.076905730176011,0.038887791087543686,0.06574487798717564,-0.0026222112410687537
1.504219512140669,0.043051695709888996,0.07844936462414108,0.03921573232033744,0.06977590994182496,-0.004521528118109426
1.5042910292955955,0.04260283060723393,0.0736326617650187,0.036347749549566495,0.07129868899301002,-0.007771918037027816
1.5043625464505221,0.04053910287302065,0.06226367567730439,0.030363706364527798,0.06891834540861537,-0.011547620851914797
1.5044340636054487,0.03679439695722014,0.04793009551068295,0.02344001313236871,0.061986185313399104,-0.01365270305393822
1.5045055807603753,0.03178229372791513,0.03535732041970779,0.01698689592080203,0.05487483647864059,-0.015259708007348256
1.504577097915302,0.026296542555493532,0.0267306657516516,0.012446934359831944,0.04801621491195279,-0.015387189767522716
1.5046486150702285,0.021278189004975218,0.023510637206422845,0.011187449324425095,0.04207469921921336,-0.01324340342446818
1.504720132225155,0.017555651134353225,0.02251276211434065,0.011283372248322305,0.03769398955143136,-0.010799761571586412
1.5047916493800817,0.01564621916050789,0.021347825667160345,0.010644076718018416,0.03454300012373599,-0.009639778058290248
1.5048631665350083,0.015656872938766518,0.0190406089044985,0.009217644422453899,0.0304145910511585,-0.008616807180688814
1.5049346836899349,0.017286051262519187,0.017449215849198344,0.008230188330603324,0.026184617724871236,-0.007169425394380298
1.5050062008448615,0.019918755698584013,0.017449904894429276,0.007905738300784866,0.022475320193670136,-0.005444164594008497
1.505077717999788,0.022804926807040774,0.019813133676030117,0.009361654152707073,0.01985892253280342,-0.0028074493499325387
1.5051492351547147,0.025289013466251117,0.02495303224582367,0.011726326065843064,0.022642838544067984,-0.0023140305147440546
1.5052207523096413,0.027015644551186973,0.030176466141507267,0.014241445734319206,0.025723260324753677,-0.0018533076260551931
1.5052922694645678,0.028012475009877,0.03281250545951259,0.015961322224474977,0.026928144811889647,-0.0010523425501211777
1.5053637866194944,0.028596359216805502,0.029434774925076138,0.014919408532213189,0.025496233732138617,-0.0011593815597367337
1.505435303774421,0.02915112616185344,0.022637914712171085,0.013309044659559194,0.021530925075709462,-0.000380807117078546
1.5055068209293476,0.029900153036102176,0.017913445995372052,0.012321918805932341,0.018065646135900483,0.0006537101398900829
1.5055783380842742,0.030782681811496897,0.01723404205354344,0.01250866989698158,0.016640271242310614,0.0015788626580985413
1.5056498552392008,0.03146961942071043,0.019749135281157883,0.013496870470295333,0.01840832927778787,0.0014595390905497595
1.5057213723941274,0.03149161794629547,0.021104235696183096,0.013134126432083434,0.02114258051953274,-0.00031906504704918285
1.505792889549054,0.030427310908792447,0.020561538036936573,0.011855838401314541,0.024246101537793538,-0.0030686388896275073
1.5058644067039806,0.02809465201809536,0.018251769338906508,0.009674998552531539,0.02543685080652063,-0.005548619036100405
1.5059359238589072,0.024683284499830333,0.014426075691686347,0.006168765257997816,0.025033640216984752,-0.008286654145778047
1.5060074410138338,0.020766913938386953,0.012031046860852048,0.003987129865862614,0.023357345339522717,-0.009221965468273108
1.5060789581687604,0.017165658691511196,0.013176006197661311,0.004506773893992003,0.021287184796031193,-0.007668588181617221
1.506150475323687,0.014695536880755058,0.01582259315568655,0.005603202541494299,0.020665383101138295,-0.006409563427934607
1.5062219924786135,0.013907828977730352,0.018174231685810893,0.006474304461408025,0.019963710402837155,-0.00529739512605169
1.5062935096335401,0.014929925183180436,0.018712849376643536,0.007024475314287043,0.017218164172066924,-0.0033546483863185032
1.5063650267884667,0.01746107614733839,0.017722491450176993,0.006681651925523114,0.015031034112477235,-0.0024654153704112545
1.5064365439433933,0.020900617081537138,0.019526389362319208,0.008103902228742074,0.013558741015825545,-0.00047380038206605455
1.50650806109832,0.024545654709518663,0.024103856921457112,0.01119024144466396,0.012242147723146475,0.0028363836833497
1.5065795782532465,0.027795889555703463,0.031895007019877596,0.015188716512202768,0.015608858856681718,0.0043934399230236895
1.506651095408173,0.030315638754338018,0.04204047193445327,0.02020329875354711,0.021080153102968326,0.005674704207852612
1.5067226125630997,0.03210575674634778,0.05212844051603184,0.02516307524326057,0.02779342449947814,0.006242593868858295
1.5067941297180263,0.03344435853615213,0.05801229772394727,0.02809340030703321,0.03403135430488033,0.0053555022915897695
1.5068656468729529,0.03469846610783441,0.058615981427483234,0.028836225363534616,0.037327078281714866,0.00420707697405217
1.5069371640278795,0.03608805388876267,0.05756745892124214,0.029158238083419115,0.038689593886680584,0.0037448273547037872
1.507008681182806,0.03753193323000867,0.05727330008682998,0.029645090979329304,0.040781571951322614,0.003028644465343596
1.5070801983377327,0.038657419159163646,0.05734709921246567,0.03000532215028713,0.042727262061265744,0.0022842761987471576
1.5071517154926592,0.038950459296790155,0.05596556501202905,0.029635790998015537,0.04326381106950866,0.001683027252272424
1.5072232326475858,0.03795818995272562,0.049980520677751585,0.026170643808596194,0.04337736416000286,-0.001304030474995434
1.5072947498025124,0.035465807062779846,0.042378834846542236,0.02167628316777021,0.04244832512964381,-0.004596703123968656
1.507366266957439,0.03160750390290827,0.036020845701325556,0.01779655130545853,0.04067971732230418,-0.006916589740484663
1.5074377841123656,0.02689036393457737,0.030615064679414286,0.014369878001425985,0.03869577198830808,-0.008737155938837162
1.5075093012672922,0.022110982309926926,0.02591953694099912,0.012274203971852665,0.035346732419831654,-0.008698645243031676
1.5075808184222188,0.018158898886019043,0.02290067340797257,0.010838451012952628,0.033571953203087694,-0.008952386682328834
1.5076523355771454,0.015750547010193554,0.0209042921101138,0.009985828883372298,0.031823926344021175,-0.008728892097239436
1.507723852732072,0.015198153002695225,0.017447460775554174,0.008495434228764531,0.02795718332270881,-0.007901112958604219
1.5077953698869986,0.01632710132796861,0.01286434809593777,0.006411917338543193,0.022547427746450507,-0.006742035184352887
1.5078668870419252,0.01858159605132472,0.009538038514583241,0.00521914285473996,0.016803952016936564,-0.004652932090408065
1.5079384041968518,0.02125563485920751,0.007671567181092719,0.005152249488431391,0.010612721705484284,-0.0013744085225541214
1.5080099213517784,0.023737553869918368,0.007662787349825264,0.0057615299185219465,0.006809631326480244,0.001187286830929092
1.508081438506705,0.025680396681245936,0.009885663087224767,0.007453924502377228,0.004639152793889271,0.00378229227901788
1.5081529556616315,0.027059576075294776,0.011998808136780193,0.008842952470356694,0.0033524467660883245,0.0056456833992670884
1.5082244728165581,0.028112039179855254,0.01139151846501966,0.008942296206187028,0.0017598547579328386,0.006587033391480096
1.5082959899714847,0.029172386947160022,0.009253800096065036,0.008780907310022895,0.0005000647485364939,0.007129460213650684
1.5083675071264113,0.03045818310099522,0.009309883944418349,0.010026451111954632,0.00013896009652380147,0.008373441516400883
1.508439024281338,0.03190386747651281,0.013668290709630828,0.012747040105629182,0.0019988475602339406,0.009664417663824965
1.5085105414362645,0.03314377564440417,0.020088763001988575,0.01600259242207933,0.0061528737639457935,0.010171254588966528
1.508582058591191,0.03366149064758627,0.025364162882227332,0.0186299276568245,0.010375704226386914,0.010112115579464443
1.5086535757461177,0.03301661123576188,0.025077425452219568,0.017302793300784304,0.012719340131694906,0.007731523458973456
1.5087250929010443,0.031031763736761156,0.02057205938726252,0.013978643770450466,0.013405745680073291,0.004559905458070057
1.5087966100559709,0.02787943173947238,0.014717070651001534,0.009773118861112214,0.012331111423291399,0.001594144314533749
1.5088681272108975,0.024071143965329337,0.00935372057442678,0.005405399448016361,0.011479859734883743,-0.0016281352029042632
1.508939644365824,0.020368522042175177,0.005204531804873827,0.002619426200917792,0.009153982146571813,-0.0027229872225960922
1.5090111615207507,0.017622660517009992,0.00329995111329416,0.001280243020763253,0.00834980530960866,-0.003418267569669118
1.5090826786756772,0.016549556574789192,0.002708262260253203,0.001094148915450876,0.008928544957842838,-0.0038867815339029273
1.5091541958306038,0.01749078347259404,0.0028615362109513293,0.001728275756159572,0.008349613015680381,-0.0030406492821916215
1.5092257129855304,0.02026609634215111,0.003651693945097216,0.002622344403247119,0.006067355834319335,-0.0010581049183672408
1.509297230140457,0.024225306810832306,0.007545199888007091,0.005090188490138515,0.004407262556504826,0.0019154107338968864
1.5093687472953836,0.028505184243561566,0.01645541576962678,0.010396256019729185,0.0045425926692552535,0.006313688244700654
1.5094402644503102,0.032363241212534366,0.028686343146368285,0.017181792517199104,0.007683235234123365,0.010341134890566954
1.5095117816052368,0.035420479974014,0.0420745336439804,0.023785576506019895,0.012707600876579237,0.013203158774806026
1.5095832987601634,0.03772295943106026,0.05195173259654078,0.028541189697550762,0.01659303647087925,0.015122193115561353
1.50965481591509,0.039632532833370364,0.05487073080919773,0.030196375009199177,0.0188041078356061,0.015328394741623114
1.5097263330700166,0.041605230836871475,0.049849435166713,0.028415936049993602,0.018240607014198693,0.01412979695635887
1.5097978502249432,0.04392716574129624,0.042028963465487644,0.026087173799228647,0.013823253198684158,0.014543353071999918
1.5098693673798698,0.04649881119729661,0.03757371697766896,0.025125670272120693,0.009724939280770476,0.015938477873217
1.5099408845347964,0.048782229516577,0.037752737491134045,0.025898717163670308,0.00961876293704538,0.016647389492030443
1.510012401689723,0.04998265464348263,0.04079490959832769,0.027970420605425636,0.011582779458221141,0.017337230562993997
1.5100839188446495,0.04939582665258717,0.041174100091788464,0.02744804663090382,0.01357798516914682,0.015822957614257938
1.5101554359995761,0.046726633743720845,0.03821726064355269,0.024915387052692306,0.014883525706712485,0.01298452789058411
1.5102269531545027,0.04221494386441091,0.03482536257329016,0.022036546886626967,0.015706210442100868,0.010114168117733063
1.5102984703094293,0.0365554045951188,0.03277895741684958,0.019143160662124768,0.01749168209059886,0.0067132463510461374
1.510369987464356,0.030705701566729478,0.032531932917748335,0.01712115674686206,0.019695189342735724,0.003821805677953314
1.5104415046192825,0.025671938650474672,0.03364065918270611,0.016152578444133103,0.021951162263185733,0.001790090693276617
1.510513021774209,0.02230380117340663,0.03524203882466489,0.01595046449902194,0.024874325209306367,4.500866074255191e-05
1.5105845389291357,0.02110478427342222,0.03353546179373314,0.014310671393420193,0.02555925897370707,-0.001706581349057565
1.5106560560840623,0.022087028251984653,0.027784668308915638,0.011927341615445858,0.02145483653907118,-0.0015045673595601332
1.5107275732389889,0.02474352062355467,0.01871372249935724,0.008315005741078718,0.01466086925786145,-0.0008895251746365267
1.5107990903939155,0.028206425428266402,0.011845899559597433,0.006455089330600415,0.007365617774546606,0.0014722818454906588
1.510870607548842,0.03156791810921427,0.008666114253277792,0.006924877381908108,0.0016053573315595272,0.004970306950246877
1.5109421247037687,0.034217944840168574,0.00915048511621139,0.0085255112555674,-0.001196026065706758,0.007827638290537068
1.5110136418586952,0.036025983655989566,0.01289121819032714,0.01161661354179527,-0.0019457728315155924,0.010835961003063827
1.5110851590136218,0.03729532439305516,0.01490741405175583,0.013294021431409462,-0.0015676814104239266,0.012045782101842603
1.5111566761685484,0.03854470610167679,0.013645075123091318,0.013163190298163863,-0.0007016692823676919,0.011469223420168949
1.511228193323475,0.04022460916569971,0.012261932138117439,0.013651672900344249,-0.0019169040616239948,0.012535191555016423
1.5112997104784016,0.04246467581659284,0.013382180467275328,0.01442102957265151,-0.002362932597743352,0.01342363614160746
1.5113712276333282,0.04493429586497486,0.018861712775597582,0.016921655013448497,-0.0004283111251474952,0.014489146115825254
1.5114427447882548,0.04689231770787431,0.025310026305024626,0.019784155718843215,0.0026160245241023845,0.015262503032030004
1.5115142619431814,0.047454803887083834,0.028110130952433067,0.02007376929597759,0.005716776459405673,0.01383735396901151
