freq,gls,usurper,pdc_unbiased,shape_periodogram,shift_periodogram
1.5,0.031605246424144244,0.031124168911052887,0.022003088454338578,0.019866185772021507,0.01091718689064494
1.5000715171549266,0.028595336453250155,0.024202715560415776,0.01679692217781675,0.015116085552906425,0.008354030347660513
1.5001430343098532,0.024797888546036324,0.018314591750043973,0.011419584810450916,0.01129013387299353,0.005229252730299228
1.5002145514647798,0.020789812632417533,0.016478640733439288,0.008796510756732951,0.008100752128434186,0.004292116231800628
1.5002860686197064,0.017345459787468324,0.019029957110151822,0.009479677332466734,0.006661756901435689,0.0055426015267172465
1.500357585774633,0.015271945925960987,0.023608973970570445,0.011714688134418397,0.007276121490174031,0.007273657063639475
1.5004291029295596,0.015165201318802408,0.028893304487604476,0.01415548030345099,0.010017573675799526,0.008246223679641198
1.5005006200844861,0.01716595655706576,0.033829394076113815,0.016954003693511403,0.012311487724721824,0.009738264024303153
1.5005721372394127,0.02086274426290797,0.037638953423785114,0.019187221778694714,0.014798498248413068,0.010638208088121052
1.5006436543943393,0.02544081002802935,0.04101041678079511,0.02137618975240262,0.017405316573277263,0.011445724370157537
1.500715171549266,0.03000884122307953,0.04471694420887876,0.02421994995090846,0.018740436008164985,0.013404612421734258
1.5007866887041925,0.03391266896856934,0.04897393904883896,0.02666061786266369,0.022684985501233403,0.013846052772574566
1.500858205859119,0.0368882624749449,0.05373287187294429,0.029368029530911475,0.02765606271300504,0.014072734259444887
1.5009297230140457,0.0390355018056212,0.058844056695245325,0.03287087235373193,0.033680640354874815,0.014547829385960005
1.5010012401689723,0.04067274274449097,0.06068670527594263,0.0349635290275476,0.038138765969897084,0.014451913708526245
1.5010727573238989,0.04213722341942038,0.060844232046839156,0.036798409825528795,0.04072532892168657,0.014954326667721143
1.5011442744788255,0.043587855733941964,0.06073861452395613,0.03793328428010061,0.0431849634909851,0.014884348899140861
1.501215791633752,0.044880915226329254,0.06042464536882401,0.03824814004694497,0.04572129838231992,0.014043427408551384
1.5012873087886787,0.045592465454410994,0.06136419401193792,0.03896037083855539,0.04820079716131634,0.013584858607103558
1.5013588259436053,0.04519857422015515,0.0605575035679012,0.038338310339186395,0.048110856473444034,0.013065426826085037
1.5014303430985318,0.04331902735671992,0.05665132373178074,0.03525172960142179,0.0485265017870306,0.010106381670224188
1.5015018602534584,0.03989064242203222,0.04855148837060953,0.029380562295107576,0.04649261992432785,0.005732547146425733
1.501573377408385,0.035207008956161204,0.03911229519539125,0.02275340008029923,0.04374554695037038,0.0009997297939964408
1.5016448945633116,0.029854908046904056,0.030600559772222893,0.01716592382272006,0.038586853009015196,-0.0017257490915934886
1.5017164117182382,0.02460404968418353,0.023478572258186812,0.01272729457488559,0.03257210412146425,-0.0030382983294193664
1.5017879288731648,0.020274028275387688,0.019264279313542746,0.010756457121333964,0.02762881681059604,-0.00261226348799596
1.5018594460280914,0.01756978332877583,0.017187049355370347,0.009814843547662735,0.025115729667940578,-0.002341604687793244
1.501930963183018,0.016887968997375314,0.016767563018306363,0.009773529530205848,0.02311052116817088,-0.0014890423718989688
1.5020024803379446,0.018154766828972088,0.016075532100290817,0.009545857603491862,0.021207712044558583,-0.0008490757859187064
1.5020739974928712,0.020807783027131654,0.016839775448901667,0.00997328939183271,0.020043089442072767,5.076265966623111e-05
1.5021455146477978,0.023992628107040868,0.01956910051785377,0.01144212206274167,0.019917793645888346,0.0014233207391449335
1.5022170318027244,0.026898257150269028,0.024265154260530504,0.014028974316248104,0.02182273376934795,0.0028980507222538254
1.502288548957651,0.029041972437567,0.029075289865885683,0.016679671046279716,0.02399301188350191,0.004312735497198282
1.5023600661125776,0.03036170293294545,0.034129536658102345,0.019990738498687276,0.026610123039883846,0.00612212927651925
1.5024315832675041,0.031115659296329378,0.034749155339566046,0.02077896981185265,0.02767333129973556,0.006357797556122319
1.5025031004224307,0.031680428730509906,0.031838824724438934,0.019519808615351825,0.0275264845203237,0.005293288561772587
1.5025746175773573,0.032340192227813126,0.02813600354398647,0.018649627815208736,0.025540939413708292,0.005393220613240247
1.502646134732284,0.033131945974426154,0.025638039722125514,0.017871043624403338,0.02315284851278633,0.005753862626310007
1.5027176518872105,0.033797027787609374,0.02526080150243485,0.01799769758677829,0.021842213632448527,0.006448627209080559
1.502789169042137,0.033871437590867574,0.02409011012010069,0.017486670760106647,0.019456654756217884,0.007048075826952713
1.5028606861970637,0.03289397904446062,0.02068915932414705,0.015274482970942199,0.017532373919872373,0.005917540187274699
1.5029322033519903,0.030638444170610023,0.01678934229474343,0.012011118949132128,0.01638221678781605,0.0035015191183180843
1.5030037205069169,0.02725242384486997,0.014661850287018328,0.009441040885373031,0.01572000114108214,0.0014910037506043387
1.5030752376618435,0.023245599290448483,0.01606272630639197,0.008606550278537486,0.015325477171724815,0.0009178561230934106
1.50314675481677,0.019358366958489085,0.019486132065895195,0.008953985446160287,0.01550022213046344,0.0011518287188273285
1.5032182719716967,0.01638051368297583,0.023948883749878223,0.010426555451109277,0.015942751709992674,0.002275754425065876
1.5032897891266233,0.01497089818834955,0.02831215966351698,0.012350463029946239,0.017345928044944996,0.003378394695898882
1.5033613062815498,0.015499460648454992,0.03170332417691144,0.013981854206916533,0.01812892130849428,0.004493935333495225
1.5034328234364764,0.01793079665045714,0.032173159206960504,0.01416864675154985,0.016929133307478705,0.005193462273400269
1.503504340591403,0.021792554285279486,0.03175788110147677,0.013806564009865633,0.015352719998414963,0.005567833337855272
1.5035758577463296,0.026283745634476982,0.0346573216637465,0.015751292513310384,0.01604542632638792,0.007004401130220311
1.5036473749012562,0.03053094650102892,0.040269762905025236,0.019003856556851165,0.020245609913133115,0.008058937486069208
1.5037188920561828,0.03389868374654469,0.04767406155998554,0.02304438568669538,0.02672224894272412,0.008812003743503638
1.5037904092111094,0.03619247413189749,0.05661144228592801,0.02836367437687625,0.033077802607099374,0.0107682884720432
1.503861926366036,0.03764566473947448,0.06329408026148181,0.03246316988130233,0.03827160938015322,0.01214713233521717
1.5039334435209626,0.038716510453014726,0.0664122360589742,0.03408384953452373,0.0435769725747691,0.011251316423449504
1.5040049606758892,0.0398171228344044,0.06788635149450915,0.03557140334761458,0.04713467629014193,0.01101086159097946
1.5040764778308158,0.041095739566223526,0.07131703522627313,0.037525773851031737,0.050819726684586876,0.011133951134464201
1.5041479949857424,0.04234364882306056,0.0747226910981961,0.038887791087543686,0.05478962396115375,0.010598463039315817
1.504219512140669,0.043051695709888996,0.07619887029308021,0.03921573232033744,0.0582089259222829,0.009376851987176117
1.5042910292955955,0.04260283060723393,0.07136777323146062,0.036347749549566495,0.05944899037703838,0.006246301327163928
1.5043625464505221,0.04053910287302065,0.06015514626377032,0.030363706364527798,0.05736756342277324,0.0017889753436153217
1.5044340636054487,0.03679439695722014,0.0461409905212512,0.02344001313236871,0.051273125643659684,-0.0017258954662219507
1.5045055807603753,0.03178229372791513,0.03396886193848054,0.01698689592080203,0.04522611959093102,-0.004834238431939843
1.504577097915302,0.026296542555493532,0.025675922537076862,0.012446934359831944,0.03971776355687516,-0.006461931267557083
1.5046486150702285,0.021278189004975218,0.022541939156963904,0.011187449324425095,0.034983925253828166,-0.005490000454892118
1.504720132225155,0.017555651134353225,0.021611699452487795,0.011283372248322305,0.032168700143621186,-0.00415436301773913
1.5047916493800817,0.01564621916050789,0.020494625084987065,0.010644076718018416,0.03051392757518738,-0.003993320874773731
1.5048631665350083,0.015656872938766518,0.018222194778027643,0.009217644422453899,0.028118664067920993,-0.0042095614846134255
1.5049346836899349,0.017286051262519187,0.016704826303136026,0.008230188330603324,0.025206841006416878,-0.0038029379903114433
1.5050062008448615,0.019918755698584013,0.016662310409146095,0.007905738300784866,0.022470020882603452,-0.0028795884191346894
1.505077717999788,0.022804926807040774,0.01896898786261135,0.009361654152707073,0.020309491092138404,-0.0006157943339078307
1.5051492351547147,0.025289013466251117,0.02399513659388359,0.011726326065843064,0.022494297594622834,0.0005353385814559596
1.5052207523096413,0.027015644551186973,0.02917807509333066,0.014241445734319206,0.02433769917071549,0.001973120409219877
1.5052922694645678,0.028012475009877,0.031767531895937305,0.015961322224474977,0.023993280193665256,0.0036683426998633663
1.5053637866194944,0.028596359216805502,0.02845141358662494,0.014919408532213189,0.021071432393021693,0.004029753569725265
1.505435303774421,0.02915112616185344,0.02181662244475582,0.013309044659559194,0.015844306567527774,0.00490377057728243
1.5055068209293476,0.029900153036102176,0.017342503540790404,0.012321918805932341,0.011860680783358545,0.00578519841567722
1.5055783380842742,0.030782681811496897,0.016768790667301383,0.01250866989698158,0.010389853850923262,0.006604797498167065
1.5056498552392008,0.03146961942071043,0.019129553151529567,0.013496870470295333,0.011648625519185126,0.006932590207224983
1.5057213723941274,0.03149161794629547,0.02027446957338001,0.013134126432083434,0.013557703453080158,0.005760882128136136
1.505792889549054,0.030427310908792447,0.019592205177553643,0.011855838401314541,0.016374426638391414,0.0033657520093169644
1.5058644067039806,0.02809465201809536,0.017270944986392117,0.009674998552531539,0.017651603414862556,0.0008440561225622205
1.5059359238589072,0.024683284499830333,0.013456663718049057,0.006168765257997816,0.01752255916566847,-0.0022420761230385732
1.5060074410138338,0.020766913938386953,0.011147186436645843,0.003987129865862614,0.0166033446274646,-0.003790030946552954
1.5060789581687604,0.017165658691511196,0.012359955108689164,0.004506773893992003,0.015481370088657655,-0.0028265325006288436
1.506150475323687,0.014695536880755058,0.015067278712595493,0.005603202541494299,0.016169587846856064,-0.0021489366231361834
1.5062219924786135,0.013907828977730352,0.01754385496259248,0.006474304461408025,0.01666007082032582,-0.0015855961340455159
1.5062935096335401,0.014929925183180436,0.01819690773612869,0.007024475314287043,0.015350232797770836,-0.000511412859355352
1.5063650267884667,0.01746107614733839,0.01747649666923454,0.006681651925523114,0.014769123250892406,-0.0005609956200757759
1.5064365439433933,0.020900617081537138,0.019499504146366854,0.008103902228742074,0.014750423502537498,0.0007222853882397684
1.50650806109832,0.024545654709518663,0.024145664145257876,0.01119024144466396,0.014114668310257964,0.0037711314527769653
1.5065795782532465,0.027795889555703463,0.03180243995279526,0.015188716512202768,0.016981651317843516,0.006084832871613217
1.506651095408173,0.030315638754338018,0.04168772190889118,0.02020329875354711,0.021128603342215193,0.008743243247956172
1.5067226125630997,0.03210575674634778,0.05145895124697256,0.02516307524326057,0.025897937822819923,0.011078406922700892
1.5067941297180263,0.03344435853615213,0.05713712012821963,0.02809340030703321,0.030132597101629972,0.011831157892790135
1.5068656468729529,0.03469846610783441,0.05775365018391284,0.028836225363534616,0.03208820914413982,0.011631144674619011
1.5069371640278795,0.03608805388876267,0.05686792562514324,0.029158238083419115,0.03292763438651676,0.011548149589214891
1.507008681182806,0.03753193323000867,0.0566972614179521,0.029645090979329304,0.035107816549164034,0.011018850347792052
1.5070801983377327,0.038657419159163646,0.05693290419807966,0.03000532215028713,0.037070061634192034,0.01047244446792271
1.5071517154926592,0.038950459296790155,0.05560179331281079,0.029635790998015537,0.03738320342264334,0.010001792839420058
1.5072232326475858,0.03795818995272562,0.049645694485298784,0.026170643808596194,0.037507039002195944,0.006835633566059623
1.5072947498025124,0.035465807062779846,0.04217378206842575,0.02167628316777021,0.036756251768201506,0.0031343357579707593
1.507366266957439,0.03160750390290827,0.03588418257485461,0.01779655130545853,0.03529330992696227,0.0003018091023591263
1.5074377841123656,0.02689036393457737,0.030502664639806148,0.014369878001425985,0.03381407366726648,-0.002116057105930675
1.5075093012672922,0.022110982309926926,0.025752651194318212,0.012274203971852665,0.03120338375970797,-0.002837270780454354
1.5075808184222188,0.018158898886019043,0.022536836696166074,0.010838451012952628,0.030161253599842005,-0.0036624874341681488
1.5076523355771454,0.015750547010193554,0.02048292981755752,0.009985828883372298,0.02942128604220794,-0.004098746342508722
1.507723852732072,0.015198153002695225,0.016984520425867834,0.008495434228764531,0.026690201769130947,-0.004223296751661028
1.5077953698869986,0.01632710132796861,0.012448928295222296,0.006411917338543193,0.022384962422836427,-0.004181158056927329
1.5078668870419252,0.01858159605132472,0.009272133594223825,0.00521914285473996,0.017609048855843967,-0.0031317390725551604
1.5079384041968518,0.02125563485920751,0.007566162828826988,0.005152249488431391,0.01227555953923435,-0.0008260175153109163
1.5080099213517784,0.023737553869918368,0.00762126040412963,0.0057615299185219465,0.008767259965246299,0.0012760512854988757
1.508081438506705,0.025680396681245936,0.009849022030002205,0.007453924502377228,0.006044293784615703,0.004000583257073086
1.5081529556616315,0.027059576075294776,0.011918638226071816,0.008842952470356694,0.0036063761032681272,0.006326704619969572
1.5082244728165581,0.028112039179855254,0.011263875475399893,0.008942296206187028,0.000721862113527843,0.007694826313148614
1.5082959899714847,0.029172386947160022,0.009070425073493064,0.008780907310022895,-0.0019099717134517095,0.008717222630448116
1.5083675071264113,0.03045818310099522,0.009091575495181914,0.010026451111954632,-0.0033882137090173793,0.01048909753704946
1.508439024281338,0.03190386747651281,0.013386453439624515,0.012747040105629182,-0.0019934959250494403,0.012309087088182666
1.5085105414362645,0.03314377564440417,0.019690852163870832,0.01600259242207933,0.0018749756297800106,0.013512029597497225
1.508582058591191,0.03366149064758627,0.024793613713722143,0.0186299276568245,0.005652382354328601,0.014192756404079462
1.5086535757461177,0.03301661123576188,0.024343044944249933,0.017302793300784304,0.00796892039037675,0.011976083948684458
1.5087250929010443,0.031031763736761156,0.019874386820483553,0.013978643770450466,0.008947904413394806,0.008561947959875275
1.5087966100559709,0.02787943173947238,0.014181679070723806,0.009773118861112214,0.00858740089961469,0.004951754057145125
1.5088681272108975,0.024071143965329337,0.00900745506374669,0.005405399448016361,0.008577611602183148,0.0010409355165783962
1.508939644365824,0.020368522042175177,0.004950636261553428,0.002619426200917792,0.006889427460078307,-0.0007075437369465086
1.5090111615207507,0.017622660517009992,0.0030151335372667074,0.001280243020763253,0.006512735868127731,-0.0017408069238375673
1.5090826786756772,0.016549556574789192,0.0024736933333432726,0.001094148915450876,0.007801668308864065,-0.0024792443058932034
1.5091541958306038,0.01749078347259404,0.0027239402637035588,0.001728275756159572,0.008134571202956896,-0.002058513386003189
1.5092257129855304,0.02026609634215111,0.0036040537971555185,0.002622344403247119,0.0068834763614212665,-0.0007022888490619388
1.509297230140457,0.024225306810832306,0.007615952431212555,0.005090188490138515,0.006080213427116732,0.0018659326806914935
1.5093687472953836,0.028505184243561566,0.016537826562972757,0.010396256019729185,0.00689771672414344,0.006259586521743071
1.5094402644503102,0.032363241212534366,0.028654636294628607,0.017181792517199104,0.00994174021465054,0.0109930447785843
1.5095117816052368,0.035420479974014,0.04186934597161516,0.023785576506019895,0.01438594463779546,0.014944790118919329
1.5095832987601634,0.03772295943106026,0.05176005840116689,0.028541189697550762,0.017665592206017038,0.017757225287249708
1.50965481591509,0.039632532833370364,0.05482406819907648,0.030196375009199177,0.019184961553642303,0.01856910939308223
1.5097263330700166,0.041605230836871475,0.05000037227994593,0.028415936049993602,0.017584580915829196,0.017680750768542242
1.5097978502249432,0.04392716574129624,0.04255907900771944,0.026087173799228647,0.012582766081548355,0.01780798131498046
1.5098693673798698,0.04649881119729661,0.038411388449614066,0.025125670272120693,0.008728798397663938,0.01865336916848213
1.5099408845347964,0.048782229516577,0.03882022408873315,0.025898717163670308,0.008838598735489001,0.019297918868328198
1.510012401689723,0.04998265464348263,0.0420007281679512,0.027970420605425636,0.010796592817251326,0.02028830642270003
1.5100839188446495,0.04939582665258717,0.042368880388793786,0.02744804663090382,0.01308910553190011,0.018804176663122618
1.5101554359995761,0.046726633743720845,0.039329834323115494,0.024915387052692306,0.01481312941530509,0.015768771681188058
1.5102269531545027,0.04221494386441091,0.03585715354302808,0.022036546886626967,0.016115379466234595,0.012609718401509847
1.5102984703094293,0.0365554045951188,0.03362908290986778,0.019143160662124768,0.018094589753526874,0.009137511025389074
1.510369987464356,0.030705701566729478,0.033085715278227026,0.01712115674686206,0.020278273607013533,0.0063559750097074074
1.5104415046192825,0.025671938650474672,0.03370009252386281,0.016152578444133103,0.022130787353227613,0.004665859756436608
1.510513021774209,0.02230380117340663,0.03489163363404298,0.01595046449902194,0.024334780994188936,0.0035071457998665026
1.5105845389291357,0.02110478427342222,0.03291829511778071,0.014310671393420193,0.024441886330836837,0.0019889906289571333
1.5106560560840623,0.022087028251984653,0.027135819605528657,0.011927341615445858,0.020242507826681164,0.0017143706772861568
1.5107275732389889,0.02474352062355467,0.018232263546715227,0.008315005741078718,0.013715124574455834,0.0013706926103677602
1.5107990903939155,0.028206425428266402,0.01149029077334742,0.006455089330600415,0.006844464857638016,0.0027504324385529432
1.510870607548842,0.03156791810921427,0.008359235419325291,0.006924877381908108,0.0012399639492853992,0.005656843549827731
1.5109421247037687,0.034217944840168574,0.008711345423724034,0.0085255112555674,-0.002188246511444791,0.008611713498786335
1.5110136418586952,0.036025983655989566,0.012303849424824615,0.01161661354179527,-0.004007237958491343,0.012188820783456228
1.5110851590136218,0.03729532439305516,0.01421184621664464,0.013294021431409462,-0.004624636748808255,0.01396600532326138
1.5111566761685484,0.03854470610167679,0.012772037799685745,0.013163190298163863,-0.005079131595171216,0.014050276714561896
1.511228193323475,0.04022460916569971,0.011346514501090095,0.013651672900344249,-0.007211942899531028,0.015433833238400972
1.5112997104784016,0.04246467581659284,0.012421931937756451,0.01442102957265151,-0.007645943130024292,0.016315811551987674
1.5113712276333282,0.04493429586497486,0.017817817648569215,0.016921655013448497,-0.005520625110290054,0.017614620151422643
1.5114427447882548,0.04689231770787431,0.024160008358903588,0.019784155718843215,-0.0024617077278056626,0.01882417168125626
1.5115142619431814,0.047454803887083834,0.02694483893139621,0.02007376929597759,0.0011248467503408453,0.01749396700038143
