freq,gls,usurper,pdc_unbiased,shape_periodogram,shift_periodogram
1.5,0.031605246424144244,0.030589245435599512,0.022003088454338578,0.04826035716307576,-0.02319299591339143
1.5000715171549266,0.028595336453250155,0.024108263723456258,0.01679692217781675,0.04045788163843653,-0.02049024378878911
1.5001430343098532,0.024797888546036324,0.018503290217676497,0.011419584810450916,0.03478871620522167,-0.019543833203848796
1.5002145514647798,0.020789812632417533,0.016706613328262922,0.008796510756732951,0.030978450137858604,-0.01827640224731396
1.5002860686197064,0.017345459787468324,0.01920556044590617,0.009479677332466734,0.030577517471136496,-0.017531830088428253
1.500357585774633,0.015271945925960987,0.02359087416963702,0.011714688134418397,0.03178919955599746,-0.01704201002104511
1.5004291029295596,0.015165201318802408,0.02856568544861433,0.01415548030345099,0.03619319639277226,-0.018883542272380507
1.5005006200844861,0.01716595655706576,0.033206298414726346,0.016954003693511403,0.03934159210670507,-0.01952868343108937
1.5005721372394127,0.02086274426290797,0.03668496924479496,0.019187221778694714,0.04252587367668704,-0.020562100041595126
1.5006436543943393,0.02544081002802935,0.039761065162460134,0.02137618975240262,0.04625712978052921,-0.02204624140206876
1.500715171549266,0.03000884122307953,0.043034414829883474,0.02421994995090846,0.04913128864427191,-0.02245125709717745
1.5007866887041925,0.03391266896856934,0.046730836655600176,0.02666061786266369,0.05566245800245619,-0.02593837671064792
1.500858205859119,0.0368882624749449,0.05086608400733605,0.029368029530911475,0.06358312305975264,-0.030331834362536416
1.5009297230140457,0.0390355018056212,0.05546024506779979,0.03287087235373193,0.0730422653191725,-0.035412031332609124
1.5010012401689723,0.04067274274449097,0.0569872309210452,0.0349635290275476,0.0797350424836163,-0.03925699495991255
1.5010727573238989,0.04213722341942038,0.057214003441511625,0.036798409825528795,0.08383322048785885,-0.041259556351055514
1.5011442744788255,0.043587855733941964,0.05724843066122479,0.03793328428010061,0.08782884595686885,-0.04363142673464072
1.501215791633752,0.044880915226329254,0.056915020218314606,0.03824814004694497,0.09091927793970149,-0.0458268621289298
1.5012873087886787,0.045592465454410994,0.057809056996879146,0.03896037083855539,0.09487503883745275,-0.048440850542524644
1.5013588259436053,0.04519857422015515,0.05699956463939296,0.038338310339186395,0.09520548279625839,-0.049094951230582835
1.5014303430985318,0.04331902735671992,0.05336382705738954,0.03525172960142179,0.09325621703705185,-0.04955455082888632
1.5015018602534584,0.03989064242203222,0.04578901216330847,0.029380562295107576,0.08754468564992865,-0.048873503311435515
1.501573377408385,0.035207008956161204,0.036997020929867605,0.02275340008029923,0.0802545161843272,-0.04745209945781236
1.5016448945633116,0.029854908046904056,0.029049123773353436,0.01716592382272006,0.07143978012855752,-0.04419079757665633
1.5017164117182382,0.02460404968418353,0.022521058183013243,0.01272729457488559,0.0624069857362579,-0.04003431036434133
1.5017879288731648,0.020274028275387688,0.018793834676146003,0.010756457121333964,0.054419546251194086,-0.03511865283126347
1.5018594460280914,0.01756978332877583,0.01709337919962598,0.009814843547662735,0.04919851844623546,-0.03168683027759773
1.501930963183018,0.016887968997375314,0.016934523210882742,0.009773529530205848,0.04412117336252096,-0.0277937982387247
1.5020024803379446,0.018154766828972088,0.016428393019492903,0.009545857603491862,0.04003451860801137,-0.02478513378461575
1.5020739974928712,0.020807783027131654,0.017225394690520326,0.00997328939183271,0.03750357744886826,-0.02255996668961373
1.5021455146477978,0.023992628107040868,0.019831293421606732,0.01144212206274167,0.0377316401852559,-0.021799893989379215
1.5022170318027244,0.026898257150269028,0.024197238103322888,0.014028974316248104,0.041458469995160084,-0.023026925127748597
1.502288548957651,0.029041972437567,0.028649764082518212,0.016679671046279716,0.046623778532108834,-0.025324125312076073
1.5023600661125776,0.03036170293294545,0.03336434688152009,0.019990738498687276,0.05226793478328052,-0.027571210401318963
1.5024315832675041,0.031115659296329378,0.0338501797515465,0.02077896981185265,0.05595047424899342,-0.029913144551554936
1.5025031004224307,0.031680428730509906,0.031150552471342744,0.019519808615351825,0.05684984429683986,-0.031410930373387054
1.5025746175773573,0.032340192227813126,0.02784819646946913,0.018649627815208736,0.055153517286737085,-0.030655241566643242
1.502646134732284,0.033131945974426154,0.02550972685372831,0.017871043624403338,0.05233267133888779,-0.028972773885762644
1.5027176518872105,0.033797027787609374,0.02520311036470224,0.01799769758677829,0.05179114990556623,-0.028473801431353016
1.502789169042137,0.033871437590867574,0.02404437975983562,0.017486670760106647,0.05030242894986066,-0.027649938788554228
1.5028606861970637,0.03289397904446062,0.020961230423577247,0.015274482970942199,0.0473679877767672,-0.026794432193705628
1.5029322033519903,0.030638444170610023,0.017343930899968028,0.012011118949132128,0.04437701577570014,-0.02656546575991595
1.5030037205069169,0.02725242384486997,0.015327033236279887,0.009441040885373031,0.04264319428340904,-0.026864979710916517
1.5030752376618435,0.023245599290448483,0.01650679852653331,0.008606550278537486,0.042655973969643726,-0.027406517068177705
1.50314675481677,0.019358366958489085,0.019562389883722827,0.008953985446160287,0.043315286185313655,-0.027693982654046816
1.5032182719716967,0.01638051368297583,0.02355555470433722,0.010426555451109277,0.04409751987180597,-0.027359458862669987
1.5032897891266233,0.01497089818834955,0.027462655753276905,0.012350463029946239,0.044210188598867536,-0.02622044649120417
1.5033613062815498,0.015499460648454992,0.0304978805868945,0.013981854206916533,0.043598574976804194,-0.02470864424254314
1.5034328234364764,0.01793079665045714,0.030751997222531753,0.01416864675154985,0.0407949616230112,-0.022425858819501807
1.503504340591403,0.021792554285279486,0.030103220950714323,0.013806564009865633,0.037985796788350776,-0.02048900568889363
1.5035758577463296,0.026283745634476982,0.03266854585269928,0.015751292513310384,0.0383343446160716,-0.01951824949786603
1.5036473749012562,0.03053094650102892,0.037678407401687944,0.019003856556851165,0.04336434630387229,-0.02132618595376049
1.5037188920561828,0.03389868374654469,0.04428403907607807,0.02304438568669538,0.05283609176341474,-0.026062395611881464
1.5037904092111094,0.03619247413189749,0.05226817152373223,0.02836367437687625,0.06335186753085141,-0.03079418266522783
1.503861926366036,0.03764566473947448,0.05814972714578429,0.03246316988130233,0.07325218778442762,-0.03583489345895652
1.5039334435209626,0.038716510453014726,0.06081263341222627,0.03408384953452373,0.0813101107892458,-0.04103904116890931
1.5040049606758892,0.0398171228344044,0.06216348651063483,0.03557140334761458,0.08722676766673687,-0.04467398818998687
1.5040764778308158,0.041095739566223526,0.06524991943588176,0.037525773851031737,0.09218710323809261,-0.04727207818868248
1.5041479949857424,0.04234364882306056,0.06833460348531796,0.038887791087543686,0.09704006574704747,-0.05016782151744881
1.504219512140669,0.043051695709888996,0.06969402963367231,0.03921573232033744,0.10058379891183546,-0.05271011623322903
1.5042910292955955,0.04260283060723393,0.06531642446208183,0.036347749549566495,0.09940161829701658,-0.05362468705162212
1.5043625464505221,0.04053910287302065,0.055133462972672034,0.030363706364527798,0.09269384522589193,-0.05223920023546575
1.5044340636054487,0.03679439695722014,0.042425746191519086,0.02344001313236871,0.08158498791975935,-0.04804476449042324
1.5045055807603753,0.03178229372791513,0.0312876001338741,0.01698689592080203,0.0712158575859264,-0.04413165133781122
1.504577097915302,0.026296542555493532,0.02373888028939845,0.012446934359831944,0.06214472107364781,-0.04001021271531151
1.5046486150702285,0.021278189004975218,0.021119983216491254,0.011187449324425095,0.05532714709264524,-0.035545102994522834
1.504720132225155,0.017555651134353225,0.020536355681329364,0.011283372248322305,0.04971498962296476,-0.03114996732579502
1.5047916493800817,0.01564621916050789,0.019660402494999986,0.010644076718018416,0.04505784777298453,-0.027962076902684152
1.5048631665350083,0.015656872938766518,0.01776216522173467,0.009217644422453899,0.03953207676532958,-0.024606574052078365
1.5049346836899349,0.017286051262519187,0.016487096125855524,0.008230188330603324,0.03518407415369498,-0.02188124496052042
1.5050062008448615,0.019918755698584013,0.01653391667375331,0.007905738300784866,0.032000772931826606,-0.019632515422401367
1.505077717999788,0.022804926807040774,0.01883408522840383,0.009361654152707073,0.03041798435561712,-0.017483999846685177
1.5051492351547147,0.025289013466251117,0.023528511433422286,0.011726326065843064,0.03504378774785297,-0.01954511081577656
1.5052207523096413,0.027015644551186973,0.028109508840403273,0.014241445734319206,0.04023465381562349,-0.021947073775800137
1.5052922694645678,0.028012475009877,0.030317246360448517,0.015961322224474977,0.04280408637117904,-0.022833651502359997
1.5053637866194944,0.028596359216805502,0.0270727364403043,0.014919408532213189,0.04133574948912039,-0.02236463274405107
1.505435303774421,0.02915112616185344,0.021014105468211287,0.013309044659559194,0.03723058533078274,-0.02022343826797719
1.5055068209293476,0.029900153036102176,0.016881572399795573,0.012321918805932341,0.03357121006053728,-0.01802954574687127
1.5055783380842742,0.030782681811496897,0.016346139578397412,0.01250866989698158,0.03252216094217011,-0.017101313395884894
1.5056498552392008,0.03146961942071043,0.018572408503019867,0.013496870470295333,0.03542790582732239,-0.018712948744214607
1.5057213723941274,0.03149161794629547,0.019610501452119688,0.013134126432083434,0.038937970780266125,-0.021652300474414
1.505792889549054,0.030427310908792447,0.01910993716096482,0.011855838401314541,0.04087371908137365,-0.02396070528756647
1.5058644067039806,0.02809465201809536,0.017000460225695086,0.009674998552531539,0.040422454313671974,-0.025002191070103215
1.5059359238589072,0.024683284499830333,0.013299379407056076,0.006168765257997816,0.03894227581880515,-0.026093957962256838
1.5060074410138338,0.020766913938386953,0.011022554719385414,0.003987129865862614,0.0371956127118905,-0.026136144677675756
1.5060789581687604,0.017165658691511196,0.01210899282620705,0.004506773893992003,0.03548545809506305,-0.024485900599655646
1.506150475323687,0.014695536880755058,0.014528895130512899,0.005603202541494299,0.03441630096767452,-0.022962706097323368
1.5062219924786135,0.013907828977730352,0.01659925189906812,0.006474304461408025,0.032528713492776806,-0.02095176804545124
1.5062935096335401,0.014929925183180436,0.017034088759744655,0.007024475314287043,0.028189538906478934,-0.01725469149337847
1.5063650267884667,0.01746107614733839,0.016094622609425676,0.006681651925523114,0.024356452878611958,-0.01451738740179601
1.5064365439433933,0.020900617081537138,0.0176765162706473,0.008103902228742074,0.022446768099621626,-0.012138646418074854
1.50650806109832,0.024545654709518663,0.021677288324541247,0.01119024144466396,0.022287381956375505,-0.010048825122169525
1.5065795782532465,0.027795889555703463,0.02837076005263943,0.015188716512202768,0.028561839593293056,-0.012338412387445053
1.506651095408173,0.030315638754338018,0.037095998983558934,0.02020329875354711,0.03755333956977859,-0.016076871887751188
1.5067226125630997,0.03210575674634778,0.04573154897019163,0.02516307524326057,0.04733132725277,-0.020459695910762448
1.5067941297180263,0.03344435853615213,0.05066334576591495,0.02809340030703321,0.05430696868014176,-0.0239767164362315
1.5068656468729529,0.03469846610783441,0.05108749949240022,0.028836225363534616,0.05705435825031263,-0.025625147923380973
1.5069371640278795,0.03608805388876267,0.050229632613347605,0.029158238083419115,0.057310279878336166,-0.025617326724354666
1.507008681182806,0.03753193323000867,0.05014037629291932,0.029645090979329304,0.058353616077123485,-0.026112734134467075
1.5070801983377327,0.038657419159163646,0.050450019348070925,0.03000532215028713,0.05902697724452677,-0.026403113427643652
1.5071517154926592,0.038950459296790155,0.04939715734896684,0.029635790998015537,0.05796053866420899,-0.02581491617371217
1.5072232326475858,0.03795818995272562,0.0440794623465775,0.026170643808596194,0.05451129917369157,-0.025361740794100425
1.5072947498025124,0.035465807062779846,0.03734523478968121,0.02167628316777021,0.04914968881838665,-0.02408814143939687
1.507366266957439,0.03160750390290827,0.031784758155474775,0.01779655130545853,0.044567540597073324,-0.023024729919499647
1.5074377841123656,0.02689036393457737,0.027082520446174006,0.014369878001425985,0.04140995138093624,-0.0227721865142914
1.5075093012672922,0.022110982309926926,0.023109933366422475,0.012274203971852665,0.03771623407503386,-0.021257708101472896
1.5075808184222188,0.018158898886019043,0.020672576382622085,0.010838451012952628,0.03595555392718297,-0.020814344251670367
1.5076523355771454,0.015750547010193554,0.019227604485087237,0.009985828883372298,0.033597541732467116,-0.01953867708168461
1.507723852732072,0.015198153002695225,0.016310393433858702,0.008495434228764531,0.02817211304627721,-0.01630393919057872
1.5077953698869986,0.01632710132796861,0.012367191145708997,0.006411917338543193,0.021594459796535657,-0.012559696983182406
1.5078668870419252,0.01858159605132472,0.009519416335798662,0.00521914285473996,0.015612810975054575,-0.008708340075037195
1.5079384041968518,0.02125563485920751,0.007938516520732478,0.005152249488431391,0.010005988096335117,-0.004429107913422697
1.5080099213517784,0.023737553869918368,0.007934575114506673,0.0057615299185219465,0.0076014646444383435,-0.002187534447320542
1.508081438506705,0.025680396681245936,0.009825132072273772,0.007453924502377228,0.00831086088835606,-0.0016558628057601215
1.5081529556616315,0.027059576075294776,0.01146243630260879,0.008842952470356694,0.010092597193788489,-0.002143999084585651
1.5082244728165581,0.028112039179855254,0.0106930139768043,0.008942296206187028,0.010283016956757112,-0.0022274613404214324
1.5082959899714847,0.029172386947160022,0.008712552895602481,0.008780907310022895,0.01014078064523015,-0.0022206775794434406
1.5083675071264113,0.03045818310099522,0.008853887030111172,0.010026451111954632,0.01083628668973744,-0.001962992292962255
1.508439024281338,0.03190386747651281,0.012875962138704943,0.012747040105629182,0.014450095190795618,-0.0030146049322898306
1.5085105414362645,0.03314377564440417,0.018733821509694708,0.01600259242207933,0.020329744829032017,-0.0054719399316849665
1.508582058591191,0.03366149064758627,0.02348242737639284,0.0186299276568245,0.025815237916121943,-0.008026282232545583
1.5086535757461177,0.03301661123576188,0.022974942118100524,0.017302793300784304,0.027610403117441253,-0.010256832160473966
1.5087250929010443,0.031031763736761156,0.018772702474221442,0.013978643770450466,0.025752791225392226,-0.010943565383707532
1.5087966100559709,0.02787943173947238,0.013387715726950541,0.009773118861112214,0.021815822987854273,-0.010588420558593143
1.5088681272108975,0.024071143965329337,0.008406653505207745,0.005405399448016361,0.01888900647584428,-0.011115259920438632
1.508939644365824,0.020368522042175177,0.004602236311709218,0.002619426200917792,0.015811794529314922,-0.010518207139210716
1.5090111615207507,0.017622660517009992,0.0028765410598030044,0.001280243020763253,0.015191393637550723,-0.010893221964301262
1.5090826786756772,0.016549556574789192,0.0024246446178140257,0.001094148915450876,0.01508649270932132,-0.010930926788419943
1.5091541958306038,0.01749078347259404,0.0025982835302552094,0.001728275756159572,0.013298392086378528,-0.009148584322827676
1.5092257129855304,0.02026609634215111,0.003233364959978624,0.002622344403247119,0.010691587944638405,-0.0065695909301389695
1.509297230140457,0.024225306810832306,0.006678907265702561,0.005090188490138515,0.010277191235969825,-0.004677692835809999
1.5093687472953836,0.028505184243561566,0.014622777908654898,0.010396256019729185,0.0128745446408621,-0.003298401211367479
1.5094402644503102,0.032363241212534366,0.02547376411176434,0.017181792517199104,0.019147294741910757,-0.003808558041847422
1.5095117816052368,0.035420479974014,0.037173605079952966,0.023785576506019895,0.027820797713684755,-0.006284644593048189
1.5095832987601634,0.03772295943106026,0.045711564385490594,0.028541189697550762,0.033824669839098466,-0.007880656730991436
1.50965481591509,0.039632532833370364,0.04809802640191697,0.030196375009199177,0.03577809560220136,-0.008330982844916946
1.5097263330700166,0.041605230836871475,0.043494180501075966,0.028415936049993602,0.03395208140897624,-0.008058880702121048
1.5097978502249432,0.04392716574129624,0.036633570202394765,0.026087173799228647,0.027720233220735423,-0.004738715143604295
1.5098693673798698,0.04649881119729661,0.03287275074809236,0.025125670272120693,0.021949831225839565,-0.000903032500591227
1.5099408845347964,0.048782229516577,0.03339748901457869,0.025898717163670308,0.02048846582667744,0.0007166863906773254
1.510012401689723,0.04998265464348263,0.036517826329908125,0.027970420605425636,0.02135744782321655,0.0013685714569474817
1.5100839188446495,0.04939582665258717,0.037038774450111105,0.02744804663090382,0.02139986885224128,0.0010025694625082962
1.5101554359995761,0.046726633743720845,0.03454866352291328,0.024915387052692306,0.020005233517831424,0.0004619095786550418
1.5102269531545027,0.04221494386441091,0.03166086664971823,0.022036546886626967,0.017807533727201938,0.0003198507496338668
1.5102984703094293,0.0365554045951188,0.029867838150881645,0.019143160662124768,0.01826168959417178,-0.0018752947096529542
1.510369987464356,0.030705701566729478,0.029732266978470985,0.01712115674686206,0.020586004481360266,-0.004956375012631274
1.5104415046192825,0.025671938650474672,0.03075009621774462,0.016152578444133103,0.02390216144884549,-0.008130682494897401
1.510513021774209,0.02230380117340663,0.03229926022513622,0.01595046449902194,0.02737684725551458,-0.010938922876862125
1.5105845389291357,0.02110478427342222,0.03074366458570637,0.014310671393420193,0.027420802094666682,-0.012018193630140091
1.5106560560840623,0.022087028251984653,0.025637352778466658,0.011927341615445858,0.022108369697558954,-0.009441001304477954
1.5107275732389889,0.02474352062355467,0.01763470096707257,0.008315005741078718,0.014486179104532865,-0.005867070639841841
1.5107990903939155,0.028206425428266402,0.011638320051430352,0.006455089330600415,0.007580834546859948,-0.001729682677500273
1.510870607548842,0.03156791810921427,0.00897919336208832,0.006924877381908108,0.0034821689096172148,0.0017286608679899754
1.5109421247037687,0.034217944840168574,0.009356679928361651,0.0085255112555674,0.0040582815432422615,0.0023046124051678213
1.5110136418586952,0.036025983655989566,0.012589999297043249,0.01161661354179527,0.007218270669589786,0.00183903363875432
1.5110851590136218,0.03729532439305516,0.014108638135841782,0.013294021431409462,0.010161109665305593,0.0006399552294157584
1.5111566761685484,0.03854470610167679,0.012659454984522298,0.013163190298163863,0.012864492201809066,-0.0015271431966283715
1.511228193323475,0.04022460916569971,0.011291142235823056,0.013651672900344249,0.013417765590205296,-0.00164225337224606
1.5112997104784016,0.04246467581659284,0.01211338755177676,0.01442102957265151,0.014480735375584699,-0.001971208265887033
1.5113712276333282,0.04493429586497486,0.0169801392327221,0.016921655013448497,0.018621161293118225,-0.0035688051793051753
1.5114427447882548,0.04689231770787431,0.02275742954161506,0.019784155718843215,0.023498520932917134,-0.005503908623207887
1.5115142619431814,0.047454803887083834,0.025256291249381724,0.02007376929597759,0.02588024019198977,-0.0071556865584100435
