freq,gls,usurper,pdc_unbiased,shape_periodogram,shift_periodogram
1.5,0.031605246424144244,0.031116779745507132,0.022003088454338578,0.03260625202046682,0.003116101275030999
1.5000715171549266,0.028595336453250155,0.02477415221484761,0.01679692217781675,0.026383300300684264,0.0016424327316948678
1.5001430343098532,0.024797888546036324,0.019396558451743685,0.011419584810450916,0.021873611741767773,-0.0008218476231851051
1.5002145514647798,0.020789812632417533,0.017910506850392492,0.008796510756732951,0.01825797746884667,-0.0013265495994044681
1.5002860686197064,0.017345459787468324,0.020717768819576488,0.009479677332466734,0.017331567307694955,-0.00027569695044047163
1.500357585774633,0.015271945925960987,0.025228700301952168,0.011714688134418397,0.018721728396001648,0.0009864591505415986
1.5004291029295596,0.015165201318802408,0.03057071004067729,0.01415548030345099,0.023269487707895477,0.0008740173268018347
1.5005006200844861,0.01716595655706576,0.035588361530119794,0.016954003693511403,0.027037692115715918,0.0014571856516898895
1.5005721372394127,0.02086274426290797,0.03966835335128291,0.019187221778694714,0.030242207289163804,0.0018256823099763284
1.5006436543943393,0.02544081002802935,0.04322997457477892,0.02137618975240262,0.0328810321016381,0.002434422979825914
1.500715171549266,0.03000884122307953,0.04709201523525003,0.02421994995090846,0.0341049594036353,0.00431087550541552
1.5007866887041925,0.03391266896856934,0.05154042198438354,0.02666061786266369,0.038451248065444574,0.004299604788118315
1.500858205859119,0.0368882624749449,0.05662963492015527,0.029368029530911475,0.04447464291923267,0.0036958072366522128
1.5009297230140457,0.0390355018056212,0.062107369592978315,0.03287087235373193,0.05205792189604182,0.0030184966461590185
1.5010012401689723,0.04067274274449097,0.06407030395873808,0.0349635290275476,0.05794461625583786,0.001945857035034721
1.5010727573238989,0.04213722341942038,0.06418308078297945,0.036798409825528795,0.06155429384083852,0.001770132322399655
1.5011442744788255,0.043587855733941964,0.0640053866418971,0.03793328428010061,0.06484221123915454,0.0011412917319141083
1.501215791633752,0.044880915226329254,0.06335219240400766,0.03824814004694497,0.06759228271604059,6.0463688709909944e-05
1.5012873087886787,0.045592465454410994,0.06419635291312323,0.03896037083855539,0.0708818159069826,-0.0009393359747243444
1.5013588259436053,0.04519857422015515,0.06364515454935117,0.038338310339186395,0.07117162883363733,-0.0016264575867689503
1.5014303430985318,0.04331902735671992,0.06011747345135108,0.03525172960142179,0.07070432809197087,-0.004095088334992274
1.5015018602534584,0.03989064242203222,0.05250975783792797,0.029380562295107576,0.06760005393676163,-0.007693867224324174
1.501573377408385,0.035207008956161204,0.04349017031401503,0.02275340008029923,0.06369869399013224,-0.011554587976648665
1.5016448945633116,0.029854908046904056,0.035186522592568,0.01716592382272006,0.057695774659200276,-0.01346627653737179
1.5017164117182382,0.02460404968418353,0.028073776013642877,0.01272729457488559,0.05068060968060094,-0.013874873584720124
1.5017879288731648,0.020274028275387688,0.023531897954706615,0.010756457121333964,0.044830857024525175,-0.012707637551265097
1.5018594460280914,0.01756978332877583,0.020986356221401485,0.009814843547662735,0.04162732884854381,-0.011948844008626875
1.501930963183018,0.016887968997375314,0.019928585924426995,0.009773529530205848,0.03850621679846541,-0.010446645669466948
1.5020024803379446,0.018154766828972088,0.018561255819078065,0.009545857603491862,0.035565651935133724,-0.009196125795324542
1.5020739974928712,0.020807783027131654,0.018600762640250137,0.00997328939183271,0.03339734886948425,-0.007755653734188875
1.5021455146477978,0.023992628107040868,0.020836305769718982,0.01144212206274167,0.03279246085666134,-0.00617819986412958
1.5022170318027244,0.026898257150269028,0.025227747211760996,0.014028974316248104,0.03442036424304973,-0.004726273102827928
1.502288548957651,0.029041972437567,0.030007335856732393,0.016679671046279716,0.037347053098072854,-0.0038579789692307137
1.5023600661125776,0.03036170293294545,0.03527560396259138,0.019990738498687276,0.040908979759442174,-0.0027264434415350323
1.5024315832675041,0.031115659296329378,0.03621932006024764,0.02077896981185265,0.04343359894997688,-0.0032829489119256894
1.5025031004224307,0.031680428730509906,0.03338158163658628,0.019519808615351825,0.04349792404995161,-0.004412484725107042
1.5025746175773573,0.032340192227813126,0.029326377551889736,0.018649627815208736,0.040835009462839515,-0.0038591186739003313
1.502646134732284,0.033131945974426154,0.02628878579756292,0.017871043624403338,0.03707014974328748,-0.002683278922083528
1.5027176518872105,0.033797027787609374,0.025758674821568944,0.01799769758677829,0.035580841288619255,-0.0018394325512589228
1.502789169042137,0.033871437590867574,0.024551480604505783,0.017486670760106647,0.03336768912856189,-0.001194967548624567
1.5028606861970637,0.03289397904446062,0.021496040630147924,0.015274482970942199,0.030962121719750595,-0.00193808680643009
1.5029322033519903,0.030638444170610023,0.01791261809906447,0.012011118949132128,0.028570928158360494,-0.0036036612972531663
1.5030037205069169,0.02725242384486997,0.016070770966854494,0.009441040885373031,0.02695409421232968,-0.0050461348770240635
1.5030752376618435,0.023245599290448483,0.017674584522804217,0.008606550278537486,0.02661142868086976,-0.005604196670963879
1.50314675481677,0.019358366958489085,0.02118299294828412,0.008953985446160287,0.02645896494741045,-0.005226539449799247
1.5032182719716967,0.01638051368297583,0.025505974191109615,0.010426555451109277,0.026663184972007405,-0.004044553643344115
1.5032897891266233,0.01497089818834955,0.029493567982264254,0.012350463029946239,0.027287491711467302,-0.0026761633479393883
1.5033613062815498,0.015499460648454992,0.03273467492828978,0.013981854206916533,0.027777259216767904,-0.0014961820317310301
1.5034328234364764,0.01793079665045714,0.03310386886225872,0.01416864675154985,0.025927181439588328,-0.00042269838431530034
1.503504340591403,0.021792554285279486,0.03233637862732262,0.013806564009865633,0.023369992989791047,0.0005206285014572467
1.5035758577463296,0.026283745634476982,0.03476122052425833,0.015751292513310384,0.023845781547211165,0.00198045569806337
1.5036473749012562,0.03053094650102892,0.03988326225447251,0.019003856556851165,0.028479373198871897,0.0025336127246100995
1.5037188920561828,0.03389868374654469,0.046976935963530086,0.02304438568669538,0.03652580772374074,0.0020943008264004666
1.5037904092111094,0.03619247413189749,0.056091093195094414,0.02836367437687625,0.04499742624478301,0.0025620756709859704
1.503861926366036,0.03764566473947448,0.06311378414952043,0.03246316988130233,0.052588958037101,0.002400925794356848
1.5039334435209626,0.038716510453014726,0.06656678085554828,0.03408384953452373,0.059378881375862606,0.00047047025394202015
1.5040049606758892,0.0398171228344044,0.06819605154424976,0.03557140334761458,0.06400482665957291,-0.0005104014481080578
1.5040764778308158,0.041095739566223526,0.07157982171341429,0.037525773851031737,0.06813518909723451,-0.0008389900086388235
1.5041479949857424,0.04234364882306056,0.07499091055302477,0.038887791087543686,0.0725705383286427,-0.001836129688193754
1.504219512140669,0.043051695709888996,0.07660965981535184,0.03921573232033744,0.07642008958586546,-0.0034495093609933376
1.5042910292955955,0.04260283060723393,0.07258086378302833,0.036347749549566495,0.0776369050788746,-0.006559951908619917
1.5043625464505221,0.04053910287302065,0.0622865998532229,0.030363706364527798,0.07459276876669627,-0.010288580756219128
1.5044340636054487,0.03679439695722014,0.04917308650865813,0.02344001313236871,0.06702987294968918,-0.012600236423713102
1.5045055807603753,0.03178229372791513,0.03754447063348681,0.01698689592080203,0.05955077278541745,-0.014538062479394617
1.504577097915302,0.026296542555493532,0.02938930452161841,0.012446934359831944,0.0527087548391536,-0.015119807349788138
1.5046486150702285,0.021278189004975218,0.026081066154939964,0.011187449324425095,0.04711522419604441,-0.013458442785400837
1.504720132225155,0.017555651134353225,0.02455381359085769,0.011283372248322305,0.04308000835865519,-0.011385369075068603
1.5047916493800817,0.01564621916050789,0.02273298395438681,0.010644076718018416,0.04020468280332985,-0.01052520688832541
1.5048631665350083,0.015656872938766518,0.019898127279173807,0.009217644422453899,0.03627440010030383,-0.009831217308779516
1.5049346836899349,0.017286051262519187,0.01790038673256776,0.008230188330603324,0.031822727675301414,-0.008498359285621893
1.5050062008448615,0.019918755698584013,0.017354282472709308,0.007905738300784866,0.0284222731139212,-0.007106228659887494
1.505077717999788,0.022804926807040774,0.01911412174667973,0.009361654152707073,0.02589145045884938,-0.0045920682532768
1.5051492351547147,0.025289013466251117,0.023841935317092906,0.011726326065843064,0.02886675197836858,-0.003997395543745782
1.5052207523096413,0.027015644551186973,0.02887983120623068,0.014241445734319206,0.03282893664354212,-0.0037573892194265293
1.5052922694645678,0.028012475009877,0.031527527749481435,0.015961322224474977,0.03420133437317713,-0.002934677164560071
1.5053637866194944,0.028596359216805502,0.028673825629928297,0.014919408532213189,0.03230746854165779,-0.0029099040934456423
1.505435303774421,0.02915112616185344,0.022352797363766833,0.013309044659559194,0.027181548513536005,-0.001789003420084144
1.5055068209293476,0.029900153036102176,0.017641377021003865,0.012321918805932341,0.022735814012734452,-0.00046035223929375
1.5055783380842742,0.030782681811496897,0.01675877479143693,0.01250866989698158,0.0206361036093898,0.0007357661043085107
1.5056498552392008,0.03146961942071043,0.019010897275000216,0.013496870470295333,0.022093593595157068,0.0008791148118380275
1.5057213723941274,0.03149161794629547,0.020349593246928036,0.013134126432083434,0.0245603132318799,-0.0006509940474562509
1.505792889549054,0.030427310908792447,0.02023625714547016,0.011855838401314541,0.026869964183370502,-0.002901443671838467
1.5058644067039806,0.02809465201809536,0.01864749376717226,0.009674998552531539,0.027109774521337605,-0.00491902207211476
1.5059359238589072,0.024683284499830333,0.015523483751571752,0.006168765257997816,0.026227293540729352,-0.007538039464240473
1.5060074410138338,0.020766913938386953,0.013559425380937223,0.003987129865862614,0.02471707146953696,-0.008694130317268366
1.5060789581687604,0.017165658691511196,0.014715840875485055,0.004506773893992003,0.022521393989375832,-0.007160594491278678
1.506150475323687,0.014695536880755058,0.016967120402574396,0.005603202541494299,0.02164386802870805,-0.005773872045599714
1.5062219924786135,0.013907828977730352,0.01869050020216399,0.006474304461408025,0.02088947977160453,-0.004643979824549991
1.5062935096335401,0.014929925183180436,0.018669521010400522,0.007024475314287043,0.017703268937976063,-0.002596554818132392
1.5063650267884667,0.01746107614733839,0.017128024187188576,0.006681651925523114,0.014644384207810664,-0.0013895482690742175
1.5064365439433933,0.020900617081537138,0.018137323007486175,0.008103902228742074,0.012929926979259848,0.000692550711078013
1.50650806109832,0.024545654709518663,0.021996321277781304,0.01119024144466396,0.011671645348395375,0.003999098614971357
1.5065795782532465,0.027795889555703463,0.02918904301001682,0.015188716512202768,0.015550726703714941,0.005572403740958926
1.506651095408173,0.030315638754338018,0.038780361137098866,0.02020329875354711,0.02200344527322834,0.00676553837673688
1.5067226125630997,0.03210575674634778,0.0487177710585846,0.02516307524326057,0.029820122587706666,0.007241717040575334
1.5067941297180263,0.03344435853615213,0.05463386946305384,0.02809340030703321,0.03704105703264252,0.00624326828943383
1.5068656468729529,0.03469846610783441,0.05546518093889682,0.028836225363534616,0.04044837115711384,0.005214076588151709
1.5069371640278795,0.03608805388876267,0.05455949699621857,0.029158238083419115,0.04119708393503303,0.005126418999234544
1.507008681182806,0.03753193323000867,0.05440744004799868,0.029645090979329304,0.04239128025914986,0.004963271791223816
1.5070801983377327,0.038657419159163646,0.05467642853868876,0.03000532215028713,0.04359139263650347,0.004686739172150976
1.5071517154926592,0.038950459296790155,0.053680179862345835,0.029635790998015537,0.04348505861104896,0.004416670874016782
1.5072232326475858,0.03795818995272562,0.04862034833934883,0.026170643808596194,0.04265209803847777,0.0018039483064089556
1.5072947498025124,0.035465807062779846,0.04210968727889021,0.02167628316777021,0.04072464971506004,-0.0011661268536070218
1.507366266957439,0.03160750390290827,0.03678180092630155,0.01779655130545853,0.03832081710020527,-0.0033642071431722767
1.5074377841123656,0.02689036393457737,0.03214700617043406,0.014369878001425985,0.03646827546331206,-0.005437938971256647
1.5075093012672922,0.022110982309926926,0.02784925489727224,0.012274203971852665,0.03363088532636848,-0.005866265055998613
1.5075808184222188,0.018158898886019043,0.02490088333150647,0.010838451012952628,0.03240896034255997,-0.006515188674507989
1.5076523355771454,0.015750547010193554,0.022803405582195003,0.009985828883372298,0.030750323590408937,-0.0064410018847469675
1.507723852732072,0.015198153002695225,0.019140163943365155,0.008495434228764531,0.026927177238259416,-0.005856439799806023
1.5077953698869986,0.01632710132796861,0.014469117984592132,0.006411917338543193,0.021615018401244888,-0.00505547187098747
1.5078668870419252,0.01858159605132472,0.010952986361528668,0.00521914285473996,0.015902957978230943,-0.003282372996667584
1.5079384041968518,0.02125563485920751,0.008724920421480042,0.005152249488431391,0.009890367684044197,-0.00038154404274654734
1.5080099213517784,0.023737553869918368,0.008213110171146249,0.0057615299185219465,0.006184046109527472,0.0019727541559536772
1.508081438506705,0.025680396681245936,0.010201383496403156,0.007453924502377228,0.00443137071897865,0.004308591654737367
1.5081529556616315,0.027059576075294776,0.01230551345508555,0.008842952470356694,0.003901358871381647,0.00577868360478093
1.5082244728165581,0.028112039179855254,0.011703409398242525,0.008942296206187028,0.003100253841388015,0.006259346651349705
1.5082959899714847,0.029172386947160022,0.009577700551440076,0.008780907310022895,0.002506138371930589,0.006411167509295581
1.5083675071264113,0.03045818310099522,0.009363845955865011,0.010026451111954632,0.002578794998555625,0.007459794261398302
1.508439024281338,0.03190386747651281,0.013142164263241043,0.012747040105629182,0.0049790863122810836,0.00864748989148345
1.5085105414362645,0.03314377564440417,0.019146340890982015,0.01600259242207933,0.009487052938855092,0.009264436944016772
1.508582058591191,0.03366149064758627,0.024273770920799968,0.0186299276568245,0.013401870209666617,0.009626680663760535
1.5086535757461177,0.03301661123576188,0.024519604335915265,0.017302793300784304,0.01519769948947976,0.007587329793572843
1.5087250929010443,0.031031763736761156,0.0208217288019278,0.013978643770450466,0.0148397334223455,0.004868397807791113
1.5087966100559709,0.02787943173947238,0.015815884961407005,0.009773118861112214,0.012527556698710226,0.0023439790440567283
1.5088681272108975,0.024071143965329337,0.011144293190281448,0.005405399448016361,0.011081461293174945,-0.0007472979725699844
1.508939644365824,0.020368522042175177,0.007359205775561764,0.002619426200917792,0.008706745868856006,-0.0020041569045264333
1.5090111615207507,0.017622660517009992,0.0054123804846816686,0.001280243020763253,0.007583605103162242,-0.0026173055048498406
1.5090826786756772,0.016549556574789192,0.004470848685107523,0.001094148915450876,0.008077103313891887,-0.0030221698655860624
1.5091541958306038,0.01749078347259404,0.004074333464484698,0.001728275756159572,0.0076330919696025405,-0.002251614923233561
1.5092257129855304,0.02026609634215111,0.004245298382364985,0.002622344403247119,0.005173831745754672,-0.0002630651388413658
1.509297230140457,0.024225306810832306,0.007429480486316228,0.005090188490138515,0.003402449235096509,0.002757037638208873
1.5093687472953836,0.028505184243561566,0.015208654204059606,0.010396256019729185,0.00392950719509509,0.007117174412040237
1.5094402644503102,0.032363241212534366,0.026236037512340733,0.017181792517199104,0.00754600141402881,0.01124615840750278
1.5095117816052368,0.035420479974014,0.03870413922539265,0.023785576506019895,0.013200718106977751,0.01421633682756801
1.5095832987601634,0.03772295943106026,0.04805326787360014,0.028541189697550762,0.01758617039287505,0.01620317240392954
1.50965481591509,0.039632532833370364,0.05094933705696685,0.030196375009199177,0.019896933003148088,0.016509514295882478
1.5097263330700166,0.041605230836871475,0.04647166678405241,0.028415936049993602,0.019203536954309198,0.015298775609451698
1.5097978502249432,0.04392716574129624,0.03927227370677201,0.026087173799228647,0.0141908829207881,0.01573445394457637
1.5098693673798698,0.04649881119729661,0.03492280490898843,0.025125670272120693,0.009538712399016602,0.017184450165140922
1.5099408845347964,0.048782229516577,0.03490190516347856,0.025898717163670308,0.009378997952670783,0.017936334663573257
1.510012401689723,0.04998265464348263,0.03779235827873292,0.027970420605425636,0.011381950465013961,0.018756214670723817
1.5100839188446495,0.04939582665258717,0.03844132534766348,0.02744804663090382,0.013002699125593167,0.017504279938820623
1.5101554359995761,0.046726633743720845,0.036280918382428244,0.024915387052692306,0.013271003589105386,0.015165970850782013
1.5102269531545027,0.04221494386441091,0.0337189053430832,0.022036546886626967,0.012938995191112933,0.012821527159297224
1.5102984703094293,0.0365554045951188,0.032465508261261655,0.019143160662124768,0.014354861280493523,0.009604892815261673
1.510369987464356,0.030705701566729478,0.03290208635426196,0.01712115674686206,0.01707607227880234,0.006504975816689317
1.5104415046192825,0.025671938650474672,0.0344942306004428,0.016152578444133103,0.0199318469058049,0.004256151999480019
1.510513021774209,0.02230380117340663,0.036350174204057395,0.01595046449902194,0.02347441700609057,0.002336730047553301
1.5105845389291357,0.02110478427342222,0.034946941474291233,0.014310671393420193,0.024639678364639404,0.0003347791913743129
1.5106560560840623,0.022087028251984653,0.029639300212469414,0.011927341615445858,0.02059873052525843,0.00024786473877318194
1.5107275732389889,0.02474352062355467,0.0210671858637771,0.008315005741078718,0.013614359099126689,0.0005395408153849542
1.5107990903939155,0.028206425428266402,0.014374903655891964,0.006455089330600415,0.006245977569207547,0.0025460975828568966
1.510870607548842,0.03156791810921427,0.011046400810549636,0.006924877381908108,0.0007649834563565424,0.0056520661552004045
1.5109421247037687,0.034217944840168574,0.01116246379851408,0.0085255112555674,-0.0009670085867252619,0.007897749305041384
1.5110136418586952,0.036025983655989566,0.014548531161779288,0.01161661354179527,-0.00028611019144464243,0.01025376404102415
1.5110851590136218,0.03729532439305516,0.016316357961249514,0.013294021431409462,0.00120627627008509,0.010979878561464384
1.5111566761685484,0.03854470610167679,0.015046881607372987,0.013163190298163863,0.0028923938179162695,0.010036436318833344
1.511228193323475,0.04022460916569971,0.013744228594161764,0.013651672900344249,0.002254398634692767,0.010775610146976419
1.5112997104784016,0.04246467581659284,0.0144661608301142,0.01442102957265151,0.0020273347856671745,0.011557154926243308
1.5113712276333282,0.04493429586497486,0.019353797941096797,0.016921655013448497,0.00439778975603583,0.012568294758843156
1.5114427447882548,0.04689231770787431,0.025182543173483375,0.019784155718843215,0.008216915998629318,0.013182351965787488
1.5115142619431814,0.047454803887083834,0.02765267298302199,0.02007376929597759,0.01187523497148493,0.011635166016677601
